2059,964.246494098431
2059.25,970.001143532955
2059.5,976.315289202711
2059.75,982.436711586056
2060,987.63648394102
2060.25,991.215175375194
2060.5,992.475251401259
2060.75,990.758290467527
2061,986.350164856323
2061.25,980.506560379773
2061.5,974.527380862582
2061.75,969.683156915044
2062,966.633417396867
2062.25,965.460550394187
2062.5,966.224349875639
2062.75,968.943694702295
2063,973.10052963996
2063.25,977.798872263296
2063.5,982.134860954101
2063.75,985.328040707471
2064,987.616592643833
2064.25,989.740573276406
2064.5,992.443557332044
2064.75,996.275086331289
2065,1000.49775467035
2065.25,1003.85025608418
2065.5,1005.06975659801
2065.75,1003.20440231712
2066,999.191940189833
2066.25,994.679946223724
2066.5,991.317267779412
2066.75,990.483204887115
2067,991.814374776438
2067.25,994.254257624773
2067.5,996.744561377813
2067.75,998.377839369456
2068,999.118642197247
2068.25,999.244147528179
2068.5,999.031934410052
2068.75,998.75358666818
2069,998.64729226507
2069.25,998.939679220444
2069.5,999.857364361903
2069.75,1001.51501858063
2070,1003.41145442041
2070.25,1004.83482496441
2070.5,1005.07309929425
2070.75,1003.59982808922
2071,1000.90928598876
2071.25,997.844818661632
2071.5,995.250076087864
2071.75,993.814699824567
2072,993.327844444133
2072.25,993.252341420647
2072.5,993.050568176837
2072.75,992.303206122715
2073,991.241327773058
2073.25,990.318331924496
2073.5,989.987810446107
2073.75,990.53938903468
2074,991.435091660619
2074.25,991.876425414953
2074.5,991.064801144235
2074.75,988.397969741737
2075,984.151807544889
2075.25,978.847589017054
2075.5,973.006599932984
2075.75,967.134777716753
2076,961.676461254084
2076.25,957.060538340933
2076.5,953.715686680102
2076.75,951.838542363531
2077,950.950145481274
2077.25,950.449257364732
2077.5,949.738322079185
2077.75,948.526536877859
2078,947.055820164863
2078.25,945.621329203412
2078.5,944.51186731279
2078.75,943.863805605155
2079,943.657503551238
2079.25,943.866250670078
2079.5,944.453774062353
2079.75,945.288844621848
2080,946.185880674441
2080.25,946.958659995424
2080.5,947.460420089502
2080.75,947.736171827182
2081,947.889101468938
2081.25,948.022585119839
2081.5,948.322787041884
2081.75,949.190346338379
2082,951.060177361188
2082.25,954.352640777098
2082.5,958.738959327232
2082.75,962.795420462221
2083,965.011460397186
2083.25,963.988248934141
2083.5,960.439626257454
2083.75,956.965561786202
2084,956.232267487837
2084.25,960.577877764211
2084.5,968.750893734567
2084.75,977.286150903016
2085,982.68592272521
2085.25,982.143268765083
2085.5,977.134784932378
2085.75,970.776756497087
2086,966.188789477189
2086.25,965.801178319157
2086.5,968.574812784678
2086.75,972.381468470005
2087,975.092644157614
2087.25,975.205201751762
2087.5,973.308368910019
2087.75,970.428468532536
2088,967.591153266888
2088.25,965.568584830033
2088.5,964.499293971769
2088.75,964.424428615659
2089,965.384349568548
2089.25,967.352097579972
2089.5,970.182803743563
2089.75,973.719686741471
2090,977.797985428418
2090.25,981.988424337861
2090.5,985.542437401858
2090.75,987.692401679674
2091,987.713654374781
2091.25,985.76643582359
2091.5,982.842100990403
2091.75,979.964194018941
2092,978.115337809753
2092.25,977.592736340479
2092.5,978.125868004802
2092.75,979.427090817361
2093,981.223515023525
2093.25,983.420438946283
2093.5,986.041381182992
2093.75,989.111982460173
2094,992.628135589777
2094.25,996.314592333198
2094.5,999.751138924575
2094.75,1002.51619410543
2095,1004.25290676652
2095.25,1005.12092982294
2095.5,1005.52721547246
2095.75,1005.88026401536
2096,1006.49030517632
2096.25,1006.85214421463
2096.5,1006.05705959076
2096.75,1003.19345262564
2097,997.549512280941
2097.25,990.208677474087
2097.5,983.203195561147
2097.75,978.573914914625
2098,978.109243084937
2098.25,981.267696652006
2098.5,986.249463442095
2098.75,991.242446927619
2099,994.63414810864
2099.25,996.193299668585
2099.5,996.272775083999
2099.75,995.227532291398
2100,993.445141441958
2100.25,991.51723173507
2100.5,990.114196616491
2100.75,989.906597642342
2101,991.365528444181
2101.25,993.789242286367
2101.5,996.048730913159
2101.75,997.014368214134
2102,995.833396291209
2102.25,993.093110231336
2102.5,989.847519248629
2102.75,987.150873491875
2103,985.912961984618
2103.25,986.319228389254
2103.5,988.3285680567
2103.75,991.899799077971
2104,996.844128232213
2104.25,1002.34011819711
2104.5,1007.396877696
2104.75,1011.02351374123
2105,1012.52614203898
2105.25,1012.3670231048
2105.5,1011.28969403703
2105.75,1010.03769193395
2106,1009.14052326121
2106.25,1008.17713701707
2106.5,1006.46268674126
2106.75,1003.31231589383
2107,998.310141294566
2107.25,992.387725458898
2107.5,986.897690369536
2107.75,983.192800013536
2108,982.39181013639
2108.25,984.398002845491
2108.5,988.721249664279
2108.75,994.871221896239
2109,1002.2688388579
2109.25,1009.95960106685
2109.5,1016.88976163543
2109.75,1022.00557306945
2110,1024.49092527384
2110.25,1024.47614887762
2110.5,1022.32716190919
2110.75,1018.40988239692
2111,1013.22334388393
2111.25,1007.95753147714
2111.5,1004.02592233067
2111.75,1002.84210653066
2112,1005.49774751921
2112.25,1010.99911837603
2112.5,1017.52156923689
2112.75,1023.23830368255
2113,1026.58256506894
2113.25,1027.73638932818
2113.5,1027.60268263768
2113.75,1027.08660119819
2114,1027.02526025661
2114.25,1027.63032816024
2114.5,1028.7767804826
2114.75,1030.33634183785
2115,1032.17715826627
2115.25,1034.1189458796
2115.5,1035.94659411066
2115.75,1037.44422753516
2116,1038.40341291016
2116.25,1038.78536878631
2116.5,1038.72012622726
2116.75,1038.34499062065
2117,1037.79573204813
2117.25,1037.12614652404
2117.5,1036.26848340058
2117.75,1035.14515523189
2118,1033.67933522109
2118.25,1031.95951889362
2118.5,1030.44507413013
2118.75,1029.64586427425
2119,1030.07169457624
2119.25,1031.94240577003
2119.5,1034.51451501821
2119.75,1036.84474689716
2120,1037.98982598328
2120.25,1037.27055348696
2120.5,1035.26442274618
2120.75,1032.92235070414
2121,1031.19531523588
2121.25,1030.92857445234
2121.5,1032.16121654239
2121.75,1034.56104993934
2122,1037.79390759102
2122.25,1041.51051246675
2122.5,1045.18574123674
2122.75,1048.18092973038
2123,1049.85551730938
2123.25,1049.6047817832
2123.5,1047.60923331179
2123.75,1044.81351278264
2124,1042.19387822465
2124.25,1040.71718989501
2124.5,1040.6814415835
2124.75,1041.28252692737
2125,1041.61346235039
2125.25,1040.76852237644
2125.5,1038.43890479496
2125.75,1035.86540624223
2126,1034.53701771315
2126.25,1035.94273020267
2126.5,1040.95823399789
2126.75,1047.87512160038
2127,1054.30450999999
2127.25,1057.85751282601
2127.5,1056.61952250195
2127.75,1051.77572737813
2128,1045.75648729124
2128.25,1040.99553189481
2128.5,1039.76072858982
2128.75,1041.90408243484
2129,1045.4510154197
2129.25,1048.38183911811
2129.5,1048.72536121531
2129.75,1045.96218622287
2130,1041.24056199622
2130.25,1035.80066196946
2130.5,1030.87957611812
2130.75,1027.34492530781
2131,1025.34871025701
2131.25,1024.96098213431
2131.5,1026.25137641251
2131.75,1028.97526351323
2132,1032.01489321835
2132.25,1034.10210563489
2132.5,1033.96874426028
2132.75,1030.85835714058
2133,1025.94713220895
2133.25,1020.86744825838
2133.5,1017.25168408188
2133.75,1016.43019661385
2134,1018.01366691408
2134.25,1021.00499471676
2134.5,1024.40638159626
2134.75,1027.25967777613
2135,1028.88578808527
2135.25,1028.72542436853
2135.5,1026.21975949567
2135.75,1020.95599743117
2136,1013.95059687582
2136.25,1007.02886305884
2136.5,1002.02529911412
2136.75,1000.63663219933
2137,1002.61908924509
2137.25,1006.29467685552
2137.5,1009.95179171102
2137.75,1011.98687253033
2138,1012.34145542698
2138.25,1012.11094056227
2138.5,1012.41842650818
2138.75,1014.32581471644
2139,1017.85061655457
2139.25,1022.13500186027
2139.5,1026.2940838527
2139.75,1029.46314118959
2140,1031.20882698864
2140.25,1031.51188587442
2140.5,1030.36976950771
2140.75,1027.78893316317
2141,1024.11821556668
2141.25,1020.14685809312
2141.5,1016.69309990139
2141.75,1014.56813258485
2142,1013.9800637203
2142.25,1014.08053047647
2142.5,1013.91441143279
2142.75,1012.5315943298
2143,1009.7453771362
2143.25,1006.9449008119
2143.5,1005.71408186561
2143.75,1007.63330221926
2144,1013.24230493645
2144.25,1020.59642445581
2144.5,1027.38810153726
2144.75,1031.31204221229
2145,1031.11010772137
2145.25,1028.23122602387
2145.5,1024.55594773238
2145.75,1021.96481693972
2146,1021.83996258284
2146.25,1023.70898469333
2146.5,1026.66823815909
2146.75,1029.814077868
2147,1032.30386342441
2147.25,1033.59057482896
2147.5,1033.21661439265
2147.75,1030.72440372748
2148,1025.83640756469
2148.25,1019.5382920057
2148.5,1013.35654422736
2148.75,1008.81970398561
2149,1007.30426773828
2149.25,1008.59694533864
2149.5,1011.53730784171
2149.75,1014.95232133007
2150,1017.72623225914
2150.25,1019.41459240965
2150.5,1020.00864184286
2150.75,1019.50699925742
2151,1017.92491131416
2151.25,1015.52592525164
2151.5,1012.76447365029
2151.75,1010.09988450655
2152,1007.9856072702
2152.25,1006.75430314201
2152.5,1006.62535053817
2152.75,1007.81375235797
2153,1010.50477876462
2153.25,1014.16201701907
2153.5,1017.50570737671
2153.75,1019.22202334791
2154,1018.04058122628
2154.25,1013.95251412766
2154.5,1008.37611592483
2154.75,1002.80641021053
2155,998.720825968586
2155.25,996.808899129639
2155.5,996.672136946786
2155.75,997.832457803054
2156,999.813176237464
2156.25,1002.20009778857
2156.5,1004.66530695244
2156.75,1006.88719769167
2157,1008.54867359359
2157.25,1009.5294016071
2157.5,1009.97780396122
2157.75,1010.06165113125
2158,1009.94962716788
2158.25,1009.85950886049
2158.5,1010.08204728671
2158.75,1010.91391993392
2159,1012.64770609055
2159.25,1015.28108395631
2159.5,1018.32397745701
2159.75,1021.24055342684
2160,1023.49722346978
2160.25,1024.80414445231
2160.5,1025.33056657094
2160.75,1025.29654498893
2161,1024.922179377
2161.25,1024.44206261286
2161.5,1024.12605367665
2161.75,1024.24927310286
2162,1025.08680121447
2162.25,1026.76640653139
2162.5,1028.93680045008
2162.75,1031.14947965835
2163,1032.95594084401
2163.25,1034.05991866516
2163.5,1034.83264389987
2163.75,1035.82823766197
2164,1037.6008258446
2164.25,1040.54426665942
2164.5,1044.00079953831
2164.75,1046.88871754444
2165,1048.12514291049
2165.25,1046.76250075492
2165.5,1043.32289600846
2165.75,1039.22979812054
2166,1035.91972938786
2166.25,1034.77740539317
2166.5,1035.95969897521
2166.75,1038.37513513909
2167,1040.87633080542
2167.25,1042.33079179842
2167.5,1042.38100868842
2167.75,1041.80718041678
2168,1041.48030840598
2168.25,1042.269467968
2168.5,1044.55078042303
2168.75,1047.55573822015
2169,1050.35377088654
2169.25,1052.01430958257
2169.5,1051.90789693955
2169.75,1050.54662658109
2170,1048.71306906305
2170.25,1047.18979494127
2170.5,1046.63813023003
2170.75,1046.851446423
2171,1047.24483194797
2171.25,1047.23180925574
2171.5,1046.27604238226
2171.75,1044.52968065311
2172,1042.64494963382
2172.25,1041.28532293714
2172.5,1041.09485323128
2172.75,1042.0951125649
2173,1043.5683078354
2173.25,1044.7536308793
2173.5,1044.89595252888
2173.75,1043.80741852258
2174,1042.34267945227
2174.25,1041.46829117781
2174.5,1042.15057257425
2174.75,1044.93931231766
2175,1049.11083369087
2175.25,1053.69893445389
2175.5,1057.73741236668
2175.75,1060.3884042999
2176,1061.46258744599
2176.25,1060.97502393921
2176.5,1058.94085248342
2176.75,1055.42012884837
2177,1050.95247926488
2177.25,1046.36783829903
2177.5,1042.50018927682
2177.75,1040.16355826757
2178,1039.60943452454
2178.25,1040.46243371558
2178.5,1042.31429957954
2178.75,1044.75739027484
2179,1047.43375160364
2179.25,1050.07089331527
2179.5,1052.40476141529
2179.75,1054.17143836243
2180,1055.22077736631
2180.25,1055.7227807349
2180.5,1055.90335314629
2180.75,1055.9883992786
2181,1056.13812341251
2181.25,1056.16033332435
2181.5,1055.74518845719
2181.75,1054.58276610208
2182,1052.41140322232
2182.25,1049.50640887417
2182.5,1046.47843907688
2182.75,1043.9432613348
2183,1042.50415826926
2183.25,1042.42029111112
2183.5,1043.57171699701
2183.75,1045.81899107488
2184,1049.01997924339
2184.25,1052.80844852928
2184.5,1056.42893093276
2184.75,1059.08705220693
2185,1059.98865852747
2185.25,1058.6397729646
2185.5,1055.440816555
2185.75,1050.95804681349
2186,1045.7577212549
2186.25,1040.37349878348
2186.5,1035.13910425081
2186.75,1030.31250422125
2187,1026.15152157693
2187.25,1022.89877616647
2187.5,1020.62796483122
2187.75,1019.307400239
2188,1018.90379346906
2188.25,1019.37085069358
2188.5,1020.45078426902
2188.75,1021.71389617988
2189,1022.72550691207
2189.25,1023.064149065
2189.5,1022.60748217237
2189.75,1021.52967645676
2190,1020.01759099248
2190.25,1018.26146776924
2190.5,1016.5745855399
2190.75,1015.42531560633
2191,1015.29193127891
2191.25,1016.64485726631
2191.5,1019.49093155002
2191.75,1023.12261568526
2192,1026.77140580149
2192.25,1029.67343252219
2192.5,1031.52193125015
2192.75,1032.84698102454
2193,1034.26806372056
2193.25,1036.40390079548
2193.5,1039.56514018569
2193.75,1043.28319362088
2194,1046.968147979
2194.25,1050.03009031607
2194.5,1051.99282950543
2194.75,1052.81930909332
2195,1052.57845360163
2195.25,1051.33918755224
2195.5,1049.21499367745
2195.75,1046.63644252562
2196,1044.17157766856
2196.25,1042.38899755867
2196.5,1041.80867599005
2196.75,1042.245321662
2197,1042.98191464947
2197.25,1043.28838790452
2197.5,1042.46319250604
2197.75,1040.69043689715
2198,1039.19016027244
2198.25,1039.24120623865
2198.5,1042.11219787298
2198.75,1048.03073698984
2199,1055.30013053285
2199.25,1062.01562504017
2199.5,1066.27311357227
2199.75,1066.93646044148
2200,1065.12399468696
2200.25,1062.36562450131
2200.5,1060.19125807711
2200.75,1059.85586301793
2201,1060.82568798744
2201.25,1061.85146143557
2201.5,1061.68202106749
2201.75,1059.14848234107
2202,1054.31162544519
2202.25,1048.17808569852
2202.5,1041.77878620822
2202.75,1036.14095136083
2203,1032.10267943235
2203.25,1030.22637072535
2203.5,1031.05263774523
2203.75,1035.11835753895
2204,1042.2116509217
2204.25,1050.47077899786
2204.5,1057.81394149652
2204.75,1062.15955035599
2205,1062.22951172937
2205.25,1059.36496076674
2205.5,1055.43985411758
2205.75,1052.3281484314
2206,1051.61869965069
2206.25,1052.92734953433
2206.5,1055.03549132842
2206.75,1056.72153997659
2207,1056.84568524313
2207.25,1055.4322654291
2207.5,1053.37232056866
2207.75,1051.57754797023
2208,1050.94607090076
2208.25,1051.7975457731
2208.5,1053.6694101044
2208.75,1056.04361023894
2209,1058.40247454229
2209.25,1060.3331520077
2209.5,1061.66961477983
2209.75,1062.28133639857
2210,1062.0377904038
2210.25,1060.91850136998
2210.5,1059.4162067733
2210.75,1058.17312879541
2211,1057.8315067768
2211.25,1058.9604131273
2211.5,1061.37622376557
2211.75,1064.45246732652
2212,1067.55699517344
2212.25,1070.06972982727
2212.5,1071.69310594861
2212.75,1072.4791660442
2213,1072.49745397763
2213.25,1071.81721888376
2213.5,1070.43942756164
2213.75,1068.20974806813
2214,1064.95237029637
2214.25,1060.49148413954
2214.5,1054.78804298729
2214.75,1048.53098917441
2215,1042.65053125879
2215.25,1038.07703464989
2215.5,1035.64041984519
2215.75,1034.99722475249
2216,1035.0442458412
2216.25,1034.66549443904
2216.5,1032.79305011097
2216.75,1029.37920857234
2217,1025.35120214355
2217.25,1021.67526962213
2217.5,1019.30784170113
2217.75,1018.77877169732
2218,1020.03605076697
2218.25,1022.98586371361
2218.5,1027.52932925424
2218.75,1033.1804842715
2219,1038.79997962551
2219.25,1043.18551912921
2219.5,1045.1378776544
2219.75,1044.12897576682
2220,1041.13813263983
2220.25,1037.35018470778
2220.5,1033.9499669529
2220.75,1031.8467009838
2221,1030.90417460697
2221.25,1030.73834209668
2221.5,1030.96515772721
2221.75,1031.25524119715
2222,1031.59184338301
2222.25,1032.06916869042
2222.5,1032.78155323914
2222.75,1033.81089340626
2223,1035.13360775929
2223.25,1036.67296700842
2223.5,1038.35183614541
2223.75,1040.09102497405
2224,1041.7835420998
2224.25,1043.30240998876
2224.5,1044.5202124973
2224.75,1045.31184303196
2225,1045.61361345982
2225.25,1045.42825220418
2225.5,1044.76179877602
2225.75,1043.6220401525
2226,1042.16346569246
2226.25,1040.79598116753
2226.5,1039.95510099648
2226.75,1040.07610503605
2227,1041.37722824215
2227.25,1043.45791613401
2227.5,1045.80806454633
2227.75,1047.91756931381
2228,1049.35399549138
2228.25,1050.04134855542
2228.5,1050.00582161937
2228.75,1049.2736163554
2229,1047.91104022983
2229.25,1046.31947415765
2229.5,1045.06706839864
2229.75,1044.72318858099
2230,1045.8045642957
2230.25,1047.92517317418
2230.5,1049.94000121489
2230.75,1050.68042189758
2231,1049.00486483044
2231.25,1044.91267896069
2231.5,1039.9390258554
2231.75,1035.72729554293
2232,1033.91737682272
2232.25,1035.26239667305
2232.5,1038.46083314217
2232.75,1041.92095595899
2233,1044.05110365467
2233.25,1043.87375558448
2233.5,1042.5225859131
2233.75,1041.58457465495
2234,1042.64670182447
2234.25,1046.90062665221
2234.5,1053.22747186882
2234.75,1059.67136368916
2235,1064.27526687279
2235.25,1065.26268448635
2235.5,1062.70281100956
2235.75,1057.74551161102
2236,1051.55430489018
2236.25,1045.27379377991
2236.5,1039.47011683156
2236.75,1034.03789761486
2237,1028.83410402187
2237.25,1023.71863710944
2237.5,1018.9029749724
2237.75,1015.27962370482
2238,1013.81908636099
2238.25,1015.49035083569
2238.5,1020.59777402143
2238.75,1027.74213223872
2239,1035.25508677565
2239.25,1041.46853502422
2239.5,1045.11899107126
2239.75,1046.17699138725
2240,1044.84749200071
2240.25,1041.33544894018
2240.5,1036.00070759056
2240.75,1029.9744472148
2241,1024.62748496401
2241.25,1021.33071301336
2241.5,1021.26014891849
2241.75,1023.96868909788
2242,1028.20346406394
2242.25,1032.70578947063
2242.5,1036.30522634492
2242.75,1038.81141049162
2243,1040.64520460889
2243.25,1042.23675199969
2243.5,1043.99447739468
2243.75,1045.91607543695
2244,1047.63251384459
2244.25,1048.76187783745
2244.5,1048.92519808021
2244.75,1047.87993417182
2245,1045.57461465448
2245.25,1041.97203166415
2245.5,1037.03600064045
2245.75,1031.03342213676
2246,1024.95561260682
2246.25,1019.89983895703
2246.5,1016.96336313189
2246.75,1016.84104912102
2247,1018.7283383399
2247.25,1021.47149779976
2247.5,1023.91679451185
2247.75,1025.16782268052
2248,1025.50387695856
2248.25,1025.53983490721
2248.5,1025.8905996719
2248.75,1027.03198472781
2249,1028.58849380291
2249.25,1029.86267122727
2249.5,1030.15645830718
2249.75,1028.86670886795
2250,1026.20036566911
2250.25,1022.77479421376
2250.5,1019.21055736353
2250.75,1016.09477244743
2251,1013.57899645869
2251.25,1011.50985669842
2251.5,1009.72770672525
2251.75,1008.07274819257
2252,1006.38255145165
2252.25,1004.49246076751
2252.5,1002.23775025427
2252.75,999.478199129815
2253,996.569248325334
2253.25,994.326951402726
2253.5,993.584845390705
2253.75,995.132381008312
2254,998.851501331344
2254.25,1003.77212796983
2254.5,1008.89120730832
2254.75,1013.22679996158
2255,1016.18801495251
2255.25,1017.528726951
2255.5,1017.0146222372
2255.75,1014.44833556874
2256,1010.4652837552
2256.25,1006.52431141252
2256.5,1004.11934071022
2256.75,1004.70014501556
2257,1008.34849981877
2257.25,1013.54783296901
2257.5,1018.6910035203
2257.75,1022.2024500181
2258,1023.57373304739
2258.25,1023.59632444585
2258.5,1023.14040243648
2258.75,1023.06681019952
2259,1023.70435069921
2259.25,1024.5729080132
2259.5,1025.12458986502
2259.75,1024.81405888899
2260,1023.4093532886
2260.25,1021.28942246393
2260.5,1018.90372616058
2260.75,1016.70136304164
2261,1014.96645138126
2261.25,1013.55741059524
2261.5,1012.2649241134
2261.75,1010.87972012684
2262,1009.29952833135
2262.25,1007.75847997208
2262.5,1006.55664603686
2262.75,1005.994092086
2263,1006.25010998442
2263.25,1007.07139931471
2263.5,1008.10784189628
2263.75,1009.00931977341
2264,1009.5336893885
2264.25,1009.85426758626
2264.5,1010.24428225152
2264.75,1010.97696126913
2265,1012.18196534445
2265.25,1013.37367131586
2265.5,1013.9016593782
2265.75,1013.11550785616
2266,1010.63297813048
2266.25,1007.38371874055
2266.5,1004.69789712205
2266.75,1003.90577961038
2267,1006.01427623881
2267.25,1010.17748028767
2267.5,1014.89072493409
2267.75,1018.64855017515
2268,1020.25352083421
2268.25,1020.36200395272
2268.5,1020.32056664867
2268.75,1021.47693986025
2269,1024.94624781123
2269.25,1030.0642689751
2269.5,1035.34507761109
2269.75,1039.29832430825
2270,1040.56917717345
2270.25,1039.19505488649
2270.5,1036.03165439619
2270.75,1031.94513021209
2271,1027.78415340308
2271.25,1024.06395022939
2271.5,1021.0005064714
2271.75,1018.79919046404
2272,1017.65220029724
2272.25,1017.29935242494
2272.5,1016.92513661539
2272.75,1015.68001168407
2273,1012.73132967101
2273.25,1008.15062591634
2273.5,1003.35138701094
2273.75,999.855848056501
2274,999.172946963682
2274.25,1001.72832864049
2274.5,1006.07985085325
2274.75,1010.60042716395
2275,1013.67317146797
2275.25,1014.48482473248
2275.5,1013.5925527074
2275.75,1011.68730575565
2276,1009.45885847217
2276.25,1007.44867683176
2276.5,1005.90688186234
2276.75,1005.04965464119
2277,1005.09191616147
2277.25,1006.00055148383
2277.5,1007.19814374201
2277.75,1008.03501830278
2278,1007.86346572759
2278.25,1006.53741242866
2278.5,1005.07494780378
2278.75,1004.65889016249
2279,1006.47018848264
2279.25,1010.91164329465
2279.5,1016.40879061365
2279.75,1021.07776819158
2280,1023.03618302288
2280.25,1021.35781451158
2280.5,1017.71906968054
2280.75,1014.23501815775
2281,1013.0206887364
2281.25,1015.37295564417
2281.5,1019.67008812804
2281.75,1023.63981717944
2282,1025.00987378978
2282.25,1022.20965981398
2282.5,1016.59304258145
2282.75,1010.27567652762
2283,1005.37321796884
2283.25,1003.64741286766
2283.5,1004.8643112348
2283.75,1008.09107461349
2284,1012.39411902722
2284.25,1016.87706088254
2284.5,1020.86656332858
2284.75,1023.77204333681
2285,1025.00305410018
2285.25,1024.05300931967
2285.5,1021.00699298796
2285.75,1016.20466344971
2286,1009.98666918148
2286.25,1002.74306487571
2286.5,995.348742442619
2286.75,988.953546232515
2287,984.710467905687
2287.25,983.649586153911
2287.5,985.452056488458
2287.75,988.965275125137
2288,993.02429435779
2288.25,996.573625849408
2288.5,999.520880479652
2288.75,1002.27400479177
2289,1005.24521474788
2289.25,1008.76998986881
2289.5,1012.56037397489
2289.75,1016.025323868
2290,1018.57177968054
2290.25,1019.65856004775
2290.5,1019.20071869566
2290.75,1017.35022912436
2291,1014.261083548
2291.25,1010.13727572071
2291.5,1005.75506956586
2291.75,1002.25570752247
2292,1000.78632783931
2292.25,1002.38639565556
2292.5,1006.59983737843
2292.75,1011.87569625273
2293,1016.63792419805
2293.25,1019.41262321035
2293.5,1020.16641416108
2293.75,1019.93150476708
2294,1019.7651234162
2294.25,1020.66596215554
2294.5,1022.52468395648
2294.75,1024.24208037212
2295,1024.68413238267
2295.25,1022.76257352759
2295.5,1018.64780952926
2295.75,1013.89550828883
2296,1010.13248117701
2296.25,1008.95801189472
2296.5,1010.66193006494
2296.75,1013.67997479361
2297,1016.30728323838
2297.25,1016.8576864939
2297.5,1014.78217456567
2297.75,1011.30331773585
2298,1007.7971351664
2298.25,1005.63283706507
2298.5,1005.45621558741
2298.75,1006.55911095123
2299,1008.08469634516
2299.25,1009.17943017642
2299.5,1009.43164982365
2299.75,1009.31285032999
2300,1009.39956886737
2300.25,1010.26702812605
2300.5,1012.2243357291
2300.75,1014.99291178078
2301,1018.21558773225
2301.25,1021.53508638339
2301.5,1024.55555360934
2301.75,1026.78577747366
2302,1027.72006931123
2302.25,1026.85288107219
2302.5,1024.02638306361
2302.75,1020.17909149279
2303,1016.46506100747
2303.25,1014.03834625532
2303.5,1013.753203857
2303.75,1015.15911334075
2304,1017.45068032154
2304.25,1019.82250315651
2304.5,1021.59625236196
2304.75,1022.74831007144
2305,1023.46531291212
2305.25,1023.9339956566
2305.5,1024.31971548533
2305.75,1024.64691364012
2306,1024.88298636582
2306.25,1024.99516864856
2306.5,1024.94937082725
2306.75,1024.69958558468
2307,1024.19350069194
2307.25,1023.3787465667
2307.5,1022.2273118233
2307.75,1021.02339149388
2308,1020.26731126201
2308.25,1020.46372135918
2308.5,1022.07344381506
2308.75,1024.74561470525
2309,1027.41377265194
2309.25,1028.98694146222
2309.5,1028.41274569591
2309.75,1025.695030872
2310,1021.99686813138
2310.25,1018.54058623723
2310.5,1016.53441146861
2310.75,1016.42552274581
2311,1017.52796869698
2311.25,1019.06356287704
2311.5,1020.25804564507
2311.75,1020.69504284245
2312,1020.59770920151
2312.25,1020.25547706281
2312.5,1019.95782714439
2312.75,1020.00442200488
2313,1020.71760491271
2313.25,1022.42278236366
2313.5,1025.44492895026
2313.75,1029.76461358417
2314,1034.39881136759
2314.25,1038.19726261704
2314.5,1040.00971131449
2314.75,1039.12387264082
2315,1036.47379896815
2315.25,1033.38031176307
2315.5,1031.16423249218
2315.75,1030.91451484537
2316,1032.3053413372
2316.25,1034.47737562739
2316.5,1036.57030089436
2316.75,1037.80836330751
2317,1038.18494927827
2317.25,1038.103966357
2317.5,1037.97317212975
2317.75,1038.18015658771
2318,1038.79713744521
2318.25,1039.64640605176
2318.5,1040.54339771335
2318.75,1041.30837165273
2319,1041.91378883305
2319.25,1042.51151720827
2319.5,1043.26373586801
2319.75,1044.33050150243
2320,1045.66537451441
2320.25,1046.84542924889
2320.5,1047.40772562223
2320.75,1046.88950190619
2321,1045.08389994919
2321.25,1042.55073011155
2321.5,1039.99276881914
2321.75,1038.11279249781
2322,1037.44614721454
2322.25,1037.64779872801
2322.5,1038.08436598637
2322.75,1038.12230157286
2323,1037.23392517761
2323.25,1035.79075881099
2323.5,1034.61805976102
2323.75,1034.54456751817
2324,1036.3281672927
2324.25,1039.68898825881
2324.5,1043.55961348561
2324.75,1046.85301084845
2325,1048.50868025806
2325.25,1048.18788096137
2325.5,1046.34162966243
2325.75,1043.46110929236
2326,1040.03616230363
2326.25,1036.42675566107
2326.5,1032.75636656779
2326.75,1029.1233770653
2327,1025.62624602508
2327.25,1022.44274330467
2327.5,1019.97974767709
2327.75,1018.68526470892
2328,1019.00729992962
2328.25,1021.19327718272
2328.5,1024.70197007781
2328.75,1028.79835070876
2329,1032.74739116943
2329.25,1035.92662070362
2329.5,1038.26965990544
2329.75,1039.88156054557
2330,1040.86742281982
2330.25,1041.30806816
2330.5,1041.10365881072
2330.75,1040.07290360759
2331,1038.03411674137
2331.25,1034.84353991971
2331.5,1030.85507223943
2331.75,1026.77286000924
2332,1023.30834987564
2332.25,1021.15364733451
2332.5,1020.52543426486
2332.75,1021.14733438743
2333,1022.72010189743
2333.25,1024.94642565748
2333.5,1027.60504885511
2333.75,1030.57400307233
2334,1033.73800513721
2334.25,1036.97863161475
2334.5,1039.93874944726
2334.75,1041.85898133732
2335,1041.94128443538
2335.25,1039.38916826351
2335.5,1034.00839467927
2335.75,1027.11679464036
2336,1020.26571897301
2336.25,1015.00651850341
2336.5,1012.45593339684
2336.75,1011.98361905294
2337,1012.52028841989
2337.25,1012.99665444389
2337.5,1012.58685440906
2337.75,1011.6367559285
2338,1010.84434114422
2338.25,1010.90766097283
2338.5,1012.3909208564
2338.75,1015.10385828401
2339,1018.59209234492
2339.25,1022.40096121276
2339.5,1026.0793043757
2339.75,1029.19857299335
2340,1031.33920272355
2340.25,1032.0816520611
2340.5,1031.10030532773
2340.75,1028.8852785868
2341,1026.34595352817
2341.25,1024.39515454398
2341.5,1023.87547599354
2341.75,1024.66773342851
2342,1025.95542761031
2342.25,1026.90644236122
2342.5,1026.72741855369
2342.75,1025.41349520549
2343,1023.69504848373
2343.25,1022.33054307088
2343.5,1022.06342633129
2343.75,1023.1135548472
2344,1025.05353752551
2344.25,1027.41588555446
2344.5,1029.73470520141
2344.75,1031.64146595012
2345,1032.91951169383
2345.25,1033.36536380927
2345.5,1032.7767237187
2345.75,1031.15945818537
2346,1028.96477213087
2346.25,1026.70127356838
2346.5,1024.87749336493
2346.75,1023.83151876828
2347,1023.36923828073
2347.25,1023.19295482353
2347.5,1023.00497131787
2347.75,1022.60819066012
2348,1022.22873654229
2348.25,1022.20400960752
2348.5,1022.87141100203
2348.75,1024.48719956578
2349,1026.85687562638
2349.25,1029.63031679482
2349.5,1032.45725332919
2349.75,1034.99623373756
2350,1036.97111728818
2350.25,1038.13508996212
2350.5,1038.24147724031
2350.75,1037.09695655264
2351,1035.1267367117
2351.25,1033.1542803749
2351.5,1032.00965197392
2351.75,1032.4798252572
2352,1034.4292353084
2352.25,1036.83632597628
2352.5,1038.64376365649
2352.75,1038.81513307188
2353,1037.19027320947
2353.25,1034.78519204862
2353.5,1032.69843285734
2353.75,1032.02420418388
2354,1033.22252686421
2354.25,1035.45782922025
2354.5,1037.73635971654
2354.75,1039.06467474296
2355,1038.81909567328
2355.25,1037.46274441717
2355.5,1035.65740243815
2355.75,1034.06485119971
2356,1033.20802474112
2356.25,1032.96015943731
2356.5,1033.00461915471
2356.75,1033.02474456899
2357,1032.732960509
2357.25,1032.0486277603
2357.5,1030.98081072775
2357.75,1029.53893562795
2358,1027.75101918985
2358.25,1025.85109218677
2358.5,1024.20145356445
2358.75,1023.16634078393
2359,1023.09666325413
2359.25,1024.11246552643
2359.5,1026.13848198463
2359.75,1029.09329230593
2360,1032.88096024147
2360.25,1037.02353001267
2360.5,1040.63218973505
2360.75,1042.79783470682
2361,1042.62767803879
2361.25,1040.1109303354
2361.5,1036.55082470607
2361.75,1033.35764514797
2362,1031.93902014815
2362.25,1032.92404413566
2362.5,1035.08466069122
2362.75,1036.92178864042
2363,1036.93641316294
2363.25,1034.30594867579
2363.5,1030.54909925853
2363.75,1027.69077290678
2364,1027.75587761608
2364.25,1032.22202626052
2364.5,1039.61042276028
2364.75,1047.44852573822
2365,1053.26305352033
2365.25,1054.90764878652
2365.5,1052.7434124754
2365.75,1048.29203608462
2366,1043.08152069646
2366.25,1038.57874782533
2366.5,1035.22883433453
2366.75,1032.63161349049
2367,1030.36149348987
2367.25,1028.0102180318
2367.5,1025.81023210261
2367.75,1024.8075523148
2368,1026.10072444665
2368.25,1030.77438412761
2368.5,1038.77081289324
2368.75,1048.05751991025
2369,1056.40581921484
2369.25,1061.59045364106
2369.5,1062.38347835083
2369.75,1059.93234074652
2370,1055.73055018809
2370.25,1051.27161603546
2370.5,1047.81438219676
2370.75,1045.46906601472
2371,1043.99500000325
2371.25,1043.15142929634
2371.5,1042.71480289072
2371.75,1042.62229813083
2372,1042.89875239664
2372.25,1043.56988734563
2372.5,1044.65542478798
2372.75,1046.06805385766
2373,1047.62824253205
2373.25,1049.15344186132
2373.5,1050.46469309061
2373.75,1051.53953167342
2374,1052.56915704871
2374.25,1053.7601414743
2374.5,1055.31806051326
2374.75,1057.1763746017
2375,1058.62842432809
2375.25,1058.8755820826
2375.5,1057.11922025538
2375.75,1052.89719327162
2376,1047.25923604701
2376.25,1041.67953284717
2376.5,1037.63228993301
2376.75,1036.3996486534
2377,1037.49590592189
2377.25,1039.48266818696
2377.5,1040.91230979094
2377.75,1040.4378006638
2378,1038.30770712897
2378.25,1036.04682400468
2378.5,1035.2156677124
2378.75,1037.32965092612
2379,1042.35463751637
2379.25,1048.35415597694
2379.5,1053.27514184591
2379.75,1055.07791074405
2380,1052.97371212032
2380.25,1048.42689507602
2380.5,1043.13764515153
2380.75,1038.80606195286
2381,1036.60239472209
2381.25,1035.91312116882
2381.5,1035.7497445656
2381.75,1035.12376818501
2382,1033.24800669234
2382.25,1030.41834422214
2382.5,1027.29331066875
2382.75,1024.53169635613
2383,1022.73540049127
2383.25,1022.03021454367
2383.5,1022.30463442875
2383.75,1023.44541749399
2384,1025.32213274339
2384.25,1027.60397629053
2384.5,1029.83060577248
2384.75,1031.53950788551
2385,1032.29458794761
2385.25,1032.10618188953
2385.5,1031.35647319794
2385.75,1030.43899094256
2386,1029.74164111291
2386.25,1029.47961381039
2386.5,1029.66716751494
2386.75,1030.30725394441
2387,1031.39959460527
2387.25,1032.73349260303
2387.5,1033.76217800788
2387.75,1033.9087794898
2388,1032.59883152523
2388.25,1029.77975219344
2388.5,1026.56922605678
2388.75,1024.24419697632
2389,1024.08146325087
2389.25,1026.75240637815
2389.5,1030.94167595609
2389.75,1034.92700817588
2390,1036.98613922871
2390.25,1035.89096159186
2390.5,1032.57391155807
2390.75,1028.55774021257
2391,1025.36521272559
2391.25,1024.25295247182
2391.5,1024.64638394449
2391.75,1025.20044929474
2392,1024.56741230614
2392.25,1021.56306445466
2392.5,1016.56494591378
2392.75,1010.81745122795
2393,1005.57423864368
2393.25,1002.02399623379
2393.5,1000.47871501642
2393.75,1000.62121417731
2394,1002.1205621411
2394.25,1004.63364601372
2394.5,1007.64256546157
2394.75,1010.49859487799
2395,1012.54985175396
2395.25,1013.19644213699
2395.5,1012.62027365066
2395.75,1011.60708657122
2396,1010.95826982559
2396.25,1011.43813467205
2396.5,1013.12002247074
2396.75,1015.46578715878
2397,1017.9161759526
2397.25,1019.92726039509
2397.5,1021.30283440027
2397.75,1022.19180269568
2398,1022.75787201448
2398.25,1023.16141174752
2398.5,1023.45155675209
2398.75,1023.54282162838
2399,1023.34165303954
2399.25,1022.75532352272
2399.5,1021.74005377556
2399.75,1020.32758870948
2400,1018.55612973613
2400.25,1016.4655463479
2400.5,1014.3120333294
2400.75,1012.7799481016
2401,1012.60398029865
2401.25,1014.51693454448
2401.5,1018.69019566862
2401.75,1023.95184291123
2402,1028.93325430629
2402.25,1032.26649405997
2402.5,1033.14795926869
2402.75,1032.35928588558
2403,1030.95840028292
2403.25,1030.00322883298
2403.5,1030.30567891443
2403.75,1031.66770123723
2404,1033.63211791353
2404.25,1035.74175089187
2404.5,1037.57081386891
2404.75,1038.87886985707
2405,1039.49326831113
2405.25,1039.24145951969
2405.5,1037.98162667945
2405.75,1035.86050959698
2406,1033.18285302071
2406.25,1030.25501678374
2406.5,1027.3667099576
2406.75,1024.52813468014
2407,1021.51765866565
2407.25,1018.10663801193
2407.5,1014.07812283018
2407.75,1009.54965416645
2408,1005.01430980568
2408.25,1000.98510519894
2408.5,997.969842033774
2408.75,996.263372898174
2409,995.877833104991
2409.25,996.805838325508
2409.5,999.025621827935
2409.75,1001.94219337767
2410,1004.20765930254
2410.25,1004.42296796112
2410.5,1001.22874819219
2410.75,994.773419629764
2411,987.144184472309
2411.25,980.555835352612
2411.5,977.184127457776
2411.75,977.612538941684
2412,980.311842437766
2412.25,983.607070874483
2412.5,985.869111204451
2412.75,986.629395954764
2413,986.641977724661
2413.25,986.719188604447
2413.5,987.641331018885
2413.75,989.574193958803
2414,992.13011794504
2414.25,994.901668779273
2414.5,997.49668690322
2414.75,999.758802074158
2415,1001.71692835189
2415.25,1003.40496909501
2415.5,1004.85165234262
2415.75,1006.01074271575
2416,1006.77953790329
2416.25,1007.05395292372
2416.5,1006.74383253522
2416.75,1005.97392152815
2417,1005.0377678825
2417.25,1004.23346115122
2417.5,1003.85067664508
2417.75,1004.03356334205
2418,1004.80327369192
2418.25,1006.17709186326
2418.5,1008.15916534081
2418.75,1010.5105722512
2419,1012.77821326277
2419.25,1014.50165976117
2419.5,1015.24817003759
2419.75,1015.16431848894
2420,1014.94575342925
2420.25,1015.30975618945
2420.5,1016.94032001059
2420.75,1019.59323437951
2421,1021.99562829949
2421.25,1022.82118480601
2421.5,1020.77360411733
2421.75,1015.74657134887
2422,1009.1930826358
2422.25,1002.67171245711
2422.5,997.734650603967
2422.75,995.473443309929
2423,996.217062691698
2423.25,1000.2228575597
2423.5,1007.73421308707
2423.75,1018.01849211541
2424,1028.74490193067
2424.25,1037.43469457659
2424.5,1041.62601977593
2424.75,1040.2424498191
2425,1034.6012381374
2425.25,1026.25728895894
2425.5,1016.76511948365
2425.75,1007.42137109445
2426,998.818446496516
2426.25,991.429632621425
2426.5,985.728160576143
2426.75,981.832936525617
2427,978.667933490487
2427.25,974.90548799467
2427.5,969.218541832716
2427.75,960.853850375159
2428,950.698953766
2428.25,939.932783501663
2428.5,929.73218712545
2428.75,920.974255883027
2429,913.926371165814
2429.25,908.781859778824
2429.5,905.707468714475
2429.75,904.273549372947
2430,903.462241398846
2430.25,902.230741489444
2430.5,899.718124917643
2430.75,896.117869318516
2431,892.002494858005
2431.25,887.943656682426
2431.5,884.376037159147
2431.75,881.482072595147
2432,879.417052110896
2432.25,878.295515959857
2432.5,877.830598325409
2432.75,877.507112454657
2433,876.809686778428
2433.25,875.75959210045
2433.5,875.583629479396
2433.75,877.672996188408
2434,883.218677385073
2434.25,891.267963317572
2434.5,899.567654162168
2434.75,905.849015890166
2435,908.670691228096
2435.25,908.579416954034
2435.5,906.414430724217
2435.75,902.990874149026
2436,898.688005789222
2436.25,893.506284309534
2436.5,887.433559518796
2436.75,880.496566637028
2437,872.911832496003
2437.25,864.953699945603
2437.5,856.894354702467
2437.75,848.914104087603
2438,841.069383726793
2438.25,833.407880021098
2438.5,826.081117544591
2438.75,819.729209986657
2439,815.135845076253
2439.25,812.98593741562
2439.5,812.565249881658
2439.75,812.121538594444
2440,809.899424053013
2440.25,805.225563736873
2440.5,798.996827420488
2440.75,792.233298378973
2441,785.87284610095
2441.25,780.618930322798
2441.5,777.133507380166
2441.75,775.736483179145
2442,775.119971894869
2442.25,773.49238185337
2442.5,769.505937303809
2442.75,764.755284594593
2443,762.032246261199
2443.25,763.761715726801
2443.5,769.060678596451
2443.75,775.306637976411
2444,780.029981124028
2444.25,782.534007987333
2444.5,783.1839207405
2444.75,782.390780829578
2445,781.063303162173
2445.25,780.507204251217
2445.5,781.98568600886
2445.75,785.220604350169
2446,788.198056109323
2446.25,788.831674696346
2446.5,786.268977606002
2446.75,781.58428025361
2447,776.018899036371
2447.25,770.686438091946
2447.5,766.394417511546
2447.75,763.90534232636
2448,763.523811022734
2448.25,764.053468889032
2448.5,763.990900317694
2448.75,762.318222602193
2449,759.898206977492
2449.25,758.048902250173
2449.5,757.746990186616
2449.75,758.405044348244
2450,758.987932953353
2450.25,758.684455766046
2450.5,757.813533784055
2450.75,757.049731725815
2451,756.895189792606
2451.25,756.880556629047
2451.5,756.196779813823
2451.75,754.184854101144
2452,751.10877411059
2452.25,747.582461969553
2452.5,744.211168190145
2452.75,741.538392536719
2453,740.082563697101
2453.25,740.291816715541
2453.5,742.16710980111
2453.75,745.533985771961
2454,750.019501350979
2454.25,754.136323611168
2454.5,756.007705317458
2454.75,754.294505083872
2455,750.539548286505
2455.25,747.246602213919
2455.5,746.507402480911
2455.75,748.034869881024
2456,750.691390358988
2456.25,753.422752371524
2456.5,755.643968042174
2456.75,756.932036661436
2457,756.959771893784
2457.25,755.93782285647
2457.5,754.264658387431
2457.75,752.334165884976
2458,750.510956846447
2458.25,749.148557983002
2458.5,748.648590575056
2458.75,749.722553377082
2459,753.204762230572
2459.25,759.494094200002
2459.5,766.218433795176
2459.75,769.920071946105
2460,767.880433471261
2460.25,762.339067011941
2460.5,757.56833487788
2460.75,757.295351720836
2461,760.473830331353
2461.25,763.610631051743
2461.5,763.568659905643
2461.75,760.786913278323
2462,757.683016137245
2462.25,756.493780431013
2462.5,757.11987599056
2462.75,757.959089634973
2463,757.482000426946
2463.25,755.412623540161
2463.5,752.343599303834
2463.75,748.896178837377
2464,745.853878418633
2464.25,744.122570805743
2464.5,744.553093067806
2464.75,747.141142550246
2465,751.230862713765
2465.25,756.120472993152
2465.5,760.711555942006
2465.75,763.62207504725
2466,763.614748310384
2466.25,761.572932135458
2466.5,759.94498362969
2466.75,761.060175389322
2467,764.506801357189
2467.25,767.530152620116
2467.5,767.433538733693
2467.75,764.317598675198
2468,760.937164141473
2468.25,760.063507790521
2468.5,761.840863346651
2468.75,763.405931427936
2469,761.804448382645
2469.25,756.820478163795
2469.5,751.718970073395
2469.75,749.945287191328
2470,752.657995056078
2470.25,757.681426949364
2470.5,762.595266133892
2470.75,765.946767130644
2471,767.69372818768
2471.25,767.909533974735
2471.5,766.955574955482
2471.75,765.665380721094
2472,764.913683196405
2472.25,765.231999191945
2472.5,766.467566123253
2472.75,768.385736013879
2473,770.548592528241
2473.25,772.039150094512
2473.5,771.872193839844
2473.75,769.853489784609
2474,768.08086389379
2474.25,769.064921961034
2474.5,774.243739459686
2474.75,781.022795486413
2475,785.85998038833
2475.25,786.188366551598
2475.5,784.046976329612
2475.75,782.833380592704
2476,785.393097927209
2476.25,790.500150670334
2476.5,795.107594827738
2476.75,796.449506917262
2477,795.099552336403
2477.25,793.773612062958
2477.5,795.118562460723
2477.75,799.206595310288
2478,803.431619997508
2478.25,805.087746626007
2478.5,803.276827071337
2478.75,800.092054670104
2479,797.90700345362
2479.25,798.33444640454
2479.5,800.652407331947
2479.75,803.692538799291
2480,806.435983283415
2480.25,808.679737452749
2480.5,810.497743216006
2480.75,811.939802970068
2481,812.786826288579
2481.25,812.652825242273
2481.5,811.173082738053
2481.75,808.732310204652
2482,806.598267517387
2482.25,806.086595674956
2482.5,807.819514174148
2482.75,810.824634859121
2483,813.906250944161
2483.25,816.110989588067
2483.5,817.561241828098
2483.75,818.677804565431
2484,819.85812054931
2484.25,821.266149671098
2484.5,822.931549444486
2484.75,824.877149492972
2485,826.957807635032
2485.25,828.828504588303
2485.5,830.132671510696
2485.75,830.577206046784
2486,830.038138533131
2486.25,828.419366431127
2486.5,825.716507394545
2486.75,822.566125232323
2487,819.878219876743
2487.25,818.524615757303
2487.5,818.498946812102
2487.75,818.929406650994
2488,818.91077084541
2488.25,818.020171572702
2488.5,816.825573574124
2488.75,816.016702686556
2489,816.138573550344
2489.25,817.071045234777
2489.5,818.502986727542
2489.75,820.142098307585
2490,821.897771609473
2490.25,823.801703199998
2490.5,825.882904406547
2490.75,828.012562161965
2491,829.86417301148
2491.25,831.098898243836
2491.5,831.531018036222
2491.75,831.411682489267
2492,831.069446582455
2492.25,830.820384545943
2492.5,830.885301712381
2492.75,831.441089131157
2493,832.646727597549
2493.25,834.181660617235
2493.5,835.201352121748
2493.75,834.835940062313
2494,832.915822807133
2494.25,831.134225600627
2494.5,831.490717121936
2494.75,835.635725837822
2495,842.624020253763
2495.25,850.340974117454
2495.5,856.70831593682
2495.75,860.763569503657
2496,862.750208508013
2496.25,862.971774030478
2496.5,861.742682608259
2496.75,859.414333367185
2497,856.345979382032
2497.25,852.911988196221
2497.5,849.710792456491
2497.75,847.512246776645
2498,847.088560984921
2498.25,848.677026452677
2498.5,851.260917067597
2498.75,853.644031871502
2499,854.783190332062
2499.25,854.78639873709
2499.5,854.285668655246
2499.75,853.910043556765
2500,854.039747172489
2500.25,854.712964430887
2500.5,855.943025602531
2500.75,857.661320855529
2501,859.43253515656
2501.25,860.718811236377
2501.5,861.009239209106
2501.75,860.313250768866
2502,859.110669485464
2502.25,857.898203486425
2502.5,857.102092773676
2502.75,856.935935131886
2503,857.573377633705
2503.25,859.143408590329
2503.5,861.248499959251
2503.75,863.147908783388
2504,864.099243761855
2504.25,863.98464064235
2504.5,863.964874109442
2504.75,865.357233125768
2505,869.21799894486
2505.25,874.511212948353
2505.5,879.195256368964
2505.75,881.239528399398
2506,879.848243687176
2506.25,876.257668390397
2506.5,871.893438357536
2506.75,868.071124337434
2507,865.25816844627
2507.25,863.527871978174
2507.5,862.94968408535
2507.75,863.466876220453
2508,864.810632448328
2508.25,866.691816354494
2508.5,868.829232351154
2508.75,870.991606634054
2509,872.967018475
2509.25,874.55072153093
2509.5,875.844764437007
2509.75,877.367718433681
2510,879.667877412127
2510.25,883.033628204638
2510.5,886.291964735019
2510.75,887.759503115094
2511,885.786816803494
2511.25,880.364828902521
2511.5,873.806916128484
2511.75,868.602557289108
2512,866.860630455309
2512.25,868.04636264096
2512.5,870.503212683419
2512.75,872.586361241725
2513,873.508588884629
2513.25,873.762648478992
2513.5,873.945830164647
2513.75,874.618646063895
2514,876.116349024341
2514.25,878.688945514185
2514.5,882.575911932353
2514.75,887.511382677814
2515,892.506892327209
2515.25,896.518404596582
2515.5,898.668571562008
2515.75,899.16623129448
2516,898.655350118446
2516.25,897.779486706116
2516.5,896.995875792255
2516.75,896.40164267306
2517,896.052782857246
2517.25,895.973321858714
2517.5,895.806276538967
2517.75,894.944334228192
2518,892.775925991175
2518.25,889.04101231467
2518.5,884.600743604698
2518.75,880.539313844856
2519,877.923546548129
2519.25,877.428105124682
2519.5,879.339539099088
2519.75,883.927836796062
2520,891.008499615755
2520.25,898.512670526367
2520.5,903.883198167476
2520.75,904.641497886701
2521,900.597957946236
2521.25,894.15676561738
2521.5,887.861939771549
2521.75,883.880446523949
2522,881.863451836002
2522.25,880.432433900624
2522.5,878.21471053881
2522.75,874.625708037301
2523,870.474929043699
2523.25,866.714503468131
2523.5,864.232304599846
2523.75,863.389826141965
2524,864.290869031668
2524.25,867.034082403715
2524.5,871.464900966191
2524.75,877.004571929664
2525,883.033878329224
2525.25,888.861579539959
2525.5,893.328178268204
2525.75,895.086981625327
2526,892.811545033948
2526.25,886.723252048893
2526.5,879.635512239808
2526.75,874.608880774003
2527,874.350736588857
2527.25,878.264443693053
2527.5,883.949438136828
2527.75,888.993264937046
2528,891.905803224879
2528.25,893.076056826325
2528.5,893.121711538151
2528.75,892.659481388568
2529,892.295340111362
2529.25,892.628587634523
2529.5,894.258158882186
2529.75,897.503635381617
2530,901.875526800968
2530.25,906.738712818306
2530.5,911.45709952648
2530.75,915.375308897584
2531,917.820262222412
2531.25,918.118224623341
2531.5,915.85481707547
2531.75,912.031795482701
2532,908.131849141716
2532.25,905.632408607536
2532.5,905.120962151886
2532.75,905.332968381558
2533,904.772765577218
2533.25,902.070704642541
2533.5,897.734934493029
2533.75,893.715196302776
2534,891.998087118008
2534.25,893.999801532247
2534.5,898.750642873436
2534.75,904.657190695335
2535,910.144242109476
2535.25,914.277983610334
2535.5,916.921031747585
2535.75,917.985687072333
2536,917.418476989561
2536.25,915.431229223958
2536.5,912.359687322293
2536.75,908.540414207258
2537,904.422535106528
2537.25,900.776896967056
2537.5,898.431455358766
2537.75,898.173747437315
2538,899.754942924996
2538.25,901.826826348883
2538.5,902.988146500818
2538.75,902.224495130733
2539,900.709117316586
2539.25,900.383451963947
2539.5,903.173596518468
2539.75,909.437140526943
2540,916.675061429905
2540.25,922.085137283996
2540.5,923.114675292508
2540.75,920.123258565783
2541,915.354832794033
2541.25,911.084996602786
2541.5,909.063800734853
2541.75,908.766081699105
2542,909.051114958298
2542.25,908.789693631052
2542.5,907.562668560805
2542.75,906.062176616445
2543,905.077210368593
2543.25,905.303361304835
2543.5,906.450712284935
2543.75,907.638123024915
2544,907.976573980697
2544.25,907.043341457731
2544.5,905.912012069282
2544.75,905.955703382132
2545,908.501218430104
2545.25,913.451767889891
2545.5,919.053822761354
2545.75,923.460573544409
2546,925.09302494868
2546.25,924.26497569228
2546.5,922.105869127373
2546.75,919.747889182471
2547,917.938028326841
2547.25,916.337428046831
2547.5,914.417268696263
2547.75,911.662918028918
2548,908.004763333479
2548.25,903.896262459583
2548.5,899.820798760783
2548.75,896.479407638536
2549,896.254998115343
2549.25,902.313964734452
2549.5,917.803197443383
2549.75,940.117548767328
2550,953.462241079173
2550.25,940.201331156716
2550.5,884.262800829289
2550.75,800.348630828791
2551,731.298042001682
2551.25,720.985501670684
2551.5,799.679774107945
2551.75,912.964456675469
2552,973.894242661612
2552.25,918.449716480305
2552.5,918.057671333021
2552.75,917.665626185737
2553,917.273581038453
2553.25,916.881535891168
2553.5,916.489490743884
2553.75,916.0974455966
2554,915.705400449316
2554.25,915.313355302032
2554.5,914.921310154748
2554.75,914.529265007464
2555,914.137219860179
2555.25,913.745174712895
2555.5,913.353129565611
2555.75,912.961084418327
2556,912.569039271043
2556.25,912.176994123759
2556.5,911.784948976475
2556.75,911.39290382919
2557,911.000858681906
2557.25,910.608813534622
2557.5,910.216768387338
2557.75,909.824723240054
2558,909.43267809277
2558.25,909.040632945485
2558.5,908.648587798201
2558.75,908.256542650917
2559,911.219912934335
2559.25,914.163952414147
2559.5,917.995455860952
2559.75,923.2305483168
2560,928.818016008112
2560.25,933.313642010252
2560.5,935.289101054383
2560.75,934.313978153726
2561,931.530710812657
2561.25,928.220131808076
2561.5,925.613100854283
2561.75,924.153298409425
2562,923.657608959906
2562.25,923.925543448284
2562.5,924.751305888072
2562.75,925.89850919444
2563,927.119828095279
2563.25,928.168665101892
2563.5,928.994996636604
2563.75,930.008500256386
2564,931.684464516736
2564.25,934.475280898012
2564.5,938.228476612174
2564.75,942.139769125775
2565,945.37257328655
2565.25,947.154989986436
2565.5,947.298444754056
2565.75,945.923548276242
2566,943.153742250497
2566.25,939.25937890749
2566.5,935.182496596503
2566.75,932.056986887359
2567,931.014250001052
2567.25,932.52392748861
2567.5,935.509316629266
2567.75,938.673208299908
2568,940.743482394632
2568.25,941.151153051413
2568.5,940.108489750455
2568.75,937.868529592911
2569,934.763828056852
2569.25,931.948710078098
2569.5,931.062688600798
2569.75,933.751562607426
2570,940.93342025113
2570.25,950.161720773586
2570.5,958.01817294405
2570.75,961.094809755074
2571,957.804248633954
2571.25,950.445198207455
2571.5,941.81596077123
2571.75,934.681547043146
2572,930.269098588794
2572.25,927.654370020106
2572.5,925.752769179006
2572.75,923.538916391898
2573,920.794430266477
2573.25,917.884083020653
2573.5,915.185603990371
2573.75,913.070807524196
2574,911.881771297314
2574.25,911.951248545422
2574.5,913.608392629424
2574.75,916.802427159261
2575,920.772692879191
2575.25,924.68074565294
2575.5,927.718446428699
2575.75,929.509920210812
2576,930.001534667226
2576.25,929.147361415361
2576.5,926.934136112448
2576.75,923.520875446933
2577,919.123189684501
2577.25,913.957574455784
2577.5,908.440048196107
2577.75,903.44148419699
2578,899.89583142965
2578.25,898.679089561054
2578.5,899.517222182721
2578.75,901.079383510542
2579,901.995465578963
2579.25,901.32191954848
2579.5,900.180635853699
2579.75,900.31780352519
2580,903.452837674967
2580.25,909.633466428153
2580.5,916.282831805904
2580.75,920.594347128106
2581,920.114559758265
2581.25,915.78474684487
2581.5,910.440270436203
2581.75,906.937038706287
2582,907.258091718983
2582.25,910.2581814509
2582.5,914.091514285795
2582.75,916.940494989812
2583,918.029215894978
2583.25,917.904233782821
2583.5,917.197463724183
2583.75,916.483427783935
2584,915.828360593018
2584.25,915.033024462588
2584.5,913.895929254228
2584.75,912.369882846161
2585,910.89842397264
2585.25,910.022430397495
2585.5,910.259230337229
2585.75,911.31451457837
2586,911.896057543015
2586.25,910.65032903902
2586.5,906.510963541539
2586.75,900.668291427897
2587,895.379182012797
2587.25,892.904742108959
2587.5,894.406821725756
2587.75,898.147991350709
2588,901.918415082226
2588.25,903.605728518839
2588.5,902.750368841588
2588.75,900.272453086911
2589,897.13438620673
2589.25,894.519287778616
2589.5,894.614201557692
2589.75,899.891457392584
2590,912.678770832736
2590.25,928.508643627223
2590.5,933.340883945848
2590.75,912.414638338114
2591,852.372232024836
2591.25,752.428010845688
2591.5,752.562470249947
2591.75,752.696929654207
2592,752.831389058466
2592.25,752.965848462725
2592.5,753.100307866985
2592.75,753.234767271244
2593,753.369226675503
2593.25,753.503686079762
2593.5,753.638145484022
2593.75,753.772604888281
2594,753.90706429254
2594.25,754.041523696799
2594.5,754.175983101059
2594.75,754.310442505318
2595,754.444901909577
2595.25,754.579361313836
2595.5,754.713820718096
2595.75,754.848280122355
2596,754.982739526614
2596.25,755.117198930874
2596.5,755.251658335133
2596.75,755.386117739392
2597,755.520577143651
2597.25,755.655036547911
2597.5,755.78949595217
2597.75,755.923955356429
2598,756.058414760688
2598.25,756.192874164948
2598.5,756.327333569207
2598.75,756.461792973466
2599,756.596252377725
2599.25,756.730711781985
2599.5,756.865171186244
2599.75,756.999630590503
2600,757.134089994762
2600.25,757.268549399022
2600.5,757.403008803281
2600.75,757.53746820754
2601,757.6719276118
2601.25,757.806387016059
2601.5,757.940846420318
2601.75,758.075305824577
2602,758.209765228837
2602.25,758.344224633096
2602.5,758.478684037355
2602.75,758.613143441614
2603,758.747602845874
2603.25,758.882062250133
2603.5,759.016521654392
2603.75,759.150981058652
2604,759.285440462911
2604.25,759.41989986717
2604.5,759.554359271429
2604.75,759.688818675688
2605,759.823278079948
2605.25,759.957737484207
2605.5,760.092196888466
2605.75,760.226656292726
2606,760.361115696985
2606.25,760.495575101244
2606.5,760.630034505503
2606.75,760.764493909763
2607,760.898953314022
2607.25,761.033412718281
2607.5,761.16787212254
2607.75,761.3023315268
2608,761.436790931059
2608.25,761.571250335318
2608.5,761.705709739578
2608.75,761.840169143837
2609,761.974628548096
2609.25,762.109087952355
2609.5,762.243547356615
2609.75,762.378006760874
2610,762.512466165133
2610.25,762.646925569392
2610.5,762.781384973652
2610.75,762.915844377911
2611,763.05030378217
2611.25,763.184763186429
2611.5,763.319222590689
2611.75,763.453681994948
2612,763.588141399207
2612.25,763.722600803467
2612.5,763.857060207726
2612.75,763.991519611985
2613,764.125979016244
2613.25,764.260438420504
2613.5,764.394897824763
2613.75,764.529357229022
2614,764.663816633281
2614.25,764.798276037541
2614.5,764.9327354418
2614.75,765.067194846059
2615,765.201654250318
2615.25,765.336113654578
2615.5,765.470573058837
2615.75,765.605032463096
2616,765.739491867355
2616.25,765.873951271615
2616.5,766.008410675874
2616.75,766.142870080133
2617,766.277329484393
2617.25,766.411788888652
2617.5,766.546248292911
2617.75,766.68070769717
2618,766.81516710143
2618.25,766.949626505689
2618.5,767.084085909948
2618.75,767.218545314207
2619,767.353004718467
2619.25,767.487464122726
2619.5,767.621923526985
2619.75,767.756382931245
2620,767.890842335504
2620.25,768.025301739763
2620.5,768.159761144022
2620.75,768.294220548282
2621,768.428679952541
2621.25,768.5631393568
2621.5,768.697598761059
2621.75,768.832058165319
2622,768.966517569578
2622.25,769.100976973837
2622.5,769.235436378096
2622.75,769.369895782356
2623,769.504355186615
2623.25,769.638814590874
2623.5,769.773273995134
2623.75,769.907733399393
2624,770.042192803652
2624.25,770.176652207911
2624.5,770.311111612171
2624.75,770.44557101643
2625,770.580030420689
2625.25,770.714489824948
2625.5,770.848949229208
2625.75,770.983408633467
2626,771.117868037726
2626.25,771.252327441985
2626.5,771.386786846245
2626.75,771.521246250504
2627,771.655705654763
2627.25,771.790165059022
2627.5,771.924624463282
2627.75,772.059083867541
2628,772.1935432718
2628.25,772.32800267606
2628.5,772.462462080319
2628.75,772.596921484578
2629,772.731380888837
2629.25,772.865840293097
2629.5,773.000299697356
2629.75,773.134759101615
2630,773.269218505874
2630.25,773.403677910134
2630.5,773.538137314393
2630.75,773.672596718652
2631,773.807056122911
2631.25,773.941515527171
2631.5,774.07597493143
2631.75,774.210434335689
2632,774.344893739949
2632.25,774.479353144208
2632.5,774.613812548467
2632.75,774.748271952726
2633,774.882731356986
2633.25,775.017190761245
2633.5,775.151650165504
2633.75,775.286109569763
2634,775.420568974023
2634.25,794.512965174726
2634.5,807.101486636855
2634.75,809.083751935028
2635,805.299910920134
2635.25,802.049346867334
2635.5,804.474682183111
2635.75,811.771261503431
2636,821.228458498189
2636.25,830.190640065405
2636.5,836.561624196451
2636.75,838.567588522883
2637,834.519044357589
2637.25,825.630325117858
2637.5,816.763289396964
2637.75,813.010937267621
2638,817.328386286322
2638.25,825.625161231483
2638.5,832.361461729266
2638.75,832.801671967677
2639,827.913341939268
2639.25,821.129119057873
2639.5,815.800805641401
2639.75,812.996425097016
2640,811.383964894174
2640.25,809.520583041633
2640.5,806.548843301329
2640.75,802.884842710828
2641,799.112056272684
2641.25,795.782489978634
2641.5,793.310035929963
2641.75,792.070706587429
2642,792.308141331175
2642.25,793.198700195101
2642.5,793.403209905701
2642.75,791.66072086969
2643,787.905945794194
2643.25,782.981485901468
2643.5,777.744842049127
2643.75,772.804228809334
2644,768.471105084446
2644.25,765.036765174152
2644.5,762.594825319785
2644.75,760.915632197156
2645,759.736934403829
2645.25,758.465284674356
2645.5,755.862913770667
2645.75,750.625723520315
2646,742.930204249054
2646.25,736.170134398824
2646.5,734.140665535847
2646.75,733.794081084375
2647,733.447496632902
2647.25,733.10091218143
2647.5,732.754327729958
2647.75,732.407743278486
2648,732.061158827014
2648.25,731.714574375542
2648.5,731.36798992407
2648.75,731.021405472598
2649,730.674821021126
2649.25,730.328236569654
2649.5,729.981652118182
2649.75,729.63506766671
2650,729.288483215238
2650.25,728.941898763765
2650.5,728.595314312293
2650.75,728.248729860821
2651,727.902145409349
2651.25,727.555560957877
2651.5,727.208976506405
2651.75,726.862392054933
2652,726.515807603461
2652.25,726.169223151989
2652.5,725.822638700517
2652.75,725.476054249045
2653,725.129469797572
2653.25,724.7828853461
2653.5,724.436300894628
2653.75,724.089716443156
2654,723.743131991684
2654.25,723.396547540212
2654.5,723.04996308874
2654.75,722.703378637268
2655,722.356794185796
2655.25,722.010209734324
2655.5,721.663625282852
2655.75,721.31704083138
2656,720.970456379907
2656.25,720.623871928435
2656.5,720.277287476963
2656.75,719.930703025491
2657,719.584118574019
2657.25,719.237534122547
2657.5,718.890949671075
2657.75,718.544365219603
2658,718.197780768131
2658.25,717.851196316659
2658.5,717.504611865187
2658.75,717.158027413715
2659,716.811442962243
2659.25,716.46485851077
2659.5,716.118274059298
2659.75,715.771689607826
2660,715.425105156354
2660.25,715.078520704882
2660.5,714.73193625341
2660.75,714.385351801938
2661,714.038767350466
2661.25,713.692182898994
2661.5,713.345598447522
2661.75,712.99901399605
2662,712.652429544577
2662.25,712.305845093105
2662.5,711.959260641633
2662.75,711.612676190161
2663,711.266091738689
2663.25,710.919507287217
2663.5,710.572922835745
2663.75,710.226338384273
2664,709.879753932801
2664.25,709.533169481329
2664.5,709.186585029857
2664.75,708.840000578385
2665,708.493416126913
2665.25,708.14683167544
2665.5,707.800247223968
2665.75,707.453662772496
2666,707.107078321024
2666.25,706.760493869552
2666.5,706.41390941808
2666.75,706.067324966608
2667,705.720740515136
2667.25,705.374156063664
2667.5,705.027571612192
2667.75,704.68098716072
2668,704.334402709247
2668.25,703.987818257775
2668.5,703.641233806303
2668.75,703.294649354831
2669,702.948064903359
2669.25,702.601480451887
2669.5,702.254896000415
2669.75,701.908311548943
2670,701.561727097471
2670.25,701.215142645999
2670.5,700.868558194527
2670.75,700.521973743055
2671,700.175389291582
2671.25,699.82880484011
2671.5,699.482220388638
2671.75,699.135635937166
2672,698.789051485694
2672.25,698.442467034222
2672.5,698.09588258275
2672.75,697.749298131278
2673,697.402713679806
2673.25,697.056129228334
2673.5,696.709544776862
2673.75,696.36296032539
2674,696.016375873917
2674.25,695.669791422445
2674.5,695.323206970973
2674.75,694.976622519501
2675,694.630038068029
2675.25,694.283453616557
2675.5,693.936869165085
2675.75,693.590284713613
2676,693.243700262141
2676.25,692.897115810669
2676.5,692.550531359197
2676.75,692.203946907724
2677,691.857362456252
2677.25,691.51077800478
2677.5,691.164193553308
2677.75,690.817609101836
2678,690.471024650364
2678.25,690.124440198892
2678.5,689.77785574742
2678.75,689.431271295948
2679,689.084686844476
2679.25,688.738102393004
2679.5,688.391517941532
2679.75,688.04493349006
2680,687.698349038587
2680.25,687.351764587115
2680.5,687.005180135643
2680.75,686.658595684171
2681,686.312011232699
2681.25,685.965426781227
2681.5,685.618842329755
2681.75,685.272257878283
2682,684.925673426811
2682.25,684.579088975339
2682.5,684.232504523867
2682.75,683.885920072394
2683,683.539335620922
2683.25,683.19275116945
2683.5,682.846166717978
2683.75,682.499582266506
2684,682.152997815034
2684.25,681.806413363562
2684.5,681.45982891209
2684.75,681.113244460618
2685,680.766660009146
2685.25,680.420075557674
2685.5,680.073491106202
2685.75,679.72690665473
2686,679.380322203257
2686.25,679.033737751785
2686.5,678.687153300313
2686.75,678.340568848841
2687,677.993984397369
2687.25,677.647399945897
2687.5,677.300815494425
2687.75,676.954231042953
2688,676.607646591481
2688.25,676.261062140009
2688.5,675.914477688537
2688.75,675.567893237064
2689,672.849129115704
2689.25,668.849121479586
2689.5,664.431116925493
2689.75,660.485549840781
2690,657.563379922614
2690.25,655.993044438262
2690.5,655.949273389636
2690.75,657.022998287945
2691,658.66434187633
2691.25,660.381072600305
2691.5,661.75889981136
2691.75,662.410289430407
2692,662.1307184629
2692.25,660.810342396565
2692.5,659.720367119884
2692.75,664.174888390114
2693,680.042215776911
2693.25,708.121032104942
2693.5,743.59664907806
2693.75,781.278311363609
2694,815.299794785565
2694.25,839.472076832159
2694.5,848.553056832743
2694.75,845.054672271082
2695,835.276917270856
2695.25,825.473805074932
2695.5,819.065253936979
2695.75,815.761684505817
2696,815.022646591036
2696.25,815.997656319126
2696.5,816.862684226251
2696.75,815.603106659486
2697,810.649021009975
2697.25,803.501926208346
2697.5,796.959955423845
2697.75,793.665181412799
2698,793.445078895335
2698.25,793.728976703345
2698.5,791.907781159694
2698.75,787.037617774077
2699,780.446639141377
2699.25,773.624366401156
2699.5,767.694347475727
2699.75,762.984861502494
2700,759.719495160599
2700.25,757.80272531795
2700.5,756.216761868883
2700.75,753.778296557486
2701,749.736516050699
2701.25,744.746223940506
2701.5,739.747341680011
2701.75,736.090209671609
2702,736.523657667787
2702.25,744.092922191679
2702.5,759.936030248524
2702.75,779.417708898226
2703,796.816238639539
2703.25,807.798761902193
2703.5,811.906230225448
2703.75,809.349703698399
2704,801.044551328871
2704.25,791.262236802165
2704.5,785.272774865189
2704.75,787.741329908259
2705,797.212891468055
2705.25,808.678310589248
2705.5,817.277255961352
2705.75,821.45999106628
2706,822.46392818701
2706.25,821.608990175678
2706.5,819.907295200957
2706.75,817.868445020517
2707,815.955695744269
2707.25,814.347260173868
2707.5,812.166713170129
2707.75,808.293771990072
2708,801.950586447401
2708.25,795.222639287143
2708.5,791.621520373539
2708.75,794.345478735996
2709,800.216631465358
2709.25,800.22438181228
2709.5,785.481275827817
2709.75,763.297149837226
2710,763.986607417348
2710.25,819.428720157109
2710.5,918.629273044717
2710.75,953.382849491205
2711,802.086261521573
2711.25,419.829207965854
2711.5,423.163518110342
2711.75,426.497828254829
2712,429.832138399317
2712.25,433.166448543805
2712.5,436.500758688292
2712.75,439.83506883278
2713,443.169378977268
2713.25,446.503689121756
2713.5,449.837999266243
2713.75,453.172309410731
2714,456.506619555219
2714.25,459.840929699707
2714.5,463.175239844194
2714.75,466.509549988682
2715,469.84386013317
2715.25,473.178170277657
2715.5,476.512480422145
2715.75,479.846790566633
2716,483.181100711121
2716.25,486.515410855608
2716.5,489.849721000096
2716.75,493.184031144584
2717,496.518341289071
2717.25,499.852651433559
2717.5,503.186961578047
2717.75,506.521271722535
2718,509.855581867022
2718.25,513.18989201151
2718.5,516.524202155998
2718.75,519.858512300486
2719,523.192822444973
2719.25,526.527132589461
2719.5,529.861442733949
2719.75,533.195752878436
2720,536.530063022924
2720.25,539.864373167412
2720.5,543.1986833119
2720.75,546.532993456387
2721,549.867303600875
2721.25,553.201613745363
2721.5,556.535923889851
2721.75,559.870234034338
2722,563.204544178826
2722.25,566.538854323314
2722.5,569.873164467801
2722.75,573.207474612289
2723,576.541784756777
2723.25,579.876094901265
2723.5,583.210405045752
2723.75,586.54471519024
2724,589.879025334728
2724.25,593.213335479216
2724.5,596.547645623703
2724.75,599.881955768191
2725,603.216265912679
2725.25,606.550576057166
2725.5,609.884886201654
2725.75,613.219196346142
2726,616.55350649063
2726.25,619.887816635117
2726.5,623.222126779605
2726.75,626.556436924093
2727,629.89074706858
2727.25,633.225057213068
2727.5,636.559367357556
2727.75,639.893677502044
2728,643.227987646531
2728.25,646.562297791019
2728.5,649.896607935507
2728.75,645.016994288195
2729,642.398823741297
2729.25,641.400822102135
2729.5,640.595697423089
2729.75,638.422020270713
2730,633.151148817059
2730.25,623.752513596233
2730.5,613.64250413533
2730.75,607.924308794022
2731,609.489151463531
2731.25,617.705048400106
2731.5,631.758368666544
2731.75,651.576828971151
2732,677.261133055565
2732.25,705.808922024603
2732.5,730.310377977253
2732.75,744.321956479327
2733,747.669360706246
2733.25,743.424751930292
2733.5,734.664430076923
2733.75,724.297215440256
2734,715.158526304629
2734.25,709.37749774977
2734.5,704.487645248801
2734.75,696.183173914621
2735,681.695817709457
2735.25,664.728664179442
2735.5,650.669808960887
2735.75,642.385245046857
2736,637.115984055571
2736.25,631.525267913626
2736.5,625.146729132315
2736.75,619.793284110276
2737,616.916830280904
2737.25,616.501838246734
2737.5,618.201472793215
2737.75,621.431775524833
2738,625.41031794284
2738.25,629.23860597139
2738.5,631.691737478646
2738.75,631.593946268233
2739,629.404351226704
2739.25,626.83920930394
2739.5,625.11301910858
2739.75,623.719362568527
2740,621.82324136967
2740.25,618.890616176661
2740.5,614.641907763516
2740.75,609.25510380154
2741,604.356542191143
2741.25,601.739939587821
2741.5,601.436743135801
2741.75,602.168310592039
2742,603.121569776484
2742.25,604.590168892872
2742.5,606.906132056278
2742.75,609.560874626442
2743,611.674039770392
2743.25,612.952674002886
2743.5,613.926648454626
2743.75,614.970376408939
2744,615.384680057859
2744.25,614.176244358949
2744.5,611.345075726837
2744.75,607.957705301003
2745,604.896240154692
2745.25,602.130799860442
2745.5,599.457848022798
2745.75,597.412741070851
2746,597.127524705555
2746.25,599.339596767955
2746.5,603.805792103919
2746.75,609.984985427997
2747,616.147824311696
2747.25,620.057311930164
2747.5,621.431843004599
2747.75,622.750570117846
2748,626.001926267237
2748.25,629.313844175654
2748.5,629.557033712172
2748.75,626.252070792818
2749,622.353367115275
2749.25,620.494002300172
2749.5,620.156511790404
2749.75,619.734347823521
2750,618.879238851586
2750.25,618.908779041436
2750.5,620.754867142924
2750.75,622.751640436587
2751,622.491580851014
2751.25,620.695074160325
2751.5,621.767527196396
2751.75,628.630746330569
2752,636.215298478414
2752.25,637.413473263827
2752.5,634.028878050091
2752.75,637.825262116766
2753,658.033358381537
2753.25,687.616187685426
2753.5,714.252606996737
2753.75,731.202985098295
2754,740.019835868076
2754.25,742.927771509092
2754.5,742.146700266969
2754.75,739.892129578432
2755,738.258511135937
2755.25,737.188739783641
2755.5,734.77453287214
2755.75,729.221604102563
2756,721.328031706262
2756.25,713.878897877821
2756.5,709.454345011634
2756.75,707.696083475881
2757,706.365346978205
2757.25,703.310851631401
2757.5,697.195976809497
2757.75,687.02754055657
2758,672.816057225228
2758.25,658.608528841892
2758.5,649.438635886832
2758.75,646.811572297188
2759,645.376929184503
2759.25,639.532909909369
2759.5,630.411066900898
2759.75,623.733524489729
2760,623.318157968848
2760.25,626.514334981865
2760.5,629.479516775143
2760.75,630.337781364684
2761,628.834187989095
2761.25,625.225552067398
2761.5,621.308554127185
2761.75,619.123298955538
2762,619.288606445422
2762.25,621.163090576639
2762.5,623.936145367696
2762.75,626.38495339582
2763,627.260268359005
2763.25,626.245593045991
2763.5,623.776965254834
2763.75,620.585193588377
2764,618.277160621882
2764.25,618.469088287823
2764.5,620.06914008792
2764.75,619.779588691354
2765,615.57544167675
2765.25,609.331836194143
2765.5,603.579855757304
2765.75,600.157330437715
2766,600.398379833968
2766.25,604.349939713169
2766.5,609.198685996318
2766.75,612.215647267148
2767,614.187485577998
2767.25,617.448331460786
2767.5,622.57204801401
2767.75,627.569885559214
2768,630.428291474834
2768.25,630.102249505925
2768.5,625.918135781583
2768.75,618.938951829215
2769,612.589117159133
2769.25,609.904143320013
2769.5,610.617882601007
2769.75,613.257028978418
2770,616.450854141059
2770.25,618.956411793821
2770.5,619.776810114388
2770.75,618.943270389676
2771,616.783024569542
2771.25,614.057255710584
2771.5,611.962468656454
2771.75,611.350898545885
2772,611.733847243367
2772.25,612.31115088604
2772.5,612.247354379025
2772.75,610.679281741526
2773,607.381371815507
2773.25,603.861998049954
2773.5,601.746980827771
2773.75,600.780310138083
2774,599.567267746202
2774.25,597.760735092453
2774.5,596.943619032899
2774.75,598.306218546067
2775,599.556564455687
2775.25,597.289461769032
2775.5,591.693111926848
2775.75,586.673161513876
2776,585.031957441925
2776.25,585.683931589867
2776.5,586.900058891543
2776.75,587.797427996355
2777,587.949855812167
2777.25,587.437003340596
2777.5,586.991855913509
2777.75,587.262303060081
2778,588.448685109831
2778.25,590.554156049273
2778.5,592.545892501488
2778.75,592.802956013628
2779,591.047739259298
2779.25,589.041842233227
2779.5,588.461253710339
2779.75,589.8717806823
2780,593.445907544717
2780.25,598.075247374064
2780.5,601.712329263774
2780.75,603.192610716736
2781,603.102210118364
2781.25,602.220477090342
2781.5,601.282842587283
2781.75,600.976741616109
2782,601.010442335238
2782.25,599.933714995469
2782.5,597.091617352162
2782.75,594.966412438883
2783,596.438223720292
2783.25,600.212729255749
2783.5,602.060353288265
2783.75,600.132191057517
2784,597.302049880708
2784.25,596.5268587485
2784.5,597.827160000243
2784.75,600.07609488974
2785,602.583467409622
2785.25,605.15239136039
2785.5,607.656184011599
2785.75,610.115435552248
2786,612.559731499639
2786.25,614.739449090082
2786.5,616.212247680455
2786.75,616.692399154317
2787,616.256348826277
2787.25,615.071919616352
2787.5,613.692831297662
2787.75,612.875281542456
2788,612.739940535685
2788.25,612.228855733967
2788.5,610.403351591693
2788.75,608.056905524272
2789,606.701522891934
2789.25,606.740223345847
2789.5,607.005002177014
2789.75,606.656542471129
2790,606.998115793014
2790.25,609.869017401469
2790.5,614.837501932269
2790.75,619.27220815532
2791,621.156244409674
2791.25,620.691702980475
2791.5,618.559090190906
2791.75,616.0680835847
2792,615.006041475013
2792.25,616.295148924544
2792.5,618.429628069441
2792.75,619.613857265242
2793,619.537908024009
2793.25,618.855021137846
2793.5,617.949289204002
2793.75,616.546836029638
2794,614.374965092656
2794.25,612.085795867843
2794.5,610.856070379284
2794.75,611.519017638341
2795,614.226045445756
2795.25,618.949006377622
2795.5,624.925387308593
2795.75,631.063206310543
2796,636.017983283933
2796.25,638.067655357557
2796.5,635.940854429483
2796.75,631.616933727508
2797,628.399856124756
2797.25,627.793571511705
2797.5,628.044671012283
2797.75,627.334585368497
2798,626.16925819935
2798.25,626.205257280425
2798.5,627.726053839065
2798.75,628.322933162301
2799,625.677173007855
2799.25,621.016468160348
2799.5,617.412836757548
2799.75,616.856812394825
2800,619.104495580067
2800.25,623.516345784718
2800.5,628.412391894121
2800.75,631.607840450801
2801,632.272377213899
2801.25,631.999594985164
2801.5,632.481554049603
2801.75,634.115527202876
2802,636.643096796847
2802.25,639.527067739699
2802.5,641.667049427983
2802.75,642.04493187494
2803,641.292006828823
2803.25,641.051452186961
2803.5,642.240244038936
2803.75,643.681510306496
2804,643.891983959579
2804.25,642.49201316569
2804.5,640.062333808167
2804.75,637.30731305653
2805,635.323454886533
2805.25,635.27983402363
2805.5,637.207053083428
2805.75,639.722665258044
2806,641.596086765407
2806.25,642.987718504868
2806.5,644.548209698856
2806.75,646.27031131796
2807,647.08163380756
2807.25,646.022969153263
2807.5,644.017538213759
2807.75,642.97876057084
2808,644.007483503958
2808.25,646.113950460297
2808.5,648.018204034164
2808.75,649.044243070287
2809,649.004048675716
2809.25,647.855330959419
2809.5,646.093050833475
2809.75,644.342974989137
2810,642.990465517252
2810.25,642.106673984742
2810.5,641.757665964673
2810.75,642.122000513048
2811,643.424976260771
2811.25,645.743222232388
2811.5,648.864100967402
2811.75,652.483750509953
2812,655.651034159249
2812.25,657.009755799102
2812.5,655.891216602074
2812.75,653.826559090708
2813,652.739363630665
2813.25,653.297967520307
2813.5,654.740134837272
2813.75,656.214137406192
2814,656.791971241874
2814.25,655.519470596534
2814.5,652.217053521318
2814.75,648.34872554261
2815,645.515220676584
2815.25,644.197584874478
2815.5,644.001363439945
2815.75,644.70410272974
2816,646.850433205043
2816.25,651.12101131365
2816.5,656.484922939834
2816.75,659.857109341085
2817,658.716956155054
2817.25,655.091420896836
2817.5,652.85024846457
2817.75,654.099408568342
2818,656.933507371693
2818.25,659.015459994239
2818.5,659.954390932552
2818.75,660.928916303614
2819,662.732703146839
2819.25,664.164327895232
2819.5,663.461951176445
2819.75,660.203853705871
2820,656.201139810938
2820.25,653.389579557203
2820.5,652.634007364862
2820.75,654.077808977426
2821,657.305341565448
2821.25,659.909373973675
2821.5,659.163495306743
2821.75,657.170402350108
2822,662.070588990244
2822.25,681.505362277295
2822.5,716.05551503051
2822.75,762.903053125611
2823,817.370087156274
2823.25,869.545297195032
2823.5,908.593941560196
2823.75,927.102677239836
2824,928.228731545272
2824.25,917.164400626064
2824.5,899.094260511681
2824.75,878.989960201869
2825,861.588498186541
2825.25,851.614795281592
2825.5,852.814027283795
2825.75,862.366767249977
2826,874.756581887046
2826.25,884.57450419247
2826.5,890.270311117957
2826.75,894.964508823637
2827,902.057594258726
2827.25,913.968471225801
2827.5,927.854735449911
2827.75,939.11865456124
2828,943.192795711581
2828.25,938.134802046739
2828.5,926.561047709084
2828.75,911.543483571187
2829,896.103037936043
2829.25,882.186077644295
2829.5,870.716668566335
2829.75,862.578314246672
2830,858.030556479633
2830.25,853.990613684337
2830.5,846.261276611157
2830.75,830.767064281348
2831,806.943844537461
2831.25,778.173985085567
2831.5,748.049747114734
2831.75,720.154915621987
2832,698.048038401781
2832.25,685.281467111275
2832.5,683.109624045989
2832.75,685.865512183852
2833,686.658534922898
2833.25,682.526591867232
2833.5,676.310393848303
2833.75,671.178382876683
2834,668.241433381644
2834.25,667.040870027689
2834.5,666.935374779192
2834.75,666.527210064034
2835,664.202962004453
2835.25,662.835577537925
2835.5,674.265394716694
2835.75,710.182223803674
2836,762.507457702705
2836.25,807.107472163579
2836.5,823.113082080476
2836.75,814.263502311251
2837,794.270406128517
2837.25,776.278991299782
2837.5,764.086430660587
2837.75,754.05777468656
2838,742.448596116051
2838.25,728.431493619884
2838.5,714.557296371187
2838.75,703.520509078952
2839,696.701767458472
2839.25,693.991822371789
2839.5,695.120298343849
2839.75,698.699355143292
2840,702.524868921347
2840.25,704.437489090061
2840.5,702.685441752096
2840.75,695.678296795135
2841,682.831334373876
2841.25,667.213436397819
2841.5,652.714264516133
2841.75,642.116156563694
2842,636.039295597363
2842.25,634.755994957414
2842.5,637.205829469514
2842.75,641.366482214821
2843,647.089391168015
2843.25,660.125431493308
2843.5,686.811618361851
2843.75,721.779853692042
2844,748.557595880513
2844.25,752.930109616551
2844.5,738.443113928799
2844.75,715.827839607044
2845,694.955925376705
2845.25,679.830759783196
2845.5,672.05476536919
2845.75,671.585423625532
2846,671.514314600245
2846.25,663.215904742038
2846.5,644.585134192498
2846.75,624.677509770157
2847,613.040857254608
2847.25,611.151505830397
2847.5,614.722686266833
2847.75,619.789967086155
2848,623.529426569416
2848.25,623.569536049367
2848.5,620.39197288483
2848.75,616.175596892256
2849,612.738935802341
2849.25,611.047604600102
2849.5,611.737524907689
2849.75,613.465386645063
2850,613.844638397153
2850.25,612.641634522901
2850.5,613.40364878707
2850.75,619.103500931971
2851,626.350403448233
2851.25,629.249035146941
2851.5,626.193254207012
2851.75,621.511331816059
2852,619.284046358575
2852.25,619.433173679992
2852.5,620.322079950255
2852.75,620.754043362047
2853,620.143726040875
2853.25,618.143413940103
2853.5,615.458685826768
2853.75,613.137836498336
2854,611.701440771782
2854.25,611.014059951564
2854.5,611.117790398628
2854.75,613.037273478881
2855,618.011424512768
2855.25,625.965572100854
2855.5,635.568519650835
2855.75,644.962131584964
2856,650.681102805804
2856.25,649.145137642321
2856.5,641.521896603584
2856.75,633.51932028376
2857,629.866918277228
2857.25,629.265454498874
2857.5,628.508710009203
2857.75,626.346582649134
2858,624.200205546817
2858.25,623.327802012767
2858.5,622.851322923989
2858.75,621.134864949058
2859,618.297813000682
2859.25,616.933818467577
2859.5,619.323903803173
2859.75,624.892548651105
2860,632.048457846279
2860.25,639.170968778994
2860.5,644.604117159063
2860.75,646.898015027284
2861,645.738219200908
2861.25,641.227406371143
2861.5,635.637157438179
2861.75,634.745718100818
2862,643.617115800782
2862.25,658.185697122718
2862.5,669.643429809354
2862.75,672.45479753077
2863,668.443944989638
2863.25,660.600132978538
2863.5,655.417037943105
2863.75,662.631715955487
2864,688.972662384761
2864.25,722.585608540026
2864.5,744.834786729688
2864.75,746.145379841112
2865,736.636840945799
2865.25,728.96916173807
2865.5,730.322087926087
2865.75,736.989702340108
2866,743.999085709354
2866.25,747.563237648398
2866.5,745.790554864626
2866.75,736.99989280038
2867,721.617259329333
2867.25,703.160390307215
2867.5,685.357291222437
2867.75,670.437512914217
2868,658.632038424627
2868.25,649.968379008336
2868.5,643.587850604934
2868.75,637.988081345722
2869,632.146812537314
2869.25,627.007811950295
2869.5,623.982507229646
2869.75,623.870644763449
2870,626.775245420291
2870.25,632.958329990946
2870.5,643.596589169243
2870.75,659.946743187955
2871,677.576313173815
2871.25,685.437208072841
2871.5,675.359001643866
2871.75,660.711106959478
2872,663.620037119531
2872.25,696.284973733388
2872.5,740.836010204942
2872.75,774.237638356277
2873,788.18574088108
2873.25,791.321415387023
2873.5,793.107528976736
2873.75,798.51708519069
2874,806.66649273007
2874.25,816.27539940589
2874.5,825.630743171407
2874.75,832.132637945609
2875,833.072512476784
2875.25,826.688571189733
2875.5,815.306675027155
2875.75,802.355606319645
2876,791.068931863306
2876.25,782.200478362524
2876.5,774.798439484658
2876.75,767.828512271302
2877,758.820659984337
2877.25,743.671808239018
2877.5,718.306212060662
2877.75,684.184111643791
2878,650.617241165079
2878.25,627.276039499663
2878.5,616.846144598488
2878.75,614.070840695046
2879,613.987182218846
2879.25,615.46945077185
2879.5,618.615932760134
2879.75,622.300320208534
2880,624.003276517584
2880.25,622.027401404091
2880.5,618.453720438843
2880.75,616.275932601668
2881,616.491882261286
2881.25,618.034555991234
2881.5,619.872530933779
2881.75,621.469174259949
2882,622.513557121666
2882.25,624.721400775462
2882.5,631.600301130326
2882.75,643.973425734276
2883,653.458220802226
2883.25,650.303851425888
2883.5,635.708757696677
2883.75,620.860776145041
2884,615.034203728397
2884.25,615.873673313752
2884.5,617.453376917679
2884.75,617.860585807299
2885,619.887373456113
2885.25,625.491909784075
2885.5,631.828702387909
2885.75,634.877155623239
2886,633.820204030445
2886.25,631.117493220101
2886.5,628.897822929213
2886.75,627.098527416419
2887,625.041479760347
2887.25,622.395633951193
2887.5,619.245157971896
2887.75,615.820649390104
2888,612.959708632682
2888.25,611.631913663502
2888.5,611.157736933345
2888.75,608.986056478897
2889,606.222513095217
2889.25,618.843889746769
2889.5,664.894377653047
2889.75,734.933282006806
2890,796.485642494599
2890.25,824.902127239249
2890.5,826.591487261093
2890.75,815.02283546696
2891,802.301916469991
2891.25,791.977886864795
2891.5,784.287965015445
2891.75,779.415756771476
2892,776.849707807846
2892.25,775.542833826316
2892.5,774.453173480997
2892.75,773.034517957868
2893,771.274196292921
2893.25,769.177130762777
2893.5,766.342194009689
2893.75,761.800208311015
2894,754.539101222909
2894.25,743.500873011641
2894.5,727.5479656197
2894.75,705.563984953109
2895,679.508289805938
2895.25,657.088736630308
2895.5,646.426552179872
2895.75,647.965771737219
2896,652.58997580538
2896.25,651.86246898456
2896.5,646.210096467698
2896.75,639.806663144912
2897,635.520020501402
2897.25,633.340714995803
2897.5,632.825363120884
2897.75,632.839685371645
2898,631.776823142966
2898.25,628.619297706456
2898.5,624.065713638179
2898.75,619.130189939046
2899,614.984902217409
2899.25,612.928465712706
2899.5,613.744496716445
2899.75,616.659236336405
2900,620.608050105563
2900.25,624.529753140156
2900.5,627.366562772298
2900.75,628.383640093204
2901,627.624772751796
2901.25,625.301515402303
2901.5,622.243612563481
2901.75,619.680564690699
2902,618.293077239298
2902.25,617.360068149385
2902.5,615.99993161292
2902.75,613.971895906975
2903,611.439787323078
2903.25,608.952175324704
2903.5,607.881953706544
2903.75,609.487597622214
2904,613.155198224423
2904.25,617.354202367735
2904.5,621.756850359856
2904.75,627.93368808122
2905,637.015132270646
2905.25,646.47823729095
2905.5,652.489040206942
2905.75,653.956118253215
2906,653.870513664094
2906.25,655.347800639038
2906.5,659.668242255752
2906.75,667.151968085993
2907,676.943102584828
2907.25,684.996146924653
2907.5,686.869127566688
2907.75,682.025059873047
2908,674.20575969092
2908.25,667.065002766869
2908.5,661.27700120595
2908.75,655.837301703841
2909,650.082331231263
2909.25,644.667265787946
2909.5,640.523414655053
2909.75,637.60099534328
2910,634.592797398346
2910.25,630.570353957869
2910.5,627.633802150593
2910.75,629.068173652616
2911,635.312531012907
2911.25,641.991867383328
2911.5,644.837197743267
2911.75,643.943294153338
2912,641.418478828002
2912.25,639.049985166577
2912.5,637.919384321315
2912.75,638.889055460194
2913,641.22467989669
2913.25,643.113394456233
2913.5,643.023473505755
2913.75,640.325691698431
2914,634.66756563692
2914.25,627.918543749012
2914.5,624.027238190154
2914.75,625.842240465109
2915,631.101490246792
2915.25,636.250347231852
2915.5,640.058163793032
2915.75,643.758519732698
2916,648.264561921149
2916.25,652.395389858922
2916.5,654.37834894594
2916.75,653.961950371805
2917,653.058506218805
2917.25,653.452475002313
2917.5,654.37543186174
2917.75,653.745271595745
2918,650.531104940124
2918.25,646.530406796965
2918.5,643.906256102591
2918.75,642.74018516386
2919,641.147210936999
2919.25,637.929273338677
2919.5,635.527823341791
2919.75,637.400342183229
2920,644.040238993644
2920.25,651.859052578517
2920.5,657.48228069686
2920.75,660.928294410541
2921,663.592229023844
2921.25,666.06303620456
2921.5,667.229495913739
2921.75,665.900085439726
2922,663.146249934716
2922.25,661.924062691818
2922.5,664.260128605706
2922.75,666.876609335393
2923,664.750484445502
2923.25,656.246275286241
2923.5,646.235898450616
2923.75,640.078060033342
2924,639.231609047947
2924.25,642.074756758959
2924.5,647.443251832553
2924.75,656.223451102362
2925,669.726968055899
2925.25,687.497387456869
2925.5,707.065196249941
2925.75,725.718489880647
2926,739.757042953974
2926.25,745.035577238142
2926.5,738.939158766572
2926.75,725.883081072279
2927,712.297366328662
2927.25,703.032203235174
2927.5,696.113759203233
2927.75,687.728955220044
2928,675.927683546578
2928.25,663.88474985415
2928.5,655.597580271373
2928.75,652.688047481081
2929,653.442637827649
2929.25,656.049928722082
2929.5,660.072967077608
2929.75,665.807827054677
2930,675.722083410553
2930.25,698.30514131143
2930.5,742.513421611139
2930.75,801.527776456409
2931,851.139949843075
2931.25,867.719372634135
2931.5,850.877536808827
2931.75,818.752332131464
2932,789.985663428074
2932.25,776.882514272259
2932.5,774.729602853067
2932.75,775.98627858316
2933,774.393521225029
2933.25,769.423530870172
2933.5,762.149904073969
2933.75,753.578961756303
2934,744.303680858525
2934.25,734.760317987193
2934.5,725.297529093439
2934.75,715.648900951873
2935,705.283715156179
2935.25,693.895084915183
2935.5,682.4571438685
2935.75,672.397034728226
2936,665.203659057543
2936.25,662.566393894253
2936.5,666.169655771602
2936.75,675.619560561567
2937,687.639460783586
2937.25,698.864918482858
2937.5,707.133596452586
2937.75,710.956449134817
2938,709.554097835429
2938.25,705.360433271927
2938.5,701.726367534209
2938.75,700.528000339586
2939,699.401114543415
2939.25,695.251893470494
2939.5,687.078028043171
2939.75,677.39066107455
2940,669.050136123879
2940.25,665.191614247913
2940.5,669.214256177068
2940.75,683.322477762426
2941,701.453216607546
2941.25,714.08211362013
2941.5,715.656021541276
2941.75,711.175097024147
2942,707.337489568523
2942.25,708.266779106255
2942.5,713.573046162699
2942.75,722.353174317788
2943,732.082982469763
2943.25,738.418035743257
2943.5,737.193418623058
2943.75,728.656589078574
2944,716.600742370232
2944.25,704.749058482045
2944.5,694.53693474722
2944.75,685.762768792446
2945,678.607475748918
2945.25,676.550517268894
2945.5,684.635480623095
2945.75,705.023766963369
2946,729.732174522199
2946.25,748.626836068621
2946.5,756.863533228416
2946.75,758.376383179184
2947,757.897569249377
2947.25,758.39621102085
2947.5,760.098335696612
2947.75,762.984216534514
2948,766.37047379309
2948.25,768.448716220983
2948.5,767.307033935539
2948.75,761.681666448472
2949,751.560650845904
2949.25,737.080061673293
2949.5,719.81461712657
2949.75,704.733899196315
2950,697.28103151662
2950.25,700.251141904671
2950.5,710.854379804916
2950.75,725.605293155265
2951,741.429739089784
2951.25,755.74975313853
2951.5,766.122228470517
2951.75,772.020672815012
2952,774.590804157549
2952.25,775.026297631429
2952.5,774.340523270577
2952.75,773.370411656865
2953,772.925011049027
2953.25,773.054196899402
2953.5,772.843108182282
2953.75,771.326284202522
2954,768.338137842201
2954.25,765.010308917515
2954.5,762.591956146996
2954.75,762.171301895857
2955,764.504893112241
2955.25,770.305077691984
2955.5,779.326029574291
2955.75,789.038013131556
2956,796.578981482471
2956.25,800.008457902369
2956.5,800.119521371245
2956.75,798.209726055975
2957,795.392352636301
2957.25,791.833251364994
2957.5,787.394635327234
2957.75,781.991360265807
2958,776.038584067634
2958.25,770.227501501763
2958.5,765.144008622447
2958.75,759.625127470772
2959,751.091840527752
2959.25,737.148432151014
2959.5,720.343590523292
2959.75,708.057812872385
2960,707.523255805591
2960.25,718.920957596254
2960.5,735.892760718318
2960.75,752.229775447055
2961,765.746647256751
2961.25,776.600251060196
2961.5,784.88201768936
2961.75,789.835504543168
2962,790.256790054578
2962.25,785.16572446939
2962.5,776.674272691125
2962.75,769.12253081827
2963,766.70132213576
2963.25,768.300143591756
2963.5,767.062169217187
2963.75,756.021773134721
2964,735.117518628716
2964.25,713.229238862355
2964.5,699.754526209614
2964.75,700.067235587785
2965,713.626304632975
2965.25,739.211063880209
2965.5,771.656494499229
2965.75,802.256074203867
2966,822.762334627961
2966.25,832.281162373816
2966.5,834.939933118623
2966.75,834.912731960996
2967,834.431293451637
2967.25,833.213392168384
2967.5,830.809707120536
2967.75,826.730482562737
2968,820.351358980905
2968.25,811.020002831878
2968.5,798.180957863807
2968.75,782.158017642934
2969,763.743449110996
2969.25,743.88108818452
2969.5,726.813377451755
2969.75,720.033727921284
2970,730.814427648298
2970.25,757.759390361018
2970.5,790.566510681403
2970.75,818.933815780299
2971,838.697383108286
2971.25,850.447217433408
2971.5,854.917278849986
2971.75,853.688310427524
2972,849.483149083042
2972.25,845.105346103074
2972.5,842.841203373346
2972.75,842.711781384403
2973,844.118203565306
2973.25,846.350494182226
2973.5,846.968002595388
2973.75,842.161854980548
2974,828.104528944989
2974.25,804.471203297563
2974.5,778.537816375942
2974.75,758.576336149963
2975,751.666052189068
2975.25,758.069790244087
2975.5,775.632691437946
2975.75,801.616748597761
2976,829.668259962497
2976.25,852.043324312898
2976.5,861.919782092374
2976.75,860.850525039002
2977,854.843481680114
2977.25,849.905666235847
2977.5,849.123418596099
2977.75,850.817704496138
2978,852.870386128715
2978.25,853.1582626636
2978.5,849.531589700586
2978.75,839.831953985854
2979,822.07639029153
2979.25,798.349666999914
2979.5,774.822321607663
2979.75,757.838194831043
2980,751.897797259025
2980.25,757.030293181752
2980.5,772.597832538946
2980.75,796.527340505465
2981,822.842287005989
2981.25,844.908971158582
2981.5,857.718711419767
2981.75,861.851725833688
2982,859.088835065987
2982.25,851.320057172554
2982.5,841.669218072442
2982.75,834.039558822982
2983,832.32210539394
2983.25,837.343662835469
2983.5,843.924115214623
2983.75,846.185345192545
2984,839.454606161279
2984.25,825.218704625093
2984.5,806.926806351916
2984.75,788.114047875673
2985,773.98779393946
2985.25,771.282735672102
2985.5,786.655700610485
2985.75,819.248215036419
2986,856.843327158769
2986.25,886.31753120146
2986.5,900.308666630623
2986.75,903.381958970491
2987,901.58195840607
2987.25,900.533021575593
2987.5,901.565542485243
2987.75,903.496567810609
2988,905.111676809605
2988.25,905.54549387364
2988.5,904.972874929652
2988.75,903.76159630456
2989,902.246874070787
2989.25,899.935885328697
2989.5,895.461250303817
2989.75,887.413716673054
2990,875.099189346715
2990.25,862.102679535437
2990.5,853.593756148544
2990.75,854.681081066705
2991,866.370591104053
2991.25,883.134003134326
2991.5,898.859988018449
2991.75,908.496563398948
2992,912.528522749873
2992.25,913.243567084713
2992.5,912.91738626808
2992.75,912.906838435214
2993,913.058042071396
2993.25,913.07648941453
2993.5,912.650226193492
2993.75,911.259026459054
2994,908.245658504735
2994.25,902.9504859422
2994.5,895.197716126876
2994.75,886.704150739309
2995,879.6492802559
2995.25,876.171829022158
2995.5,876.782958135409
2995.75,879.854479234944
2996,883.612675872963
2996.25,886.523781831015
2996.5,888.40210077044
2996.75,889.532369028018
2997,890.199271143544
2997.25,890.659022967679
2997.5,891.125815721815
2997.75,891.810460571481
2998,892.901689458531
2998.25,894.42064400839
2998.5,896.311589908042
2998.75,898.516084854738
2999,900.607784459614
2999.25,901.392190543575
2999.5,899.578572310787
2999.75,894.057477661061
3000,886.11714792869
3000.25,878.742766428164
3000.5,874.955311600659
3000.75,876.675565986782
3001,881.919379352416
3001.25,887.836640817895
3001.5,891.71783910937
3001.75,893.552377384388
3002,895.761137040312
3002.25,900.8519291987
3002.5,910.451053279936
3002.75,922.441220507069
3003,933.711545844127
3003.25,941.178599204814
3003.5,942.994148655225
3003.75,939.018838551108
3004,929.238651531042
3004.25,913.809481112876
3004.5,895.236928955813
3004.75,877.741671476989
3005,865.583412272978
3005.25,862.098963307962
3005.5,865.98827484474
3005.75,874.498195264606
3006,884.897106172652
3006.25,895.056564002023
3006.5,903.510161468232
3006.75,908.825336772547
3007,910.064821565454
3007.25,908.632941117277
3007.5,906.625337217077
3007.75,906.118045191035
3008,907.761608700389
3008.25,909.844673871237
3008.5,910.433795813815
3008.75,907.711869550227
3009,901.130226084515
3009.25,890.920337912769
3009.5,877.325143373292
3009.75,861.576860666945
3010,848.370370408562
3010.25,843.157716234318
3010.5,851.035842170798
3010.75,870.062553567458
3011,891.83148587372
3011.25,907.704619069293
3011.5,912.532552685666
3011.75,910.064837078243
3012,905.449413921468
3012.25,903.659567913028
3012.5,906.146478074886
3012.75,911.094069114246
3013,916.562669189415
3013.25,920.712359318233
3013.5,922.222051383171
3013.75,919.938805966321
3014,912.722042133976
3014.25,900.993674624692
3014.5,888.252888483263
3014.75,878.358456485961
3015,874.957892100513
3015.25,878.341791083947
3015.5,886.112606635132
3015.75,895.797499193101
3016,905.251570471839
3016.25,913.360119073661
3016.5,919.210213098592
3016.75,921.937233977647
3017,921.781941057312
3017.25,920.087243098499
3017.5,918.243716491163
3017.75,917.442011864699
3018,917.474113540367
3018.25,917.5347185702
3018.5,916.816643706595
3018.75,914.686683544224
3019,910.965014930812
