2059,61.4673209278613
2059.25,61.3524088707622
2059.5,61.237496813663
2059.75,61.1225847565638
2060,61.0076726994647
2060.25,60.8927606423656
2060.5,60.7778485852664
2060.75,60.6629365281672
2061,60.5480244710681
2061.25,60.4331124139689
2061.5,60.3182003568697
2061.75,60.2032882997706
2062,60.0883762426715
2062.25,59.9734641855723
2062.5,59.8585521284731
2062.75,59.743640071374
2063,59.6287280142748
2063.25,59.6711955136375
2063.5,59.7661228651542
2063.75,59.8610502166709
2064,59.9559775681876
2064.25,60.0509049197043
2064.5,60.145832271221
2064.75,60.2407596227377
2065,60.3356869742544
2065.25,60.4306143257711
2065.5,60.5255416772878
2065.75,60.6204690288044
2066,60.7153963803211
2066.25,60.8103237318379
2066.5,60.9052510833546
2066.75,61.0001784348713
2067,61.095105786388
2067.25,61.1900331379047
2067.5,61.2849604894214
2067.75,61.379887840938
2068,61.4748151924547
2068.25,61.5146826408361
2068.5,61.5346673464186
2068.75,61.554652052001
2069,61.5746367575835
2069.25,61.594621463166
2069.5,61.6146061687484
2069.75,61.6345908743309
2070,61.6545755799133
2070.25,61.6745602854958
2070.5,61.6945449910783
2070.75,61.7145296966607
2071,61.7345144022432
2071.25,61.7544991078257
2071.5,61.7744838134081
2071.75,61.7944685189906
2072,61.814453224573
2072.25,61.8344379301555
2072.5,61.854422635738
2072.75,61.8744073413204
2073,61.8943920469029
2073.25,61.9718837624267
2073.5,62.071807290339
2073.75,62.1717308182513
2074,62.2716543461636
2074.25,62.371577874076
2074.5,62.4715014019883
2074.75,62.5714249299006
2075,62.6713484578129
2075.25,62.7712719857252
2075.5,62.8711955136375
2075.75,62.9711190415498
2076,63.0710425694621
2076.25,63.1709660973745
2076.5,63.2708896252868
2076.75,63.3708131531991
2077,63.4707366811113
2077.25,63.5706602090237
2077.5,63.670583736936
2077.75,63.7705072648483
2078,63.8704307927606
2078.25,63.9809074687739
2078.5,64.0958195258731
2078.75,64.2107315829722
2079,64.3256436400713
2079.25,64.4405556971705
2079.5,64.5554677542697
2079.75,64.6703798113688
2080,64.785291868468
2080.25,64.9002039255672
2080.5,65.0151159826664
2080.75,65.1300280397655
2081,65.2449400968646
2081.25,65.3598521539638
2081.5,65.4747642110629
2081.75,65.5896762681621
2082,65.7045883252613
2082.25,65.8195003823605
2082.5,65.9344124394596
2082.75,66.0493244965587
2083,66.1642365536579
2083.25,66.2275299515677
2083.5,66.2674993627326
2083.75,66.3074687738975
2084,66.3474381850625
2084.25,66.3874075962274
2084.5,66.4273770073923
2084.75,66.4673464185572
2085,66.5073158297221
2085.25,66.5472852408871
2085.5,66.587254652052
2085.75,66.6272240632169
2086,66.6671934743819
2086.25,66.7071628855468
2086.5,66.7471322967117
2086.75,66.7871017078766
2087,66.8270711190415
2087.25,66.8670405302065
2087.5,66.9070099413714
2087.75,66.9469793525363
2088,66.9869487637013
2088.25,66.962987509559
2088.5,66.9080295692073
2088.75,66.8530716288555
2089,66.7981136885037
2089.25,66.7431557481519
2089.5,66.6881978078002
2089.75,66.6332398674484
2090,66.5782819270966
2090.25,66.5233239867449
2090.5,66.4683660463931
2090.75,66.4134081060413
2091,66.3584501656895
2091.25,66.3034922253378
2091.5,66.248534284986
2091.75,66.1935763446342
2092,66.1386184042824
2092.25,66.0836604639307
2092.5,66.0287025235789
2092.75,65.9737445832271
2093,65.9187866428754
2093.25,65.8901351006883
2093.5,65.8751465715014
2093.75,65.8601580423146
2094,65.8451695131277
2094.25,65.8301809839409
2094.5,65.815192454754
2094.75,65.8002039255672
2095,65.7852153963803
2095.25,65.7702268671935
2095.5,65.7552383380066
2095.75,65.7402498088198
2096,65.7252612796329
2096.25,65.7102727504461
2096.5,65.6952842212592
2096.75,65.6802956920724
2097,65.6653071628855
2097.25,65.6503186336987
2097.5,65.6353301045119
2097.75,65.620341575325
2098,65.6053530461382
2098.25,65.510068824879
2098.5,65.3701758858017
2098.75,65.2302829467244
2099,65.0903900076472
2099.25,64.9504970685699
2099.5,64.8106041294927
2099.75,64.6707111904156
2100,64.5308182513383
2100.25,64.3909253122611
2100.5,64.2510323731838
2100.75,64.1111394341065
2101,63.9712464950293
2101.25,63.831353555952
2101.5,63.6914606168748
2101.75,63.5515676777977
2102,63.4116747387204
2102.25,63.2717817996432
2102.5,63.1318888605659
2102.75,62.9919959214886
2103,62.8521029824114
2103.25,62.7623757328575
2103.5,62.7024216161102
2103.75,62.6424674993628
2104,62.5825133826154
2104.25,62.522559265868
2104.5,62.4626051491206
2104.75,62.4026510323732
2105,62.3426969156258
2105.25,62.2827427988784
2105.5,62.222788682131
2105.75,62.1628345653837
2106,62.1028804486363
2106.25,62.0429263318889
2106.5,61.9829722151415
2106.75,61.9230180983941
2107,61.8630639816467
2107.25,61.8031098648993
2107.5,61.7431557481519
2107.75,61.6832016314046
2108,61.6232475146572
2108.25,61.5755289319398
2108.5,61.5355595207749
2108.75,61.49559010961
2109,61.4556206984451
2109.25,61.4156512872802
2109.5,61.3756818761152
2109.75,61.3357124649503
2110,61.2957430537854
2110.25,61.2557736426204
2110.5,61.2158042314555
2110.75,61.1758348202906
2111,61.1358654091257
2111.25,61.0958959979608
2111.5,61.0559265867958
2111.75,61.0159571756309
2112,60.975987764466
2112.25,60.936018353301
2112.5,60.8960489421361
2112.75,60.8560795309712
2113,60.8161101198063
2113.25,60.8
2113.5,60.8
2113.75,60.8
2114,60.8
2114.25,60.8
2114.5,60.8
2114.75,60.8
2115,60.8
2115.25,60.8
2115.5,60.8
2115.75,60.8
2116,60.8
2116.25,60.8
2116.5,60.8
2116.75,60.8
2117,60.8
2117.25,60.8
2117.5,60.8
2117.75,60.8
2118,60.8
2118.25,60.8174356359929
2118.5,60.8474126943665
2118.75,60.8773897527402
2119,60.9073668111139
2119.25,60.9373438694876
2119.5,60.9673209278613
2119.75,60.997297986235
2120,61.0272750446087
2120.25,61.0572521029824
2120.5,61.0872291613561
2120.75,61.1172062197298
2121,61.1471832781035
2121.25,61.1771603364772
2121.5,61.2071373948509
2121.75,61.2371144532246
2122,61.2670915115983
2122.25,61.2970685699719
2122.5,61.3270456283456
2122.75,61.3570226867193
2123,61.386999745093
2123.25,61.4198062707112
2123.5,61.4547795054805
2123.75,61.4897527402498
2124,61.5247259750191
2124.25,61.5596992097884
2124.5,61.5946724445577
2124.75,61.629645679327
2125,61.6646189140964
2125.25,61.6995921488657
2125.5,61.734565383635
2125.75,61.7695386184043
2126,61.8045118531736
2126.25,61.8394850879429
2126.5,61.8744583227122
2126.75,61.9094315574815
2127,61.9444047922508
2127.25,61.9793780270201
2127.5,62.0143512617895
2127.75,62.0493244965588
2128,62.0842977313281
2128.25,62.0972470048432
2128.5,62.0922508284476
2128.75,62.087254652052
2129,62.0822584756564
2129.25,62.0772622992608
2129.5,62.0722661228652
2129.75,62.0672699464695
2130,62.0622737700739
2130.25,62.0572775936783
2130.5,62.0522814172827
2130.75,62.0472852408871
2131,62.0422890644915
2131.25,62.0372928880958
2131.5,62.0322967117002
2131.75,62.0273005353046
2132,62.022304358909
2132.25,62.0173081825134
2132.5,62.0123120061178
2132.75,62.0073158297222
2133,62.0023196533265
2133.25,62.0053530461382
2133.5,62.0153453989294
2133.75,62.0253377517206
2134,62.0353301045119
2134.25,62.0453224573031
2134.5,62.0553148100943
2134.75,62.0653071628855
2135,62.0752995156768
2135.25,62.085291868468
2135.5,62.0952842212592
2135.75,62.1052765740505
2136,62.1152689268417
2136.25,62.1252612796329
2136.5,62.1352536324242
2136.75,62.1452459852154
2137,62.1552383380066
2137.25,62.1652306907979
2137.5,62.1752230435891
2137.75,62.1852153963803
2138,62.1952077491716
2138.25,62.1895997960744
2138.5,62.169615090492
2138.75,62.1496303849095
2139,62.129645679327
2139.25,62.1096609737446
2139.5,62.0896762681621
2139.75,62.0696915625797
2140,62.0497068569972
2140.25,62.0297221514147
2140.5,62.0097374458323
2140.75,61.9897527402498
2141,61.9697680346673
2141.25,61.9497833290849
2141.5,61.9297986235024
2141.75,61.90981391792
2142,61.8898292123375
2142.25,61.869844506755
2142.5,61.8498598011726
2142.75,61.8298750955901
2143,61.8098903900077
2143.25,61.8
2143.5,61.8
2143.75,61.8
2144,61.8
2144.25,61.8
2144.5,61.8
2144.75,61.8
2145,61.8
2145.25,61.8
2145.5,61.8
2145.75,61.8
2146,61.8
2146.25,61.8
2146.5,61.8
2146.75,61.8
2147,61.8
2147.25,61.8
2147.5,61.8
2147.75,61.8
2148,61.8
2148.25,61.8
2148.5,61.8
2148.75,61.8
2149,61.8
2149.25,61.8
2149.5,61.8
2149.75,61.8
2150,61.8
2150.25,61.8
2150.5,61.8
2150.75,61.8
2151,61.8
2151.25,61.8
2151.5,61.8
2151.75,61.8
2152,61.8
2152.25,61.8
2152.5,61.8
2152.75,61.8
2153,61.8
2153.25,61.8023706347183
2153.5,61.8073668111139
2153.75,61.8123629875096
2154,61.8173591639052
2154.25,61.8223553403008
2154.5,61.8273515166964
2154.75,61.832347693092
2155,61.8373438694876
2155.25,61.8423400458832
2155.5,61.8473362222789
2155.75,61.8523323986745
2156,61.8573285750701
2156.25,61.8623247514657
2156.5,61.8673209278613
2156.75,61.8723171042569
2157,61.8773132806526
2157.25,61.8823094570482
2157.5,61.8873056334438
2157.75,61.8923018098394
2158,61.897297986235
2158.25,61.9229416263064
2158.5,61.9729033902625
2158.75,62.0228651542187
2159,62.0728269181749
2159.25,62.122788682131
2159.5,62.1727504460872
2159.75,62.2227122100433
2160,62.2726739739995
2160.25,62.3226357379556
2160.5,62.3725975019118
2160.75,62.4225592658679
2161,62.4725210298241
2161.25,62.5224827937803
2161.5,62.5724445577364
2161.75,62.6224063216926
2162,62.6723680856487
2162.25,62.7223298496049
2162.5,62.772291613561
2162.75,62.8222533775172
2163,62.8722151414734
2163.25,62.8889115472852
2163.5,62.8639306653072
2163.75,62.8389497833291
2164,62.813968901351
2164.25,62.7889880193729
2164.5,62.7640071373949
2164.75,62.7390262554168
2165,62.7140453734387
2165.25,62.6890644914606
2165.5,62.6640836094825
2165.75,62.6391027275045
2166,62.6141218455264
2166.25,62.5891409635483
2166.5,62.5641600815702
2166.75,62.5391791995921
2167,62.5141983176141
2167.25,62.489217435636
2167.5,62.4642365536579
2167.75,62.4392556716798
2168,62.4142747897018
2168.25,62.4
2168.5,62.4
2168.75,62.4
2169,62.4
2169.25,62.4
2169.5,62.4
2169.75,62.4
2170,62.4
2170.25,62.4
2170.5,62.4
2170.75,62.4
2171,62.4
2171.25,62.4
2171.5,62.4
2171.75,62.4
2172,62.4
2172.25,62.4
2172.5,62.4
2172.75,62.4
2173,62.4
2173.25,62.4041294927351
2173.5,62.4141218455264
2173.75,62.4241141983176
2174,62.4341065511088
2174.25,62.4440989039001
2174.5,62.4540912566913
2174.75,62.4640836094825
2175,62.4740759622738
2175.25,62.484068315065
2175.5,62.4940606678562
2175.75,62.5040530206475
2176,62.5140453734387
2176.25,62.5240377262299
2176.5,62.5340300790212
2176.75,62.5440224318124
2177,62.5540147846036
2177.25,62.5640071373948
2177.5,62.5739994901861
2177.75,62.5839918429773
2178,62.5939841957685
2178.25,62.5721641600816
2178.5,62.5022176905429
2178.75,62.4322712210043
2179,62.3623247514657
2179.25,62.2923782819271
2179.5,62.2224318123885
2179.75,62.1524853428499
2180,62.0825388733112
2180.25,62.0125924037726
2180.5,61.942645934234
2180.75,61.8726994646954
2181,61.8027529951568
2181.25,61.7328065256182
2181.5,61.6628600560795
2181.75,61.5929135865409
2182,61.5229671170023
2182.25,61.4530206474637
2182.5,61.383074177925
2182.75,61.3131277083865
2183,61.2431812388478
2183.25,61.1579403517716
2183.5,61.0480244710681
2183.75,60.9381085903645
2184,60.828192709661
2184.25,60.7182768289574
2184.5,60.608360948254
2184.75,60.4984450675504
2185,60.3885291868468
2185.25,60.2786133061433
2185.5,60.1686974254397
2185.75,60.0587815447362
2186,59.9488656640326
2186.25,59.8389497833291
2186.5,59.7290339026256
2186.75,59.619118021922
2187,59.5092021412185
2187.25,59.3992862605149
2187.5,59.2893703798114
2187.75,59.1794544991078
2188,59.0695386184043
2188.25,59.064236553658
2188.5,59.2391027275044
2188.75,59.4139689013509
2189,59.5888350751975
2189.25,59.7637012490441
2189.5,59.9385674228907
2189.75,60.1134335967372
2190,60.2882997705838
2190.25,60.4631659444302
2190.5,60.6380321182768
2190.75,60.8128982921233
2191,60.9877644659699
2191.25,61.1626306398165
2191.5,61.337496813663
2191.75,61.5123629875096
2192,61.6872291613562
2192.25,61.8620953352026
2192.5,62.0369615090491
2192.75,62.2118276828957
2193,62.3866938567423
2193.25,62.5140708641346
2193.5,62.5540402752995
2193.75,62.5940096864645
2194,62.6339790976293
2194.25,62.6739485087943
2194.5,62.7139179199592
2194.75,62.7538873311241
2195,62.7938567422891
2195.25,62.833826153454
2195.5,62.8737955646189
2195.75,62.9137649757838
2196,62.9537343869487
2196.25,62.9937037981137
2196.5,63.0336732092786
2196.75,63.0736426204435
2197,63.1136120316085
2197.25,63.1535814427734
2197.5,63.1935508539383
2197.75,63.2335202651032
2198,63.2734896762681
2198.25,63.2983176140709
2198.5,63.2933214376752
2198.75,63.2883252612796
2199,63.283329084884
2199.25,63.2783329084884
2199.5,63.2733367320928
2199.75,63.2683405556972
2200,63.2633443793016
2200.25,63.2583482029059
2200.5,63.2533520265103
2200.75,63.2483558501147
2201,63.2433596737191
2201.25,63.2383634973235
2201.5,63.2333673209279
2201.75,63.2283711445322
2202,63.2233749681366
2202.25,63.218378791741
2202.5,63.2133826153454
2202.75,63.2083864389498
2203,63.2033902625542
2203.25,63.1919704307928
2203.5,63.1669895488147
2203.75,63.1420086668366
2204,63.1170277848585
2204.25,63.0920469028805
2204.5,63.0670660209024
2204.75,63.0420851389243
2205,63.0171042569462
2205.25,62.9921233749682
2205.5,62.9671424929901
2205.75,62.942161611012
2206,62.9171807290339
2206.25,62.8921998470558
2206.5,62.8672189650777
2206.75,62.8422380830997
2207,62.8172572011216
2207.25,62.7922763191435
2207.5,62.7672954371654
2207.75,62.7423145551874
2208,62.7173336732093
2208.25,62.6434106551109
2208.5,62.4585521284731
2208.75,62.2736936018353
2209,62.0888350751977
2209.25,61.9039765485599
2209.5,61.7191180219221
2209.75,61.5342594952843
2210,61.3494009686465
2210.25,61.1645424420087
2210.5,60.9796839153709
2210.75,60.7948253887331
2211,60.6099668620954
2211.25,60.4251083354576
2211.5,60.2402498088198
2211.75,60.055391282182
2212,59.8705327555442
2212.25,59.6856742289064
2212.5,59.5008157022686
2212.75,59.3159571756308
2213,59.1310986489932
2213.25,58.9811113943411
2213.5,58.9161611011981
2213.75,58.8512108080551
2214,58.7862605149121
2214.25,58.721310221769
2214.5,58.656359928626
2214.75,58.5914096354831
2215,58.5264593423401
2215.25,58.4615090491971
2215.5,58.3965587560541
2215.75,58.331608462911
2216,58.266658169768
2216.25,58.201707876625
2216.5,58.136757583482
2216.75,58.0718072903391
2217,58.006856997196
2217.25,57.941906704053
2217.5,57.87695641091
2217.75,57.812006117767
2218,57.747055824624
2218.25,57.6931175121081
2218.5,57.66813663013
2218.75,57.6431557481519
2219,57.6181748661739
2219.25,57.5931939841958
2219.5,57.5682131022177
2219.75,57.5432322202396
2220,57.5182513382615
2220.25,57.4932704562835
2220.5,57.4682895743054
2220.75,57.4433086923273
2221,57.4183278103492
2221.25,57.3933469283712
2221.5,57.3683660463931
2221.75,57.343385164415
2222,57.3184042824369
2222.25,57.2934234004588
2222.5,57.2684425184808
2222.75,57.2434616365027
2223,57.2184807545246
2223.25,57.2247004843232
2223.5,57.3196278358399
2223.75,57.4145551873566
2224,57.5094825388733
2224.25,57.60440989039
2224.5,57.6993372419067
2224.75,57.7942645934234
2225,57.8891919449401
2225.25,57.9841192964568
2225.5,58.0790466479735
2225.75,58.1739739994902
2226,58.2689013510068
2226.25,58.3638287025235
2226.5,58.4587560540403
2226.75,58.553683405557
2227,58.6486107570737
2227.25,58.7435381085904
2227.5,58.8384654601071
2227.75,58.9333928116238
2228,59.0283201631404
2228.25,59.097552893194
2228.5,59.0875605404028
2228.75,59.0775681876115
2229,59.0675758348203
2229.25,59.0575834820291
2229.5,59.0475911292378
2229.75,59.0375987764466
2230,59.0276064236554
2230.25,59.0176140708641
2230.5,59.0076217180729
2230.75,58.9976293652817
2231,58.9876370124904
2231.25,58.9776446596992
2231.5,58.967652306908
2231.75,58.9576599541168
2232,58.9476676013255
2232.25,58.9376752485343
2232.5,58.9276828957431
2232.75,58.9176905429518
2233,58.9076981901606
2233.25,58.8736171297476
2233.5,58.7587050726484
2233.75,58.6437930155494
2234,58.5288809584502
2234.25,58.413968901351
2234.5,58.2990568442519
2234.75,58.1841447871527
2235,58.0692327300535
2235.25,57.9543206729543
2235.5,57.8394086158553
2235.75,57.7244965587561
2236,57.6095845016569
2236.25,57.4946724445578
2236.5,57.3797603874586
2236.75,57.2648483303594
2237,57.1499362732602
2237.25,57.0350242161611
2237.5,56.920112159062
2237.75,56.8052001019628
2238,56.6902880448636
2238.25,56.6096354830487
2238.5,56.6546010706092
2238.75,56.6995666581698
2239,56.7445322457303
2239.25,56.7894978332908
2239.5,56.8344634208514
2239.75,56.8794290084119
2240,56.9243945959725
2240.25,56.969360183533
2240.5,57.0143257710936
2240.75,57.0592913586541
2241,57.1042569462146
2241.25,57.1492225337752
2241.5,57.1941881213357
2241.75,57.2391537088962
2242,57.2841192964568
2242.25,57.3290848840173
2242.5,57.3740504715779
2242.75,57.4190160591384
2243,57.4639816466989
2243.25,57.5019882742799
2243.5,57.5119806270711
2243.75,57.5219729798623
2244,57.5319653326536
2244.25,57.5419576854448
2244.5,57.551950038236
2244.75,57.5619423910273
2245,57.5719347438185
2245.25,57.5819270966097
2245.5,57.591919449401
2245.75,57.6019118021922
2246,57.6119041549834
2246.25,57.6218965077747
2246.5,57.6318888605659
2246.75,57.6418812133571
2247,57.6518735661484
2247.25,57.6618659189396
2247.5,57.6718582717308
2247.75,57.681850624522
2248,57.6918429773133
2248.25,57.6908233494774
2248.5,57.6408615855213
2248.75,57.5908998215652
2249,57.540938057609
2249.25,57.4909762936528
2249.5,57.4410145296967
2249.75,57.3910527657405
2250,57.3410910017843
2250.25,57.2911292378282
2250.5,57.2411674738721
2250.75,57.1912057099159
2251,57.1412439459597
2251.25,57.0912821820036
2251.5,57.0413204180474
2251.75,56.9913586540913
2252,56.9413968901351
2252.25,56.8914351261789
2252.5,56.8414733622228
2252.75,56.7915115982667
2253,56.7415498343105
2253.25,56.7235534030079
2253.5,56.8634463420851
2253.75,57.0033392811624
2254,57.1432322202396
2254.25,57.2831251593169
2254.5,57.423018098394
2254.75,57.5629110374713
2255,57.7028039765485
2255.25,57.8426969156258
2255.5,57.982589854703
2255.75,58.1224827937803
2256,58.2623757328575
2256.25,58.4022686719347
2256.5,58.5421616110119
2256.75,58.6820545500892
2257,58.8219474891664
2257.25,58.9618404282437
2257.5,59.1017333673209
2257.75,59.2416263063982
2258,59.3815192454754
2258.25,59.5091766505225
2258.5,59.5691307672699
2258.75,59.6290848840173
2259,59.6890390007647
2259.25,59.7489931175121
2259.5,59.8089472342595
2259.75,59.8689013510069
2260,59.9288554677542
2260.25,59.9888095845016
2260.5,60.048763701249
2260.75,60.1087178179964
2261,60.1686719347438
2261.25,60.2286260514912
2261.5,60.2885801682386
2261.75,60.348534284986
2262,60.4084884017333
2262.25,60.4684425184807
2262.5,60.5283966352281
2262.75,60.5883507519755
2263,60.6483048687229
2263.25,60.6986235024216
2263.5,60.6886311496304
2263.75,60.6786387968392
2264,60.6686464440479
2264.25,60.6586540912567
2264.5,60.6486617384655
2264.75,60.6386693856742
2265,60.628677032883
2265.25,60.6186846800918
2265.5,60.6086923273005
2265.75,60.5986999745093
2266,60.5887076217181
2266.25,60.5787152689268
2266.5,60.5687229161356
2266.75,60.5587305633444
2267,60.5487382105531
2267.25,60.5387458577619
2267.5,60.5287535049707
2267.75,60.5187611521795
2268,60.5087687993882
2268.25,60.5122355340301
2268.5,60.6121590619424
2268.75,60.7120825898547
2269,60.812006117767
2269.25,60.9119296456794
2269.5,61.0118531735916
2269.75,61.1117767015039
2270,61.2117002294162
2270.25,61.3116237573286
2270.5,61.4115472852409
2270.75,61.5114708131532
2271,61.6113943410655
2271.25,61.7113178689778
2271.5,61.8112413968901
2271.75,61.9111649248024
2272,62.0110884527147
2272.25,62.1110119806271
2272.5,62.2109355085394
2272.75,62.3108590364517
2273,62.410782564364
2273.25,62.5058883507519
2273.5,62.5608462911037
2273.75,62.6158042314555
2274,62.6707621718073
2274.25,62.7257201121591
2274.5,62.7806780525108
2274.75,62.8356359928626
2275,62.8905939332144
2275.25,62.9455518735661
2275.5,63.0005098139179
2275.75,63.0554677542697
2276,63.1104256946215
2276.25,63.1653836349732
2276.5,63.220341575325
2276.75,63.2752995156768
2277,63.3302574560285
2277.25,63.3852153963803
2277.5,63.4401733367321
2277.75,63.4951312770839
2278,63.5500892174356
2278.25,63.5949528422126
2278.5,63.5399949018608
2278.75,63.485036961509
2279,63.4300790211573
2279.25,63.3751210808055
2279.5,63.3201631404538
2279.75,63.265205200102
2280,63.2102472597502
2280.25,63.1552893193984
2280.5,63.1003313790466
2280.75,63.0453734386949
2281,62.9904154983431
2281.25,62.9354575579913
2281.5,62.8804996176396
2281.75,62.8255416772878
2282,62.770583736936
2282.25,62.7156257965842
2282.5,62.6606678562325
2282.75,62.6057099158807
2283,62.550751975529
2283.25,62.5026765230691
2283.5,62.5376497578384
2283.75,62.5726229926077
2284,62.607596227377
2284.25,62.6425694621463
2284.5,62.6775426969156
2284.75,62.7125159316849
2285,62.7474891664542
2285.25,62.7824624012235
2285.5,62.8174356359929
2285.75,62.8524088707622
2286,62.8873821055315
2286.25,62.9223553403008
2286.5,62.9573285750701
2286.75,62.9923018098394
2287,63.0272750446087
2287.25,63.062248279378
2287.5,63.0972215141473
2287.75,63.1321947489167
2288,63.167167983686
2288.25,63.1966352281418
2288.5,63.14167728779
2288.75,63.0867193474382
2289,63.0317614070864
2289.25,62.9768034667347
2289.5,62.9218455263829
2289.75,62.8668875860311
2290,62.8119296456793
2290.25,62.7569717053276
2290.5,62.7020137649758
2290.75,62.647055824624
2291,62.5920978842722
2291.25,62.5371399439205
2291.5,62.4821820035687
2291.75,62.4272240632169
2292,62.3722661228652
2292.25,62.3173081825134
2292.5,62.2623502421616
2292.75,62.2073923018099
2293,62.1524343614581
2293.25,62.0977058373694
2293.5,62.0477440734132
2293.75,61.997782309457
2294,61.9478205455009
2294.25,61.8978587815448
2294.5,61.8478970175886
2294.75,61.7979352536324
2295,61.7479734896763
2295.25,61.6980117257201
2295.5,61.6480499617639
2295.75,61.5980881978078
2296,61.5481264338517
2296.25,61.4981646698955
2296.5,61.4482029059393
2296.75,61.3982411419832
2297,61.348279378027
2297.25,61.2983176140709
2297.5,61.2483558501147
2297.75,61.1983940861586
2298,61.1484323222024
2298.25,61.1019882742799
2298.5,61.1669385674229
2298.75,61.2318888605659
2299,61.2968391537089
2299.25,61.3617894468519
2299.5,61.4267397399949
2299.75,61.4916900331379
2300,61.5566403262809
2300.25,61.6215906194239
2300.5,61.6865409125669
2300.75,61.7514912057099
2301,61.8164414988529
2301.25,61.8813917919959
2301.5,61.9463420851389
2301.75,62.0112923782819
2302,62.0762426714249
2302.25,62.1411929645679
2302.5,62.2061432577109
2302.75,62.2710935508539
2303,62.336043843997
2303.25,62.4000764720877
2303.5,62.4050726484833
2303.75,62.4100688248789
2304,62.4150650012745
2304.25,62.4200611776701
2304.5,62.4250573540658
2304.75,62.4300535304614
2305,62.435049706857
2305.25,62.4400458832526
2305.5,62.4450420596482
2305.75,62.4500382360438
2306,62.4550344124395
2306.25,62.4600305888351
2306.5,62.4650267652307
2306.75,62.4700229416263
2307,62.4750191180219
2307.25,62.4800152944175
2307.5,62.4850114708131
2307.75,62.4900076472088
2308,62.4950038236044
2308.25,62.5
2308.5,62.5399694111649
2308.75,62.5799388223299
2309,62.6199082334948
2309.25,62.6598776446597
2309.5,62.6998470558246
2309.75,62.7398164669895
2310,62.7797858781545
2310.25,62.8197552893194
2310.5,62.8597247004843
2310.75,62.8996941116493
2311,62.9396635228142
2311.25,62.9796329339791
2311.5,63.019602345144
2311.75,63.0595717563089
2312,63.0995411674739
2312.25,63.1395105786388
2312.5,63.1794799898037
2312.75,63.2194494009686
2313,63.2594188121336
2313.25,63.2993882232985
2313.5,63.2508029569207
2313.75,63.2008411929646
2314,63.1508794290084
2314.25,63.1009176650522
2314.5,63.0509559010961
2314.75,63.00099413714
2315,62.9510323731838
2315.25,62.9010706092276
2315.5,62.8511088452715
2315.75,62.8011470813153
2316,62.7511853173592
2316.25,62.701223553403
2316.5,62.6512617894469
2316.75,62.6013000254907
2317,62.5513382615346
2317.25,62.5013764975784
2317.5,62.4514147336222
2317.75,62.4014529696661
2318,62.3514912057099
2318.25,62.3015294417537
2318.5,62.2757838388988
2318.75,62.2508029569207
2319,62.2258220749426
2319.25,62.2008411929646
2319.5,62.1758603109865
2319.75,62.1508794290084
2320,62.1258985470303
2320.25,62.1009176650522
2320.5,62.0759367830742
2320.75,62.0509559010961
2321,62.025975019118
2321.25,62.0009941371399
2321.5,61.9760132551619
2321.75,61.9510323731838
2322,61.9260514912057
2322.25,61.9010706092276
2322.5,61.8760897272496
2322.75,61.8511088452715
2323,61.8261279632934
2323.25,61.8011470813153
2323.5,61.6331633953607
2323.75,61.4582972215141
2324,61.2834310476675
2324.25,61.1085648738211
2324.5,60.9336986999746
2324.75,60.758832526128
2325,60.5839663522814
2325.25,60.4091001784349
2325.5,60.2342340045883
2325.75,60.0593678307417
2326,59.8845016568953
2326.25,59.7096354830488
2326.5,59.5347693092022
2326.75,59.3599031353556
2327,59.1850369615091
2327.25,59.0101707876625
2327.5,58.8353046138159
2327.75,58.6604384399694
2328,58.4855722661229
2328.25,58.3107060922764
2328.5,58.4125669130767
2328.75,58.5324751465715
2329,58.6523833800663
2329.25,58.7722916135611
2329.5,58.8921998470558
2329.75,59.0121080805505
2330,59.1320163140453
2330.25,59.2519245475401
2330.5,59.3718327810349
2330.75,59.4917410145297
2331,59.6116492480245
2331.25,59.7315574815193
2331.5,59.8514657150141
2331.75,59.9713739485087
2332,60.0912821820035
2332.25,60.2111904154983
2332.5,60.3310986489931
2332.75,60.4510068824879
2333,60.5709151159827
2333.25,60.6908233494775
2333.5,60.7507519755289
2333.75,60.8057099158807
2334,60.8606678562325
2334.25,60.9156257965842
2334.5,60.970583736936
2334.75,61.0255416772878
2335,61.0804996176396
2335.25,61.1354575579914
2335.5,61.1904154983431
2335.75,61.2453734386949
2336,61.3003313790466
2336.25,61.3552893193984
2336.5,61.4102472597502
2336.75,61.465205200102
2337,61.5201631404537
2337.25,61.5751210808055
2337.5,61.6300790211573
2337.75,61.685036961509
2338,61.7399949018608
2338.25,61.7949528422126
2338.5,61.8589854703033
2338.75,61.9239357634464
2339,61.9888860565894
2339.25,62.0538363497323
2339.5,62.1187866428753
2339.75,62.1837369360183
2340,62.2486872291613
2340.25,62.3136375223044
2340.5,62.3785878154474
2340.75,62.4435381085904
2341,62.5084884017334
2341.25,62.5734386948763
2341.5,62.6383889880194
2341.75,62.7033392811624
2342,62.7682895743054
2342.25,62.8332398674484
2342.5,62.8981901605914
2342.75,62.9631404537344
2343,63.0280907468774
2343.25,63.0930410400204
2343.5,63.0910782564364
2343.75,63.0810859036452
2344,63.0710935508539
2344.25,63.0611011980627
2344.5,63.0511088452715
2344.75,63.0411164924802
2345,63.031124139689
2345.25,63.0211317868978
2345.5,63.0111394341066
2345.75,63.0011470813153
2346,62.9911547285241
2346.25,62.9811623757329
2346.5,62.9711700229416
2346.75,62.9611776701504
2347,62.9511853173592
2347.25,62.9411929645679
2347.5,62.9312006117767
2347.75,62.9212082589855
2348,62.9112159061942
2348.25,62.901223553403
2348.5,62.8254652052001
2348.75,62.7405302064747
2349,62.6555952077492
2349.25,62.5706602090237
2349.5,62.4857252102982
2349.75,62.4007902115728
2350,62.3158552128473
2350.25,62.2309202141218
2350.5,62.1459852153964
2350.75,62.0610502166709
2351,61.9761152179455
2351.25,61.89118021922
2351.5,61.8062452204945
2351.75,61.7213102217691
2352,61.6363752230436
2352.25,61.5514402243181
2352.5,61.4665052255927
2352.75,61.3815702268672
2353,61.2966352281418
2353.25,61.2117002294163
2353.5,61.2560030588835
2353.75,61.3209533520265
2354,61.3859036451695
2354.25,61.4508539383125
2354.5,61.5158042314555
2354.75,61.5807545245985
2355,61.6457048177415
2355.25,61.7106551108845
2355.5,61.7756054040275
2355.75,61.8405556971705
2356,61.9055059903136
2356.25,61.9704562834565
2356.5,62.0354065765995
2356.75,62.1003568697425
2357,62.1653071628855
2357.25,62.2302574560285
2357.5,62.2952077491716
2357.75,62.3601580423146
2358,62.4251083354575
2358.25,62.4900586286005
2358.5,62.3180474126944
2358.75,62.1032118276829
2359,61.8883762426714
2359.25,61.6735406576599
2359.5,61.4587050726484
2359.75,61.243869487637
2360,61.0290339026257
2360.25,60.8141983176142
2360.5,60.5993627326027
2360.75,60.3845271475912
2361,60.1696915625797
2361.25,59.9548559775682
2361.5,59.7400203925567
2361.75,59.5251848075454
2362,59.3103492225339
2362.25,59.0955136375224
2362.5,58.8806780525109
2362.75,58.6658424674994
2363,58.4510068824879
2363.25,58.2361712974764
2363.5,58.2914096354831
2363.75,58.4013255161865
2364,58.5112413968901
2364.25,58.6211572775936
2364.5,58.7310731582972
2364.75,58.8409890390008
2365,58.9509049197043
2365.25,59.0608208004079
2365.5,59.1707366811114
2365.75,59.2806525618149
2366,59.3905684425184
2366.25,59.500484323222
2366.5,59.6104002039256
2366.75,59.7203160846291
2367,59.8302319653327
2367.25,59.9401478460362
2367.5,60.0500637267397
2367.75,60.1599796074432
2368,60.2698954881468
2368.25,60.3798113688503
2368.5,60.4611776701504
2368.75,60.5361203160846
2369,60.6110629620189
2369.25,60.6860056079531
2369.5,60.7609482538873
2369.75,60.8358908998215
2370,60.9108335457558
2370.25,60.98577619169
2370.5,61.0607188376243
2370.75,61.1356614835585
2371,61.2106041294928
2371.25,61.2855467754269
2371.5,61.3604894213612
2371.75,61.4354320672954
2372,61.5103747132297
2372.25,61.5853173591639
2372.5,61.6602600050981
2372.75,61.7352026510324
2373,61.8101452969666
2373.25,61.8850879429008
2373.5,61.8919959214887
2373.75,61.8820035686974
2374,61.8720112159062
2374.25,61.862018863115
2374.5,61.8520265103237
2374.75,61.8420341575325
2375,61.8320418047413
2375.25,61.82204945195
2375.5,61.8120570991588
2375.75,61.8020647463676
2376,61.7920723935763
2376.25,61.7820800407851
2376.5,61.7720876879939
2376.75,61.7620953352027
2377,61.7521029824114
2377.25,61.7421106296202
2377.5,61.732118276829
2377.75,61.7221259240377
2378,61.7121335712465
2378.25,61.7021412184553
2378.5,61.6411164924802
2378.75,61.5661738465461
2379,61.4912312006118
2379.25,61.4162885546776
2379.5,61.3413459087433
2379.75,61.2664032628091
2380,61.1914606168748
2380.25,61.1165179709406
2380.5,61.0415753250064
2380.75,60.9666326790722
2381,60.8916900331379
2381.25,60.8167473872037
2381.5,60.7418047412694
2381.75,60.6668620953352
2382,60.591919449401
2382.25,60.5169768034667
2382.5,60.4420341575325
2382.75,60.3670915115983
2383,60.2921488656641
2383.25,60.2172062197298
2383.5,60.1461126688759
2383.75,60.0761661993372
2384,60.0062197297986
2384.25,59.93627326026
2384.5,59.8663267907214
2384.75,59.7963803211828
2385,59.7264338516442
2385.25,59.6564873821055
2385.5,59.5865409125669
2385.75,59.5165944430283
2386,59.4466479734897
2386.25,59.376701503951
2386.5,59.3067550344125
2386.75,59.2368085648738
2387,59.1668620953352
2387.25,59.0969156257966
2387.5,59.026969156258
2387.75,58.9570226867193
2388,58.8870762171807
2388.25,58.8171297476421
2388.5,58.7471832781035
2388.75,58.6772368085649
2389,58.6072903390263
2389.25,58.5373438694876
2389.5,58.467397399949
2389.75,58.3974509304104
2390,58.3275044608718
2390.25,58.2575579913332
2390.5,58.1876115217946
2390.75,58.1176650522559
2391,58.0477185827173
2391.25,57.9777721131787
2391.5,57.9078256436401
2391.75,57.8378791741014
2392,57.7679327045629
2392.25,57.6979862350242
2392.5,57.6280397654856
2392.75,57.558093295947
2393,57.4881468264084
2393.25,57.4182003568697
2393.5,57.4997960744329
2393.75,57.6346928371145
2394,57.769589599796
2394.25,57.9044863624776
2394.5,58.0393831251593
2394.75,58.1742798878409
2395,58.3091766505226
2395.25,58.4440734132042
2395.5,58.5789701758858
2395.75,58.7138669385674
2396,58.848763701249
2396.25,58.9836604639306
2396.5,59.1185572266124
2396.75,59.2534539892938
2397,59.3883507519754
2397.25,59.5232475146571
2397.5,59.6581442773387
2397.75,59.7930410400203
2398,59.927937802702
2398.25,60.0628345653836
2398.5,60.147055824624
2398.75,60.212006117767
2399,60.27695641091
2399.25,60.341906704053
2399.5,60.406856997196
2399.75,60.4718072903391
2400,60.5367575834821
2400.25,60.6017078766251
2400.5,60.666658169768
2400.75,60.731608462911
2401,60.796558756054
2401.25,60.861509049197
2401.5,60.92645934234
2401.75,60.991409635483
2402,61.056359928626
2402.25,61.121310221769
2402.5,61.1862605149121
2402.75,61.2512108080551
2403,61.3161611011981
2403.25,61.3811113943411
2403.5,61.4035432067295
2403.75,61.4085393831252
2404,61.4135355595208
2404.25,61.4185317359164
2404.5,61.423527912312
2404.75,61.4285240887076
2405,61.4335202651032
2405.25,61.4385164414988
2405.5,61.4435126178945
2405.75,61.4485087942901
2406,61.4535049706857
2406.25,61.4585011470813
2406.5,61.4634973234769
2406.75,61.4684934998725
2407,61.4734896762682
2407.25,61.4784858526638
2407.5,61.4834820290594
2407.75,61.488478205455
2408,61.4934743818506
2408.25,61.4984705582462
2408.5,61.3231965332656
2408.75,61.0683915370891
2409,60.8135865409127
2409.25,60.5587815447363
2409.5,60.3039765485598
2409.75,60.0491715523834
2410,59.794366556207
2410.25,59.5395615600306
2410.5,59.2847565638541
2410.75,59.0299515676777
2411,58.7751465715013
2411.25,58.5203415753249
2411.5,58.2655365791484
2411.75,58.0107315829725
2412,57.7559265867961
2412.25,57.5011215906196
2412.5,57.2463165944432
2412.75,56.9915115982668
2413,56.7367066020903
2413.25,56.4819016059139
2413.5,56.4745857761917
2413.75,56.5845016568952
2414,56.6944175375988
2414.25,56.8043334183023
2414.5,56.9142492990059
2414.75,57.0241651797094
2415,57.134081060413
2415.25,57.2439969411166
2415.5,57.3539128218199
2415.75,57.4638287025235
2416,57.573744583227
2416.25,57.6836604639306
2416.5,57.7935763446341
2416.75,57.9034922253377
2417,58.0134081060413
2417.25,58.1233239867448
2417.5,58.2332398674484
2417.75,58.3431557481519
2418,58.4530716288555
2418.25,58.562987509559
2418.5,58.5966862095335
2418.75,58.5916900331379
2419,58.5866938567423
2419.25,58.5816976803467
2419.5,58.5767015039511
2419.75,58.5717053275554
2420,58.5667091511598
2420.25,58.5617129747642
2420.5,58.5567167983686
2420.75,58.551720621973
2421,58.5467244455774
2421.25,58.5417282691817
2421.5,58.5367320927861
2421.75,58.5317359163905
2422,58.5267397399949
2422.25,58.5217435635993
2422.5,58.5167473872037
2422.75,58.5117512108081
2423,58.5067550344124
2423.25,58.5017588580168
2423.5,58.5874075962273
2423.75,58.7223043589089
2424,58.8572011215905
2424.25,58.9920978842722
2424.5,59.1269946469538
2424.75,59.2618914096355
2425,59.3967881723171
2425.25,59.5316849349987
2425.5,59.6665816976804
2425.75,59.801478460362
2426,59.9363752230436
2426.25,60.0712719857253
2426.5,60.2061687484069
2426.75,60.3410655110886
2427,60.47596227377
2427.25,60.6108590364516
2427.5,60.7457557991332
2427.75,60.8806525618149
2428,61.0155493244965
2428.25,61.1504460871781
2428.5,61.1873566148356
2428.75,61.1673719092531
2429,61.1473872036707
2429.25,61.1274024980882
2429.5,61.1074177925057
2429.75,61.0874330869233
2430,61.0674483813408
2430.25,61.0474636757583
2430.5,61.0274789701759
2430.75,61.0074942645934
2431,60.987509559011
2431.25,60.9675248534285
2431.5,60.947540147846
2431.75,60.9275554422636
2432,60.9075707366811
2432.25,60.8875860310987
2432.5,60.8676013255162
2432.75,60.8476166199337
2433,60.8276319143513
2433.25,60.8076472087688
2433.5,60.8154218710171
2433.75,60.8404027529952
2434,60.8653836349732
2434.25,60.8903645169513
2434.5,60.9153453989294
2434.75,60.9403262809074
2435,60.9653071628855
2435.25,60.9902880448636
2435.5,61.0152689268417
2435.75,61.0402498088198
2436,61.0652306907978
2436.25,61.0902115727759
2436.5,61.115192454754
2436.75,61.1401733367321
2437,61.1651542187102
2437.25,61.1901351006883
2437.5,61.2151159826663
2437.75,61.2400968646444
2438,61.2650777466225
2438.25,61.2900586286005
2438.5,61.333086923273
2438.75,61.3880448636247
2439,61.4430028039765
2439.25,61.4979607443283
2439.5,61.5529186846801
2439.75,61.6078766250318
2440,61.6628345653836
2440.25,61.7177925057354
2440.5,61.7727504460872
2440.75,61.827708386439
2441,61.8826663267907
2441.25,61.9376242671425
2441.5,61.9925822074943
2441.75,62.0475401478461
2442,62.1024980881977
2442.25,62.1574560285495
2442.5,62.2124139689013
2442.75,62.2673719092531
2443,62.3223298496049
2443.25,62.3772877899566
2443.5,62.3120570991588
2443.75,62.1621718072904
2444,62.0122865154219
2444.25,61.8624012235534
2444.5,61.7125159316849
2444.75,61.5626306398164
2445,61.4127453479479
2445.25,61.2628600560794
2445.5,61.112974764211
2445.75,60.9630894723427
2446,60.8132041804743
2446.25,60.6633188886058
2446.5,60.5134335967373
2446.75,60.3635483048688
2447,60.2136630130003
2447.25,60.0637777211318
2447.5,59.9138924292633
2447.75,59.7640071373949
2448,59.6141218455264
2448.25,59.4642365536579
2448.5,59.4199847055825
2448.75,59.4549579403518
2449,59.4899311751211
2449.25,59.5249044098904
2449.5,59.5598776446597
2449.75,59.594850879429
2450,59.6298241141983
2450.25,59.6647973489676
2450.5,59.6997705837369
2450.75,59.7347438185062
2451,59.7697170532755
2451.25,59.8046902880449
2451.5,59.8396635228142
2451.75,59.8746367575835
2452,59.9096099923528
2452.25,59.9445832271221
2452.5,59.9795564618914
2452.75,60.0145296966607
2453,60.0495029314301
2453.25,60.0844761661993
2453.5,60.1111139434106
2453.75,60.1310986489931
2454,60.1510833545756
2454.25,60.171068060158
2454.5,60.1910527657405
2454.75,60.211037471323
2455,60.2310221769054
2455.25,60.2510068824879
2455.5,60.2709915880704
2455.75,60.2909762936528
2456,60.3109609992353
2456.25,60.3309457048178
2456.5,60.3509304104002
2456.75,60.3709151159827
2457,60.3908998215651
2457.25,60.4108845271476
2457.5,60.43086923273
2457.75,60.4508539383125
2458,60.470838643895
2458.25,60.4908233494774
2458.5,60.5837624267142
2458.75,60.7386438949783
2459,60.8935253632424
2459.25,61.0484068315065
2459.5,61.2032882997706
2459.75,61.3581697680347
2460,61.5130512362988
2460.25,61.6679327045629
2460.5,61.822814172827
2460.75,61.9776956410911
2461,62.1325771093549
2461.25,62.287458577619
2461.5,62.4423400458831
2461.75,62.5972215141473
2462,62.7521029824114
2462.25,62.9069844506755
2462.5,63.0618659189396
2462.75,63.2167473872037
2463,63.3716288554678
2463.25,63.5265103237319
2463.5,63.6131277083865
2463.75,63.6381085903645
2464,63.6630894723426
2464.25,63.6880703543207
2464.5,63.7130512362988
2464.75,63.7380321182768
2465,63.7630130002549
2465.25,63.787993882233
2465.5,63.812974764211
2465.75,63.8379556461891
2466,63.8629365281672
2466.25,63.8879174101453
2466.5,63.9128982921234
2466.75,63.9378791741015
2467,63.9628600560795
2467.25,63.9878409380576
2467.5,64.0128218200357
2467.75,64.0378027020138
2468,64.0627835839919
2468.25,64.0877644659699
2468.5,64.0923527912312
2468.75,64.0773642620444
2469,64.0623757328575
2469.25,64.0473872036707
2469.5,64.0323986744838
2469.75,64.017410145297
2470,64.0024216161101
2470.25,63.9874330869233
2470.5,63.9724445577364
2470.75,63.9574560285496
2471,63.9424674993627
2471.25,63.9274789701759
2471.5,63.912490440989
2471.75,63.8975019118022
2472,63.8825133826153
2472.25,63.8675248534285
2472.5,63.8525363242417
2472.75,63.8375477950548
2473,63.822559265868
2473.25,63.8075707366811
2473.5,63.7480754524599
2473.75,63.6431557481519
2474,63.538236043844
2474.25,63.4333163395361
2474.5,63.3283966352281
2474.75,63.2234769309202
2475,63.1185572266122
2475.25,63.0136375223043
2475.5,62.9087178179964
2475.75,62.8037981136884
2476,62.6988784093807
2476.25,62.5939587050727
2476.5,62.4890390007648
2476.75,62.3841192964569
2477,62.2791995921489
2477.25,62.174279887841
2477.5,62.069360183533
2477.75,61.9644404792251
2478,61.8595207749172
2478.25,61.7546010706092
2478.5,61.6928116237573
2478.75,61.6778230945705
2479,61.6628345653836
2479.25,61.6478460361968
2479.5,61.6328575070099
2479.75,61.6178689778231
2480,61.6028804486363
2480.25,61.5878919194494
2480.5,61.5729033902626
2480.75,61.5579148610757
2481,61.5429263318889
2481.25,61.527937802702
2481.5,61.5129492735152
2481.75,61.4979607443283
2482,61.4829722151415
2482.25,61.4679836859546
2482.5,61.4529951567678
2482.75,61.4380066275809
2483,61.4230180983941
2483.25,61.4080295692072
2483.5,61.3907213866939
2483.75,61.3707366811114
2484,61.3507519755289
2484.25,61.3307672699465
2484.5,61.310782564364
2484.75,61.2907978587816
2485,61.2708131531991
2485.25,61.2508284476166
2485.5,61.2308437420342
2485.75,61.2108590364517
2486,61.1908743308692
2486.25,61.1708896252868
2486.5,61.1509049197043
2486.75,61.1309202141218
2487,61.1109355085394
2487.25,61.0909508029569
2487.5,61.0709660973745
2487.75,61.050981391792
2488,61.0309966862095
2488.25,61.0110119806271
2488.5,60.9955136375223
2488.75,60.9855212847311
2489,60.9755289319398
2489.25,60.9655365791486
2489.5,60.9555442263574
2489.75,60.9455518735661
2490,60.9355595207749
2490.25,60.9255671679837
2490.5,60.9155748151925
2490.75,60.9055824624012
2491,60.89559010961
2491.25,60.8855977568188
2491.5,60.8756054040275
2491.75,60.8656130512363
2492,60.8556206984451
2492.25,60.8456283456538
2492.5,60.8356359928626
2492.75,60.8256436400714
2493,60.8156512872801
2493.25,60.8056589344889
2493.5,60.8043334183023
2493.75,60.8143257710936
2494,60.8243181238848
2494.25,60.834310476676
2494.5,60.8443028294672
2494.75,60.8542951822585
2495,60.8642875350497
2495.25,60.8742798878409
2495.5,60.8842722406322
2495.75,60.8942645934234
2496,60.9042569462146
2496.25,60.9142492990059
2496.5,60.9242416517971
2496.75,60.9342340045883
2497,60.9442263573796
2497.25,60.9542187101708
2497.5,60.964211062962
2497.75,60.9742034157533
2498,60.9841957685445
2498.25,60.9941881213357
2498.5,61.0250828447616
2498.75,61.085036961509
2499,61.1449910782564
2499.25,61.2049451950038
2499.5,61.2648993117512
2499.75,61.3248534284986
2500,61.384807545246
2500.25,61.4447616619934
2500.5,61.5047157787408
2500.75,61.5646698954882
2501,61.6246240122355
2501.25,61.6845781289829
2501.5,61.7445322457303
2501.75,61.8044863624777
2502,61.8644404792251
2502.25,61.9243945959724
2502.5,61.9843487127198
2502.75,62.0443028294672
2503,62.1042569462146
2503.25,62.164211062962
2503.5,62.1859036451695
2503.75,62.1509304104002
2504,62.1159571756309
2504.25,62.0809839408616
2504.5,62.0460107060923
2504.75,62.011037471323
2505,61.9760642365536
2505.25,61.9410910017843
2505.5,61.906117767015
2505.75,61.8711445322457
2506,61.8361712974764
2506.25,61.8011980627071
2506.5,61.7662248279378
2506.75,61.7312515931685
2507,61.6962783583992
2507.25,61.6613051236299
2507.5,61.6263318888606
2507.75,61.5913586540913
2508,61.5563854193219
2508.25,61.5214121845526
2508.5,61.5038745857762
2508.75,61.5138669385674
2509,61.5238592913587
2509.25,61.5338516441499
2509.5,61.5438439969411
2509.75,61.5538363497324
2510,61.5638287025236
2510.25,61.5738210553148
2510.5,61.583813408106
2510.75,61.5938057608973
2511,61.6037981136885
2511.25,61.6137904664797
2511.5,61.623782819271
2511.75,61.6337751720622
2512,61.6437675248534
2512.25,61.6537598776447
2512.5,61.6637522304359
2512.75,61.6737445832271
2513,61.6837369360184
2513.25,61.6937292888096
2513.5,61.6981391791996
2513.75,61.693143002804
2514,61.6881468264084
2514.25,61.6831506500127
2514.5,61.6781544736171
2514.75,61.6731582972215
2515,61.6681621208259
2515.25,61.6631659444303
2515.5,61.6581697680347
2515.75,61.6531735916391
2516,61.6481774152434
2516.25,61.6431812388478
2516.5,61.6381850624522
2516.75,61.6331888860566
2517,61.628192709661
2517.25,61.6231965332654
2517.5,61.6182003568698
2517.75,61.6132041804741
2518,61.6082080040785
2518.25,61.6032118276829
2518.5,61.6339026255416
2518.75,61.7288299770583
2519,61.823757328575
2519.25,61.9186846800918
2519.5,62.0136120316085
2519.75,62.1085393831252
2520,62.2034667346419
2520.25,62.2983940861586
2520.5,62.3933214376753
2520.75,62.488248789192
2521,62.5831761407087
2521.25,62.6781034922252
2521.5,62.773030843742
2521.75,62.8679581952587
2522,62.9628855467754
2522.25,63.0578128982921
2522.5,63.1527402498088
2522.75,63.2476676013255
2523,63.3425949528422
2523.25,63.4375223043589
2523.5,63.4863369869997
2523.75,63.4463675758348
2524,63.4063981646699
2524.25,63.366428753505
2524.5,63.32645934234
2524.75,63.2864899311751
2525,63.2465205200102
2525.25,63.2065511088453
2525.5,63.1665816976804
2525.75,63.1266122865154
2526,63.0866428753505
2526.25,63.0466734641856
2526.5,63.0067040530207
2526.75,62.9667346418557
2527,62.9267652306908
2527.25,62.8867958195259
2527.5,62.8468264083609
2527.75,62.806856997196
2528,62.7668875860311
2528.25,62.7269181748662
2528.5,62.7081570226867
2528.75,62.7331379046648
2529,62.7581187866429
2529.25,62.7830996686209
2529.5,62.808080550599
2529.75,62.8330614325771
2530,62.8580423145552
2530.25,62.8830231965333
2530.5,62.9080040785113
2530.75,62.9329849604894
2531,62.9579658424675
2531.25,62.9829467244456
2531.5,63.0079276064237
2531.75,63.0329084884017
2532,63.0578893703798
2532.25,63.0828702523579
2532.5,63.1078511343359
2532.75,63.132832016314
2533,63.1578128982921
2533.25,63.1827937802702
2533.5,63.1922253377517
2533.75,63.1672444557737
2534,63.1422635737956
2534.25,63.1172826918175
2534.5,63.0923018098394
2534.75,63.0673209278613
2535,63.0423400458833
2535.25,63.0173591639052
2535.5,62.9923782819271
2535.75,62.967397399949
2536,62.9424165179709
2536.25,62.9174356359929
2536.5,62.8924547540148
2536.75,62.8674738720367
2537,62.8424929900586
2537.25,62.8175121080806
2537.5,62.7925312261025
2537.75,62.7675503441244
2538,62.7425694621463
2538.25,62.7175885801682
2538.5,62.6970430792761
2538.75,62.6870507264848
2539,62.6770583736936
2539.25,62.6670660209024
2539.5,62.6570736681111
2539.75,62.6470813153199
2540,62.6370889625287
2540.25,62.6270966097375
2540.5,62.6171042569462
2540.75,62.607111904155
2541,62.5971195513638
2541.25,62.5871271985725
2541.5,62.5771348457813
2541.75,62.5671424929901
2542,62.5571501401988
2542.25,62.5471577874076
2542.5,62.5371654346164
2542.75,62.5271730818251
2543,62.5171807290339
2543.25,62.5071883762427
2543.5,62.49018608208
2543.75,62.4552128473108
2544,62.4202396125415
2544.25,62.3852663777721
2544.5,62.3502931430028
2544.75,62.3153199082335
2545,62.2803466734642
2545.25,62.2453734386949
2545.5,62.2104002039256
2545.75,62.1754269691563
2546,62.1404537343869
2546.25,62.1054804996176
2546.5,62.0705072648483
2546.75,62.035534030079
2547,62.0005607953097
2547.25,61.9655875605404
2547.5,61.9306143257711
2547.75,61.8956410910018
2548,61.8606678562325
2548.25,61.8256946214632
2548.5,61.8145806780525
2548.75,61.8695386184043
2549,61.924496558756
2549.25,61.9794544991078
2549.5,62.0344124394596
2549.75,62.0893703798114
2550,62.1443283201631
2550.25,62.1992862605149
2550.5,62.2542442008667
2550.75,62.3092021412185
2551,62.3641600815703
2551.25,62.419118021922
2551.5,62.4740759622737
2551.75,62.5290339026255
2552,62.5839918429773
2552.25,62.6389497833291
2552.5,62.6939077236808
2552.75,62.7488656640326
2553,62.8038236043844
2553.25,62.8587815447362
2553.5,62.9024980881978
2553.75,62.912490440989
2554,62.9224827937803
2554.25,62.9324751465715
2554.5,62.9424674993627
2554.75,62.952459852154
2555,62.9624522049452
2555.25,62.9724445577364
2555.5,62.9824369105276
2555.75,62.9924292633189
2556,63.0024216161101
2556.25,63.0124139689013
2556.5,63.0224063216926
2556.75,63.0323986744838
2557,63.042391027275
2557.25,63.0523833800663
2557.5,63.0623757328575
2557.75,63.0723680856487
2558,63.08236043844
2558.25,63.0923527912312
2558.5,63.0835839918429
2558.75,63.0136375223043
2559,62.9436910527658
2559.25,62.8737445832272
2559.5,62.8037981136886
2559.75,62.7338516441499
2560,62.6639051746113
2560.25,62.5939587050727
2560.5,62.5240122355341
2560.75,62.4540657659954
2561,62.3841192964568
2561.25,62.3141728269182
2561.5,62.2442263573795
2561.75,62.1742798878409
2562,62.1043334183023
2562.25,62.0343869487637
2562.5,61.964440479225
2562.75,61.8944940096865
2563,61.8245475401479
2563.25,61.7546010706093
2563.5,61.6956156003059
2563.75,61.6756308947234
2564,61.655646189141
2564.25,61.6356614835585
2564.5,61.615676777976
2564.75,61.5956920723936
2565,61.5757073668111
2565.25,61.5557226612287
2565.5,61.5357379556462
2565.75,61.5157532500637
2566,61.4957685444813
2566.25,61.4757838388988
2566.5,61.4557991333164
2566.75,61.4358144277339
2567,61.4158297221514
2567.25,61.395845016569
2567.5,61.3758603109865
2567.75,61.355875605404
2568,61.3358908998216
2568.25,61.3159061942391
2568.5,61.2969411164925
2568.75,61.2819525873056
2569,61.2669640581188
2569.25,61.2519755289319
2569.5,61.2369869997451
2569.75,61.2219984705582
2570,61.2070099413714
2570.25,61.1920214121846
2570.5,61.1770328829977
2570.75,61.1620443538109
2571,61.147055824624
2571.25,61.1320672954372
2571.5,61.1170787662503
2571.75,61.1020902370635
2572,61.0871017078766
2572.25,61.0721131786898
2572.5,61.0571246495029
2572.75,61.0421361203161
2573,61.0271475911292
2573.25,61.0121590619424
2573.5,60.9415243436144
2573.75,60.6317614070862
2574,60.3219984705586
2574.25,60.0122355340304
2574.5,59.7024725975021
2574.75,59.3927096609739
2575,59.0829467244457
2575.25,58.7731837879175
2575.5,58.4634208513893
2575.75,58.1536579148611
2576,57.8438949783329
2576.25,57.5341320418047
2576.5,57.2243691052765
2576.75,56.9146061687483
2577,56.6048432322201
2577.25,56.2950802956919
2577.5,55.9853173591637
2577.75,55.675554422636
2578,55.3657914861078
2578.25,55.0560285495796
2578.5,54.7540657659956
2578.75,54.4892684170279
2579,54.2244710680603
2579.25,53.9596737190926
2579.5,53.6948763701249
2579.75,53.4300790211573
2580,53.1652816721896
2580.25,52.900484323222
2580.5,52.6356869742543
2580.75,52.3708896252867
2581,52.106092276319
2581.25,51.8412949273513
2581.5,51.5764975783842
2581.75,51.3117002294165
2582,51.0469028804488
2582.25,50.7821055314812
2582.5,50.5173081825135
2582.75,50.2525108335459
2583,49.9877134845782
2583.25,49.7229161356105
2583.5,49.5023706347183
2583.75,49.5173591639052
2584,49.532347693092
2584.25,49.5473362222789
2584.5,49.5623247514657
2584.75,49.5773132806526
2585,49.5923018098394
2585.25,49.6072903390262
2585.5,49.6222788682131
2585.75,49.6372673973999
2586,49.6522559265868
2586.25,49.6672444557736
2586.5,49.6822329849605
2586.75,49.6972215141473
2587,49.7122100433342
2587.25,49.727198572521
2587.5,49.7421871017079
2587.75,49.7571756308947
2588,49.7721641600816
2588.25,49.7871526892684
2588.5,49.8356869742545
2588.75,50.0854957940353
2589,50.3353046138157
2589.25,50.5851134335965
2589.5,50.8349222533773
2589.75,51.0847310731581
2590,51.3345398929389
2590.25,51.5843487127197
2590.5,51.8341575325006
2590.75,52.0839663522814
2591,52.3337751720622
2591.25,52.583583991843
2591.5,52.8333928116238
2591.75,53.0832016314046
2592,53.3330104511854
2592.25,53.5828192709662
2592.5,53.832628090747
2592.75,54.0824369105278
2593,54.3322457303082
2593.25,54.582054550089
2593.5,54.833775172062
2593.75,55.0985725210297
2594,55.3633698699973
2594.25,55.628167218965
2594.5,55.8929645679326
2594.75,56.1577619169003
2595,56.422559265868
2595.25,56.6873566148356
2595.5,56.9521539638033
2595.75,57.2169513127709
2596,57.4817486617386
2596.25,57.7465460107063
2596.5,58.0113433596739
2596.75,58.2761407086411
2597,58.5409380576088
2597.25,58.8057354065764
2597.5,59.0705327555441
2597.75,59.3353301045117
2598,59.6001274534794
2598.25,59.8649248024471
2598.5,60.1123374968137
2598.75,60.2222533775172
2599,60.3321692582208
2599.25,60.4420851389243
2599.5,60.5520010196279
2599.75,60.6619169003314
2600,60.771832781035
2600.25,60.8817486617385
2600.5,60.9916645424419
2600.75,61.1015804231455
2601,61.211496303849
2601.25,61.3214121845526
2601.5,61.4313280652561
2601.75,61.5412439459597
2602,61.6511598266632
2602.25,61.7610757073668
2602.5,61.8709915880704
2602.75,61.9809074687739
2603,62.0908233494775
2603.25,62.200739230181
2603.5,62.3
2603.75,62.3
2604,62.3
2604.25,62.3
2604.5,62.3
2604.75,62.3
2605,62.3
2605.25,62.3
2605.5,62.3
2605.75,62.3
2606,62.3
2606.25,62.3
2606.5,62.3
2606.75,62.3
2607,62.3
2607.25,62.3
2607.5,62.3
2607.75,62.3
2608,62.3
2608.25,62.3
2608.5,62.296329339791
2608.75,62.2513637522305
2609,62.2063981646699
2609.25,62.1614325771094
2609.5,62.1164669895488
2609.75,62.0715014019883
2610,62.0265358144277
2610.25,61.9815702268672
2610.5,61.9366046393066
2610.75,61.8916390517461
2611,61.8466734641856
2611.25,61.801707876625
2611.5,61.7567422890645
2611.75,61.711776701504
2612,61.6668111139434
2612.25,61.6218455263829
2612.5,61.5768799388224
2612.75,61.5319143512618
2613,61.4869487637013
2613.25,61.4419831761407
2613.5,61.4
2613.75,61.4
2614,61.4
2614.25,61.4
2614.5,61.4
2614.75,61.4
2615,61.4
2615.25,61.4
2615.5,61.4
2615.75,61.4
2616,61.4
2616.25,61.4
2616.5,61.4
2616.75,61.4
2617,61.4
2617.25,61.4
2617.5,61.4
2617.75,61.4
2618,61.4
2618.25,61.4
2618.5,61.3987254652052
2618.75,61.3737445832271
2619,61.348763701249
2619.25,61.323782819271
2619.5,61.2988019372929
2619.75,61.2738210553148
2620,61.2488401733367
2620.25,61.2238592913587
2620.5,61.1988784093806
2620.75,61.1738975274025
2621,61.1489166454244
2621.25,61.1239357634463
2621.5,61.0989548814683
2621.75,61.0739739994902
2622,61.0489931175121
2622.25,61.024012235534
2622.5,60.9990313535559
2622.75,60.9740504715779
2623,60.9490695895998
2623.25,60.9240887076217
2623.5,60.9010706092276
2623.75,60.9310476676013
2624,60.961024725975
2624.25,60.9910017843487
2624.5,61.0209788427224
2624.75,61.0509559010961
2625,61.0809329594698
2625.25,61.1109100178435
2625.5,61.1408870762172
2625.75,61.1708641345909
2626,61.2008411929646
2626.25,61.2308182513383
2626.5,61.260795309712
2626.75,61.2907723680856
2627,61.3207494264593
2627.25,61.350726484833
2627.5,61.3807035432067
2627.75,61.4106806015804
2628,61.4406576599541
2628.25,61.4706347183278
2628.5,61.5015294417537
2628.75,61.576472087688
2629,61.6514147336222
2629.25,61.7263573795565
2629.5,61.8013000254907
2629.75,61.876242671425
2630,61.9511853173592
2630.25,62.0261279632934
2630.5,62.1010706092276
2630.75,62.1760132551618
2631,62.250955901096
2631.25,62.3258985470303
2631.5,62.4008411929645
2631.75,62.4757838388988
2632,62.550726484833
2632.25,62.6256691307673
2632.5,62.7006117767015
2632.75,62.7755544226357
2633,62.85049706857
2633.25,62.9254397145042
2633.5,63.0000254906959
2633.75,63.0050216670915
2634,63.0100178434871
2634.25,63.0150140198827
2634.5,63.0200101962784
2634.75,63.025006372674
2635,63.0300025490696
2635.25,63.0349987254652
2635.5,63.0399949018608
2635.75,63.0449910782564
2636,63.0499872546521
2636.25,63.0549834310477
2636.5,63.0599796074433
2636.75,63.0649757838389
2637,63.0699719602345
2637.25,63.0749681366301
2637.5,63.0799643130257
2637.75,63.0849604894214
2638,63.089956665817
2638.25,63.0949528422126
2638.5,63.0999490186082
2638.75,62.9862605149121
2639,62.871348457813
2639.25,62.7564364007138
2639.5,62.6415243436146
2639.75,62.5266122865154
2640,62.4117002294163
2640.25,62.2967881723171
2640.5,62.1818761152179
2640.75,62.0669640581188
2641,61.9520520010196
2641.25,61.8371399439204
2641.5,61.7222278868212
2641.75,61.6073158297221
2642,61.4924037726231
2642.25,61.3774917155239
2642.5,61.2625796584248
2642.75,61.1476676013256
2643,61.0327555442264
2643.25,60.9178434871272
2643.5,60.8029314300281
2643.75,60.6977568187612
2644,60.5928371144532
2644.25,60.4879174101453
2644.5,60.3829977058373
2644.75,60.2780780015294
2645,60.1731582972215
2645.25,60.0682385929135
2645.5,59.9633188886056
2645.75,59.8583991842978
2646,59.7534794799899
2646.25,59.648559775682
2646.5,59.543640071374
2646.75,59.4387203670661
2647,59.3338006627581
2647.25,59.2288809584502
2647.5,59.1239612541423
2647.75,59.0190415498343
2648,58.9141218455264
2648.25,58.8092021412184
2648.5,58.7042824369105
2648.75,58.5945704817741
2649,58.4846546010705
2649.25,58.374738720367
2649.5,58.2648228396636
2649.75,58.1549069589601
2650,58.0449910782565
2650.25,57.935075197553
2650.5,57.8251593168494
2650.75,57.7152434361458
2651,57.6053275554423
2651.25,57.4954116747387
2651.5,57.3854957940352
2651.75,57.2755799133316
2652,57.1656640326281
2652.25,57.0557481519245
2652.5,56.945832271221
2652.75,56.8359163905174
2653,56.7260005098138
2653.25,56.6160846291105
2653.5,56.5061687484069
2653.75,56.5094315574815
2654,56.5194239102727
2654.25,56.529416263064
2654.5,56.5394086158552
2654.75,56.5494009686464
2655,56.5593933214377
2655.25,56.5693856742289
2655.5,56.5793780270201
2655.75,56.5893703798114
2656,56.5993627326026
2656.25,56.6093550853938
2656.5,56.6193474381851
2656.75,56.6293397909763
2657,56.6393321437675
2657.25,56.6493244965587
2657.5,56.65931684935
2657.75,56.6693092021412
2658,56.6793015549324
2658.25,56.6892939077237
2658.5,56.6992862605149
2658.75,56.4819525873057
2659,56.2471322967117
2659.25,56.0123120061177
2659.5,55.7774917155238
2659.75,55.5426714249298
2660,55.3078511343359
2660.25,55.0730308437419
2660.5,54.8382105531479
2660.75,54.6033902625544
2661,54.3685699719604
2661.25,54.1337496813665
2661.5,53.8989293907725
2661.75,53.6641091001786
2662,53.4292888095846
2662.25,53.1944685189906
2662.5,52.9596482283967
2662.75,52.7248279378027
2663,52.4900076472087
2663.25,52.2551873566148
2663.5,52.0203670660208
2663.75,52.0136885036962
2664,52.028677032883
2664.25,52.0436655620699
2664.5,52.0586540912567
2664.75,52.0736426204435
2665,52.0886311496304
2665.25,52.1036196788172
2665.5,52.1186082080041
2665.75,52.1335967371909
2666,52.1485852663778
2666.25,52.1635737955646
2666.5,52.1785623247515
2666.75,52.1935508539383
2667,52.2085393831252
2667.25,52.223527912312
2667.5,52.2385164414989
2667.75,52.2535049706857
2668,52.2684934998726
2668.25,52.2834820290594
2668.5,52.2984705582462
2668.75,52.2192454754015
2669,52.1293143002805
2669.25,52.0393831251594
2669.5,51.9494519500383
2669.75,51.8595207749172
2670,51.7695895997961
2670.25,51.679658424675
2670.5,51.5897272495539
2670.75,51.4997960744328
2671,51.4098648993117
2671.25,51.3199337241906
2671.5,51.2300025490695
2671.75,51.1400713739484
2672,51.0501401988275
2672.25,50.9602090237064
2672.5,50.8702778485853
2672.75,50.7803466734642
2673,50.6904154983432
2673.25,50.6004843232221
2673.5,50.510553148101
2673.75,50.6675758348203
2674,50.8574305378537
2674.25,51.0472852408871
2674.5,51.2371399439205
2674.75,51.4269946469539
2675,51.6168493499873
2675.25,51.8067040530207
2675.5,51.9965587560542
2675.75,52.1864134590872
2676,52.3762681621206
2676.25,52.5661228651541
2676.5,52.7559775681875
2676.75,52.9458322712209
2677,53.1356869742543
2677.25,53.3255416772877
2677.5,53.5153963803211
2677.75,53.7052510833546
2678,53.895105786388
2678.25,54.0849604894214
2678.5,54.2748151924548
2678.75,54.4256691307673
2679,54.5705582462402
2679.25,54.7154473617131
2679.5,54.8603364771859
2679.75,55.0052255926585
2680,55.1501147081314
2680.25,55.2950038236043
2680.5,55.4398929390772
2680.75,55.58478205455
2681,55.7296711700229
2681.25,55.8745602854958
2681.5,56.0194494009686
2681.75,56.1643385164415
2682,56.3092276319144
2682.25,56.4541167473872
2682.5,56.5990058628601
2682.75,56.743894978333
2683,56.8887840938059
2683.25,57.0336732092787
2683.5,57.1785623247513
2683.75,57.2042569462146
2684,57.2092531226102
2684.25,57.2142492990059
2684.5,57.2192454754015
2684.75,57.2242416517971
2685,57.2292378281927
2685.25,57.2342340045883
2685.5,57.2392301809839
2685.75,57.2442263573796
2686,57.2492225337752
2686.25,57.2542187101708
2686.5,57.2592148865664
2686.75,57.264211062962
2687,57.2692072393576
2687.25,57.2742034157532
2687.5,57.2791995921489
2687.75,57.2841957685445
2688,57.2891919449401
2688.25,57.2941881213357
2688.5,57.2991842977313
2688.75,57.4630384909508
2689,57.6578893703798
2689.25,57.8527402498088
2689.5,58.0475911292379
2689.75,58.2424420086669
2690,58.4372928880959
2690.25,58.632143767525
2690.5,58.826994646954
2690.75,59.021845526383
2691,59.2166964058117
2691.25,59.4115472852407
2691.5,59.6063981646698
2691.75,59.8012490440988
2692,59.9960999235278
2692.25,60.1909508029568
2692.5,60.3858016823859
2692.75,60.5806525618149
2693,60.7755034412439
2693.25,60.970354320673
2693.5,61.165205200102
2693.75,61.1876879938822
2694,61.1726994646954
2694.25,61.1577109355085
2694.5,61.1427224063217
2694.75,61.1277338771349
2695,61.112745347948
2695.25,61.0977568187612
2695.5,61.0827682895743
2695.75,61.0677797603875
2696,61.0527912312006
2696.25,61.0378027020138
2696.5,61.0228141728269
2696.75,61.0078256436401
2697,60.9928371144532
2697.25,60.9778485852664
2697.5,60.9628600560795
2697.75,60.9478715268927
2698,60.9328829977058
2698.25,60.917894468519
2698.5,60.9029059393322
2698.75,60.7791741014531
2699,60.6292888095846
2699.25,60.4794035177161
2699.5,60.3295182258476
2699.75,60.1796329339792
2700,60.0297476421107
2700.25,59.8798623502422
2700.5,59.7299770583737
2700.75,59.5800917665052
2701,59.4302064746367
2701.25,59.2803211827682
2701.5,59.1304358908998
2701.75,58.9805505990313
2702,58.8306653071628
2702.25,58.6807800152946
2702.5,58.5308947234261
2702.75,58.3810094315576
2703,58.2311241396891
2703.25,58.0812388478206
2703.5,57.9313535559521
2703.75,57.7933214376753
2704,57.6584246749936
2704.25,57.523527912312
2704.5,57.3886311496304
2704.75,57.2537343869487
2705,57.1188376242671
2705.25,56.9839408615855
2705.5,56.8490440989038
2705.75,56.7141473362222
2706,56.5792505735408
2706.25,56.4443538108592
2706.5,56.3094570481775
2706.75,56.1745602854959
2707,56.0396635228142
2707.25,55.9047667601326
2707.5,55.769869997451
2707.75,55.6349732347693
2708,55.5000764720877
2708.25,55.3651797094061
2708.5,55.2302829467244
2708.75,55.0953861840428
2709,54.9604894213611
2709.25,54.8255926586795
2709.5,54.6906958959979
2709.75,54.5557991333165
2710,54.4209023706348
2710.25,54.2860056079532
2710.5,54.1511088452716
2710.75,54.0162120825899
2711,53.8813153199083
2711.25,53.7464185572267
2711.5,53.611521794545
2711.75,53.4766250318634
2712,53.3417282691817
2712.25,53.2068315065001
2712.5,53.0719347438185
2712.75,52.9370379811368
2713,52.8021412184552
2713.25,52.6672444557736
2713.5,52.5323476930922
2713.75,52.545577364262
2714,52.6055314810094
2714.25,52.6654855977568
2714.5,52.7254397145042
2714.75,52.7853938312516
2715,52.845347947999
2715.25,52.9053020647464
2715.5,52.9652561814938
2715.75,53.0252102982411
2716,53.0851644149885
2716.25,53.1451185317359
2716.5,53.2050726484833
2716.75,53.2650267652307
2717,53.3249808819781
2717.25,53.3849349987254
2717.5,53.4448891154728
2717.75,53.5048432322202
2718,53.5647973489676
2718.25,53.624751465715
2718.5,53.6847055824624
2718.75,53.7372164160081
2719,53.7871781799643
2719.25,53.8371399439205
2719.5,53.8871017078766
2719.75,53.9370634718328
2720,53.987025235789
2720.25,54.0369869997451
2720.5,54.0869487637013
2720.75,54.1369105276574
2721,54.1868722916135
2721.25,54.2368340555697
2721.5,54.2867958195258
2721.75,54.336757583482
2722,54.3867193474382
2722.25,54.4366811113943
2722.5,54.4866428753505
2722.75,54.5366046393066
2723,54.5865664032628
2723.25,54.636528167219
2723.5,54.6864899311751
2723.75,54.7072903390263
2724,54.7172826918175
2724.25,54.7272750446087
2724.5,54.7372673974
2724.75,54.7472597501912
2725,54.7572521029824
2725.25,54.7672444557736
2725.5,54.7772368085649
2725.75,54.7872291613561
2726,54.7972215141473
2726.25,54.8072138669386
2726.5,54.8172062197298
2726.75,54.827198572521
2727,54.8371909253123
2727.25,54.8471832781035
2727.5,54.8571756308947
2727.75,54.867167983686
2728,54.8771603364772
2728.25,54.8871526892684
2728.5,54.8971450420597
2728.75,54.9178434871272
2729,54.9428243691053
2729.25,54.9678052510833
2729.5,54.9927861330614
2729.75,55.0177670150395
2730,55.0427478970176
2730.25,55.0677287789957
2730.5,55.0927096609737
2730.75,55.1176905429518
2731,55.1426714249299
2731.25,55.167652306908
2731.5,55.1926331888861
2731.75,55.2176140708641
2732,55.2425949528422
2732.25,55.2675758348203
2732.5,55.2925567167983
2732.75,55.3175375987764
2733,55.3425184807545
2733.25,55.3674993627326
2733.5,55.3924802447107
2733.75,55.4314300280397
2734,55.4763956156003
2734.25,55.5213612031608
2734.5,55.5663267907214
2734.75,55.6112923782819
2735,55.6562579658425
2735.25,55.701223553403
2735.5,55.7461891409636
2735.75,55.7911547285241
2736,55.8361203160847
2736.25,55.8810859036451
2736.5,55.9260514912057
2736.75,55.9710170787662
2737,56.0159826663268
2737.25,56.0609482538873
2737.5,56.1059138414479
2737.75,56.1508794290084
2738,56.1958450165689
2738.25,56.2408106041295
2738.5,56.28577619169
2738.75,56.351236298751
2739,56.4261789446852
2739.25,56.5011215906195
2739.5,56.5760642365537
2739.75,56.6510068824879
2740,56.725949528422
2740.25,56.8008921743563
2740.5,56.8758348202905
2740.75,56.9507774662248
2741,57.025720112159
2741.25,57.1006627580933
2741.5,57.1756054040275
2741.75,57.2505480499618
2742,57.325490695896
2742.25,57.4004333418302
2742.5,57.4753759877645
2742.75,57.5503186336987
2743,57.625261279633
2743.25,57.7002039255672
2743.5,57.7751465715015
2743.75,57.826714249299
2744,57.8666836604639
2744.25,57.9066530716288
2744.5,57.9466224827937
2744.75,57.9865918939587
2745,58.0265613051236
2745.25,58.0665307162885
2745.5,58.1065001274535
2745.75,58.1464695386184
2746,58.1864389497833
2746.25,58.2264083609483
2746.5,58.2663777721132
2746.75,58.3063471832781
2747,58.3463165944431
2747.25,58.386286005608
2747.5,58.4262554167728
2747.75,58.4662248279378
2748,58.5061942391027
2748.25,58.5461636502676
2748.5,58.5861330614326
2748.75,58.6
2749,58.6
2749.25,58.6
2749.5,58.6
2749.75,58.6
2750,58.6
2750.25,58.6
2750.5,58.6
2750.75,58.6
2751,58.6
2751.25,58.6
2751.5,58.6
2751.75,58.6
2752,58.6
2752.25,58.6
2752.5,58.6
2752.75,58.6
2753,58.6
2753.25,58.6
2753.5,58.6
2753.75,58.6
2754,58.6
2754.25,58.6
2754.5,58.6
2754.75,58.6
2755,58.6
2755.25,58.6
2755.5,58.6
2755.75,58.6
2756,58.6
2756.25,58.6
2756.5,58.6
2756.75,58.6
2757,58.6
2757.25,58.6
2757.5,58.6
2757.75,58.6
2758,58.6
2758.25,58.6
2758.5,58.6
2758.75,58.6186591893958
2759,58.6486362477695
2759.25,58.6786133061432
2759.5,58.7085903645169
2759.75,58.7385674228906
2760,58.7685444812643
2760.25,58.798521539638
2760.5,58.8284985980117
2760.75,58.8584756563854
2761,58.8884527147591
2761.25,58.9184297731328
2761.5,58.9484068315065
2761.75,58.9783838898802
2762,59.0083609482539
2762.25,59.0383380066276
2762.5,59.0683150650012
2762.75,59.0982921233749
2763,59.1282691817486
2763.25,59.1582462401223
2763.5,59.188223298496
2763.75,59.1514657150141
2764,59.0715268926842
2764.25,58.9915880703543
2764.5,58.9116492480245
2764.75,58.8317104256946
2765,58.7517716033648
2765.25,58.6718327810349
2765.5,58.591893958705
2765.75,58.5119551363752
2766,58.4320163140453
2766.25,58.3520774917155
2766.5,58.2721386693858
2766.75,58.1921998470559
2767,58.112261024726
2767.25,58.0323222023962
2767.5,57.9523833800663
2767.75,57.8724445577365
2768,57.7925057354066
2768.25,57.7125669130767
2768.5,57.6326280907469
2768.75,57.5881723171043
2769,57.5681876115218
2769.25,57.5482029059393
2769.5,57.5282182003569
2769.75,57.5082334947744
2770,57.4882487891919
2770.25,57.4682640836095
2770.5,57.448279378027
2770.75,57.4282946724446
2771,57.4083099668621
2771.25,57.3883252612796
2771.5,57.3683405556972
2771.75,57.3483558501147
2772,57.3283711445322
2772.25,57.3083864389498
2772.5,57.2884017333673
2772.75,57.2684170277849
2773,57.2484323222024
2773.25,57.2284476166199
2773.5,57.2084629110375
2773.75,57.1827173081825
2774,57.1527402498089
2774.25,57.1227631914352
2774.5,57.0927861330615
2774.75,57.0628090746878
2775,57.0328320163141
2775.25,57.0028549579404
2775.5,56.9728778995667
2775.75,56.942900841193
2776,56.9129237828193
2776.25,56.8829467244456
2776.5,56.8529696660719
2776.75,56.8229926076982
2777,56.7930155493245
2777.25,56.7630384909508
2777.5,56.7330614325771
2777.75,56.7030843742034
2778,56.6731073158297
2778.25,56.6431302574561
2778.5,56.6131531990824
2778.75,56.6925312261024
2779,56.8574050471577
2779.25,57.0222788682131
2779.5,57.1871526892684
2779.75,57.3520265103237
2780,57.5169003313791
2780.25,57.6817741524344
2780.5,57.8466479734897
2780.75,58.0115217945451
2781,58.1763956156004
2781.25,58.3412694366557
2781.5,58.5061432577108
2781.75,58.6710170787661
2782,58.8358908998214
2782.25,59.0007647208768
2782.5,59.1656385419321
2782.75,59.3305123629874
2783,59.4953861840428
2783.25,59.6602600050981
2783.5,59.8251338261534
2783.75,59.8672699464695
2784,59.8073158297221
2784.25,59.7473617129747
2784.5,59.6874075962273
2784.75,59.62745347948
2785,59.5674993627326
2785.25,59.5075452459853
2785.5,59.4475911292379
2785.75,59.3876370124905
2786,59.3276828957431
2786.25,59.2677287789957
2786.5,59.2077746622483
2786.75,59.1478205455009
2787,59.0878664287535
2787.25,59.0279123120061
2787.5,58.9679581952587
2787.75,58.9080040785113
2788,58.8480499617639
2788.25,58.7880958450165
2788.5,58.7281417282692
2788.75,58.7079530971196
2789,58.7229416263064
2789.25,58.7379301554932
2789.5,58.7529186846801
2789.75,58.7679072138669
2790,58.7828957430538
2790.25,58.7978842722406
2790.5,58.8128728014275
2790.75,58.8278613306143
2791,58.8428498598012
2791.25,58.857838388988
2791.5,58.8728269181749
2791.75,58.8878154473617
2792,58.9028039765486
2792.25,58.9177925057354
2792.5,58.9327810349223
2792.75,58.9477695641091
2793,58.9627580932959
2793.25,58.9777466224828
2793.5,58.9927351516696
2793.75,59.0566403262808
2794,59.1665562069844
2794.25,59.276472087688
2794.5,59.3863879683915
2794.75,59.4963038490951
2795,59.6062197297986
2795.25,59.7161356105022
2795.5,59.8260514912057
2795.75,59.9359673719093
2796,60.0458832526129
2796.25,60.1557991333164
2796.5,60.2657150140198
2796.75,60.3756308947233
2797,60.4855467754269
2797.25,60.5954626561304
2797.5,60.705378536834
2797.75,60.8152944175376
2798,60.9252102982411
2798.25,61.0351261789447
2798.5,61.1450420596482
2798.75,61.1925057354066
2799,61.1775172062197
2799.25,61.1625286770329
2799.5,61.147540147846
2799.75,61.1325516186592
2800,61.1175630894723
2800.25,61.1025745602855
2800.5,61.0875860310987
2800.75,61.0725975019118
2801,61.057608972725
2801.25,61.0426204435381
2801.5,61.0276319143513
2801.75,61.0126433851644
2802,60.9976548559776
2802.25,60.9826663267907
2802.5,60.9676777976039
2802.75,60.952689268417
2803,60.9377007392302
2803.25,60.9227122100433
2803.5,60.9077236808565
2803.75,60.919372928881
2804,60.9593423400458
2804.25,60.9993117512108
2804.5,61.0392811623757
2804.75,61.0792505735406
2805,61.1192199847056
2805.25,61.1591893958705
2805.5,61.1991588070354
2805.75,61.2391282182003
2806,61.2790976293653
2806.25,61.3190670405302
2806.5,61.3590364516951
2806.75,61.3990058628601
2807,61.438975274025
2807.25,61.4789446851899
2807.5,61.5189140963549
2807.75,61.5588835075197
2808,61.5988529186846
2808.25,61.6388223298496
2808.5,61.6787917410145
2808.75,61.6296456793271
2809,61.4797603874586
2809.25,61.3298750955902
2809.5,61.1799898037217
2809.75,61.0301045118532
2810,60.8802192199847
2810.25,60.7303339281162
2810.5,60.5804486362477
2810.75,60.4305633443792
2811,60.2806780525108
2811.25,60.1307927606423
2811.5,59.9809074687738
2811.75,59.8310221769056
2812,59.6811368850371
2812.25,59.5312515931686
2812.5,59.3813663013001
2812.75,59.2314810094316
2813,59.0815957175631
2813.25,58.9317104256947
2813.5,58.7818251338262
2813.75,58.6319398419577
2814,58.4820545500892
2814.25,58.3321692582207
2814.5,58.1822839663522
2814.75,58.0323986744837
2815,57.8825133826153
2815.25,57.7326280907468
2815.5,57.5827427988786
2815.75,57.4328575070101
2816,57.2829722151416
2816.25,57.1330869232731
2816.5,56.9832016314046
2816.75,56.8333163395361
2817,56.6834310476676
2817.25,56.5335457557992
2817.5,56.3836604639307
2817.75,56.2337751720622
2818,56.0838898801937
2818.25,55.9340045883252
2818.5,55.7841192964567
2818.75,55.6846546010706
2819,55.6496813663013
2819.25,55.614708131532
2819.5,55.5797348967627
2819.75,55.5447616619934
2820,55.5097884272241
2820.25,55.4748151924548
2820.5,55.4398419576855
2820.75,55.4048687229161
2821,55.3698954881468
2821.25,55.3349222533775
2821.5,55.2999490186082
2821.75,55.2649757838389
2822,55.2300025490696
2822.25,55.1950293143003
2822.5,55.160056079531
2822.75,55.1250828447616
2823,55.0901096099924
2823.25,55.0551363752231
2823.5,55.0201631404538
2823.75,55.0803976548559
2824,55.2702523578893
2824.25,55.4601070609227
2824.5,55.6499617639561
2824.75,55.8398164669895
2825,56.0296711700229
2825.25,56.2195258730564
2825.5,56.4093805760898
2825.75,56.5992352791232
2826,56.7890899821566
2826.25,56.97894468519
2826.5,57.1687993882234
2826.75,57.3586540912565
2827,57.5485087942899
2827.25,57.7383634973233
2827.5,57.9282182003567
2827.75,58.1180729033902
2828,58.3079276064236
2828.25,58.497782309457
2828.5,58.6876370124904
2828.75,58.8713739485088
2829,59.0462401223554
2829.25,59.2211062962019
2829.5,59.3959724700485
2829.75,59.5708386438951
2830,59.7457048177416
2830.25,59.9205709915882
2830.5,60.0954371654344
2830.75,60.270303339281
2831,60.4451695131276
2831.25,60.6200356869741
2831.5,60.7949018608207
2831.75,60.9697680346673
2832,61.1446342085138
2832.25,61.3195003823604
2832.5,61.494366556207
2832.75,61.6692327300535
2833,61.8440989039001
2833.25,62.0189650777467
2833.5,62.1938312515932
2833.75,62.1940096864643
2834,61.924216161101
2834.25,61.6544226357382
2834.5,61.384629110375
2834.75,61.1148355850117
2835,60.8450420596484
2835.25,60.5752485342851
2835.5,60.3054550089219
2835.75,60.0356614835586
2836,59.7658679581953
2836.25,59.496074432832
2836.5,59.2262809074687
2836.75,58.9564873821055
2837,58.6866938567422
2837.25,58.4169003313789
2837.5,58.1471068060157
2837.75,57.8773132806524
2838,57.6075197552896
2838.25,57.3377262299263
2838.5,57.067932704563
2838.75,56.8396380321184
2839,56.6797603874587
2839.25,56.5198827427989
2839.5,56.3600050981392
2839.75,56.2001274534795
2840,56.0402498088198
2840.25,55.8803721641601
2840.5,55.7204945195004
2840.75,55.5606168748406
2841,55.4007392301809
2841.25,55.2408615855212
2841.5,55.0809839408615
2841.75,54.9211062962021
2842,54.7612286515423
2842.25,54.6013510068826
2842.5,54.4414733622229
2842.75,54.2815957175632
2843,54.1217180729035
2843.25,53.9618404282437
2843.5,53.801962783584
2843.75,53.5606423655366
2844,53.1759367830742
2844.25,52.7912312006117
2844.5,52.4065256181493
2844.75,52.0218200356868
2845,51.6371144532244
2845.25,51.2524088707619
2845.5,50.8677032883002
2845.75,50.4829977058377
2846,50.0982921233753
2846.25,49.7135865409128
2846.5,49.3288809584504
2846.75,48.9441753759879
2847,48.5594697935255
2847.25,48.174764211063
2847.5,47.7900586286006
2847.75,47.4053530461381
2848,47.0206474636757
2848.25,46.6359418812132
2848.5,46.2512362987508
2848.75,46.0537343869488
2849,46.2086158552129
2849.25,46.3634973234768
2849.5,46.5183787917409
2849.75,46.673260260005
2850,46.8281417282691
2850.25,46.9830231965332
2850.5,47.1379046647973
2850.75,47.2927861330614
2851,47.4476676013255
2851.25,47.6025490695896
2851.5,47.7574305378537
2851.75,47.9123120061178
2852,48.0671934743819
2852.25,48.222074942646
2852.5,48.3769564109101
2852.75,48.5318378791742
2853,48.6867193474383
2853.25,48.8416008157021
2853.5,48.9964822839662
2853.75,49.0701758858017
2854,48.9802447106807
2854.25,48.8903135355596
2854.5,48.8003823604385
2854.75,48.7104511853174
2855,48.6205200101963
2855.25,48.5305888350752
2855.5,48.4406576599541
2855.75,48.350726484833
2856,48.2607953097119
2856.25,48.1708641345908
2856.5,48.0809329594697
2856.75,47.9910017843486
2857,47.9010706092277
2857.25,47.8111394341066
2857.5,47.7212082589855
2857.75,47.6312770838644
2858,47.5413459087434
2858.25,47.4514147336223
2858.5,47.3614835585012
2858.75,47.331608462911
2859,47.4315319908233
2859.25,47.5314555187357
2859.5,47.631379046648
2859.75,47.7313025745603
2860,47.8312261024726
2860.25,47.931149630385
2860.5,48.0310731582973
2860.75,48.1309966862094
2861,48.2309202141218
2861.25,48.3308437420341
2861.5,48.4307672699464
2861.75,48.5306907978587
2862,48.6306143257711
2862.25,48.7305378536834
2862.5,48.8304613815957
2862.75,48.930384909508
2863,49.0303084374204
2863.25,49.1302319653327
2863.5,49.230155493245
2863.75,49.3105276574051
2864,49.3455008921744
2864.25,49.3804741269437
2864.5,49.4154473617129
2864.75,49.4504205964823
2865,49.4853938312516
2865.25,49.5203670660209
2865.5,49.5553403007902
2865.75,49.5903135355595
2866,49.6252867703288
2866.25,49.6602600050981
2866.5,49.6952332398674
2866.75,49.7302064746368
2867,49.7651797094061
2867.25,49.8001529441754
2867.5,49.8351261789447
2867.75,49.870099413714
2868,49.9050726484833
2868.25,49.9400458832526
2868.5,49.9750191180219
2868.75,49.9928626051491
2869,49.9678817231711
2869.25,49.942900841193
2869.5,49.9179199592149
2869.75,49.8929390772368
2870,49.8679581952587
2870.25,49.8429773132807
2870.5,49.8179964313026
2870.75,49.7930155493245
2871,49.7680346673464
2871.25,49.7430537853683
2871.5,49.7180729033903
2871.75,49.6930920214122
2872,49.6681111394341
2872.25,49.6431302574561
2872.5,49.618149375478
2872.75,49.5931684934999
2873,49.5681876115218
2873.25,49.5432067295437
2873.5,49.5182258475656
2873.75,49.4581187866429
2874,49.3032373183788
2874.25,49.1483558501147
2874.5,48.9934743818506
2874.75,48.8385929135865
2875,48.6837114453224
2875.25,48.5288299770583
2875.5,48.3739485087942
2875.75,48.2190670405304
2876,48.0641855722663
2876.25,47.9093041040022
2876.5,47.7544226357381
2876.75,47.599541167474
2877,47.4446596992099
2877.25,47.2897782309458
2877.5,47.1348967626816
2877.75,46.9800152944175
2878,46.8251338261534
2878.25,46.6702523578893
2878.5,46.5153708896252
2878.75,46.4038236043844
2879,46.4188121335713
2879.25,46.4338006627581
2879.5,46.4487891919449
2879.75,46.4637777211318
2880,46.4787662503186
2880.25,46.4937547795055
2880.5,46.5087433086923
2880.75,46.5237318378792
2881,46.538720367066
2881.25,46.5537088962529
2881.5,46.5686974254397
2881.75,46.5836859546266
2882,46.5986744838134
2882.25,46.6136630130003
2882.5,46.6286515421871
2882.75,46.643640071374
2883,46.6586286005608
2883.25,46.6736171297476
2883.5,46.6886056589345
2883.75,46.6700484323223
2884,46.5451440224319
2884.25,46.4202396125415
2884.5,46.2953352026511
2884.75,46.1704307927607
2885,46.0455263828703
2885.25,45.9206219729799
2885.5,45.7957175630895
2885.75,45.6708131531991
2886,45.5459087433087
2886.25,45.4210043334183
2886.5,45.2960999235278
2886.75,45.1711955136374
2887,45.0462911037473
2887.25,44.9213866938569
2887.5,44.7964822839665
2887.75,44.6715778740761
2888,44.5466734641856
2888.25,44.4217690542952
2888.5,44.2968646444048
2888.75,44.192148865664
2889,44.1571756308947
2889.25,44.1222023961254
2889.5,44.0872291613561
2889.75,44.0522559265868
2890,44.0172826918175
2890.25,43.9823094570482
2890.5,43.9473362222789
2890.75,43.9123629875096
2891,43.8773897527403
2891.25,43.842416517971
2891.5,43.8074432832017
2891.75,43.7724700484323
2892,43.737496813663
2892.25,43.7025235788937
2892.5,43.6675503441244
2892.75,43.6325771093551
2893,43.5976038745858
2893.25,43.5626306398165
2893.5,43.5276574050472
2893.75,43.4676013255161
2894,43.312719857252
2894.25,43.1578383889879
2894.5,43.0029569207241
2894.75,42.84807545246
2895,42.6931939841959
2895.25,42.5383125159318
2895.5,42.3834310476677
2895.75,42.2285495794036
2896,42.0736681111395
2896.25,41.9187866428754
2896.5,41.7639051746113
2896.75,41.6090237063472
2897,41.4541422380831
2897.25,41.299260769819
2897.5,41.1443793015549
2897.75,40.9894978332908
2898,40.8346163650267
2898.25,40.6797348967626
2898.5,40.5248534284987
2898.75,40.4029059393321
2899,40.417894468519
2899.25,40.4328829977058
2899.5,40.4478715268927
2899.75,40.4628600560795
2900,40.4778485852664
2900.25,40.4928371144532
2900.5,40.5078256436401
2900.75,40.5228141728269
2901,40.5378027020138
2901.25,40.5527912312006
2901.5,40.5677797603875
2901.75,40.5827682895743
2902,40.5977568187612
2902.25,40.612745347948
2902.5,40.6277338771348
2902.75,40.6427224063217
2903,40.6577109355085
2903.25,40.6726994646954
2903.5,40.6876879938822
2903.75,40.6982156512873
2904,40.6882232984961
2904.25,40.6782309457048
2904.5,40.6682385929136
2904.75,40.6582462401224
2905,40.6482538873311
2905.25,40.6382615345399
2905.5,40.6282691817487
2905.75,40.6182768289574
2906,40.6082844761662
2906.25,40.598292123375
2906.5,40.5882997705837
2906.75,40.5783074177925
2907,40.5683150650013
2907.25,40.5583227122101
2907.5,40.5483303594188
2907.75,40.5383380066276
2908,40.5283456538363
2908.25,40.5183533010451
2908.5,40.5083609482539
2908.75,40.5097884272241
2909,40.5697425439715
2909.25,40.6296966607189
2909.5,40.6896507774663
2909.75,40.7496048942136
2910,40.8095590109609
2910.25,40.8695131277083
2910.5,40.9294672444557
2910.75,40.9894213612031
2911,41.0493754779505
2911.25,41.1093295946979
2911.5,41.1692837114453
2911.75,41.2292378281927
2912,41.2891919449401
2912.25,41.3491460616875
2912.5,41.4091001784349
2912.75,41.4690542951823
2913,41.5290084119297
2913.25,41.5889625286771
2913.5,41.6489166454244
2913.75,41.7177415243435
2914,41.8376497578383
2914.25,41.9575579913331
2914.5,42.0774662248279
2914.75,42.1973744583227
2915,42.3172826918175
2915.25,42.4371909253122
2915.5,42.557099158807
2915.75,42.6770073923018
2916,42.7969156257966
2916.25,42.9168238592914
2916.5,43.0367320927862
2916.75,43.156640326281
2917,43.2765485597758
2917.25,43.3964567932703
2917.5,43.5163650267651
2917.75,43.6362732602599
2918,43.7561814937547
2918.25,43.8760897272495
2918.5,43.9959979607443
2918.75,44.1324751465714
2919,44.3772877899566
2919.25,44.6221004333418
2919.5,44.866913076727
2919.75,45.1117257201122
2920,45.3565383634974
2920.25,45.6013510068826
2920.5,45.8461636502678
2920.75,46.090976293653
2921,46.3357889370377
2921.25,46.5806015804229
2921.5,46.8254142238081
2921.75,47.0702268671933
2922,47.3150395105785
2922.25,47.5598521539637
2922.5,47.8046647973489
2922.75,48.0494774407341
2923,48.2942900841193
2923.25,48.5391027275045
2923.5,48.7839153708897
2923.75,49.0041040020393
2924,49.0390772368086
2924.25,49.0740504715779
2924.5,49.1090237063472
2924.75,49.1439969411165
2925,49.1789701758858
2925.25,49.2139434106551
2925.5,49.2489166454244
2925.75,49.2838898801937
2926,49.318863114963
2926.25,49.3538363497323
2926.5,49.3888095845017
2926.75,49.423782819271
2927,49.4587560540403
2927.25,49.4937292888096
2927.5,49.5287025235789
2927.75,49.5636757583482
2928,49.5986489931175
2928.25,49.6336222278868
2928.5,49.6685954626561
2928.75,49.681646698955
2929,49.5017843487129
2929.25,49.3219219984707
2929.5,49.1420596482285
2929.75,48.9621972979863
2930,48.7823349477441
2930.25,48.602472597502
2930.5,48.4226102472598
2930.75,48.2427478970176
2931,48.0628855467754
2931.25,47.8830231965332
2931.5,47.703160846291
2931.75,47.5232984960489
2932,47.3434361458067
2932.25,47.1635737955648
2932.5,46.9837114453226
2932.75,46.8038490950804
2933,46.6239867448383
2933.25,46.4441243945961
2933.5,46.2642620443539
2933.75,46.0882997705838
2934,45.9534030079021
2934.25,45.8185062452205
2934.5,45.6836094825389
2934.75,45.5487127198572
2935,45.4138159571756
2935.25,45.278919194494
2935.5,45.1440224318123
2935.75,45.0091256691307
2936,44.8742289064493
2936.25,44.7393321437677
2936.5,44.604435381086
2936.75,44.4695386184044
2937,44.3346418557227
2937.25,44.1997450930411
2937.5,44.0648483303595
2937.75,43.9299515676778
2938,43.7950548049962
2938.25,43.6601580423145
2938.5,43.5252612796329
2938.75,43.3821565128727
2939,43.1323476930919
2939.25,42.8825388733111
2939.5,42.6327300535303
2939.75,42.3829212337495
2940,42.1331124139691
2940.25,41.8833035941883
2940.5,41.6334947744075
2940.75,41.3836859546267
2941,41.1338771348459
2941.25,40.8840683150651
2941.5,40.6342594952843
2941.75,40.3844506755035
2942,40.1346418557227
2942.25,39.8848330359418
2942.5,39.635024216161
2942.75,39.3852153963802
2943,39.1354065765994
2943.25,38.8855977568186
2943.5,38.6357889370378
2943.75,38.3997196023452
2944,38.3947234259495
2944.25,38.3897272495539
2944.5,38.3847310731583
2944.75,38.3797348967627
2945,38.3747387203671
2945.25,38.3697425439714
2945.5,38.3647463675758
2945.75,38.3597501911802
2946,38.3547540147846
2946.25,38.349757838389
2946.5,38.3447616619934
2946.75,38.3397654855978
2947,38.3347693092021
2947.25,38.3297731328065
2947.5,38.3247769564109
2947.75,38.3197807800153
2948,38.3147846036197
2948.25,38.3097884272241
2948.5,38.3047922508284
2948.75,38.3002039255672
2949,38.3052001019628
2949.25,38.3101962783584
2949.5,38.315192454754
2949.75,38.3201886311496
2950,38.3251848075452
2950.25,38.3301809839409
2950.5,38.3351771603365
2950.75,38.3401733367321
2951,38.3451695131277
2951.25,38.3501656895233
2951.5,38.3551618659189
2951.75,38.3601580423146
2952,38.3651542187102
2952.25,38.3701503951058
2952.5,38.3751465715014
2952.75,38.380142747897
2953,38.3851389242926
2953.25,38.3901351006882
2953.5,38.3951312770839
2953.75,38.4072648483304
2954,38.6920469028805
2954.25,38.9768289574307
2954.5,39.2616110119808
2954.75,39.5463930665309
2955,39.8311751210805
2955.25,40.1159571756306
2955.5,40.4007392301808
2955.75,40.6855212847309
2956,40.970303339281
2956.25,41.2550853938311
2956.5,41.5398674483813
2956.75,41.8246495029314
2957,42.1094315574815
2957.25,42.3942136120316
2957.5,42.6789956665818
2957.75,42.9637777211319
2958,43.248559775682
2958.25,43.5333418302321
2958.5,43.8181238847823
2958.75,44.1011725720111
2959,44.2160846291103
2959.25,44.3309966862094
2959.5,44.4459087433086
2959.75,44.5608208004078
2960,44.675732857507
2960.25,44.7906449146061
2960.5,44.9055569717053
2960.75,45.0204690288045
2961,45.1353810859037
2961.25,45.2502931430028
2961.5,45.365205200102
2961.75,45.4801172572012
2962,45.5950293143003
2962.25,45.7099413713995
2962.5,45.8248534284985
2962.75,45.9397654855977
2963,46.0546775426968
2963.25,46.169589599796
2963.5,46.2845016568952
2963.75,46.3994137139943
2964,46.1962018863116
2964.25,45.9913586540913
2964.5,45.786515421871
2964.75,45.5816721896508
2965,45.3768289574305
2965.25,45.1719857252102
2965.5,44.96714249299
2965.75,44.7622992607697
2966,44.5574560285494
2966.25,44.3526127963295
2966.5,44.1477695641093
2966.75,43.942926331889
2967,43.7380830996688
2967.25,43.5332398674485
2967.5,43.3283966352282
2967.75,43.123553403008
2968,42.9187101707877
2968.25,42.7138669385674
2968.5,42.5090237063472
2968.75,42.3041804741269
2969,41.9769819016058
2969.25,41.6472342594951
2969.5,41.3174866173845
2969.75,40.9877389752738
2970,40.6579913331637
2970.25,40.3282436910531
2970.5,39.9984960489424
2970.75,39.6687484068317
2971,39.3390007647211
2971.25,39.0092531226104
2971.5,38.6795054804997
2971.75,38.3497578383891
2972,38.0200101962784
2972.25,37.6902625541677
2972.5,37.360514912057
2972.75,37.0307672699464
2973,36.7010196278357
2973.25,36.371271985725
2973.5,36.0415243436144
2973.75,35.7117767015043
2974,35.6470048432323
2974.25,35.5920469028805
2974.5,35.5370889625287
2974.75,35.4821310221769
2975,35.4271730818252
2975.25,35.3722151414734
2975.5,35.3172572011216
2975.75,35.2622992607698
2976,35.207341320418
2976.25,35.1523833800663
2976.5,35.0974254397145
2976.75,35.0424674993627
2977,34.9875095590109
2977.25,34.9325516186592
2977.5,34.8775936783075
2977.75,34.8226357379557
2978,34.7676777976039
2978.25,34.7127198572521
2978.5,34.6577619169004
2978.75,34.6028039765486
2979,34.7517206219729
2979.25,34.9115982666326
2979.5,35.0714759112924
2979.75,35.2313535559521
2980,35.3912312006118
2980.25,35.5511088452715
2980.5,35.7109864899312
2980.75,35.870864134591
2981,36.0307417792507
2981.25,36.1906194239101
2981.5,36.3504970685698
2981.75,36.5103747132295
2982,36.6702523578893
2982.25,36.830130002549
2982.5,36.9900076472087
2982.75,37.1498852918684
2983,37.3097629365281
2983.25,37.4696405811878
2983.5,37.6295182258476
2983.75,37.7893958705073
2984,38.1172062197299
2984.25,38.4569462146318
2984.5,38.7966862095337
2984.75,39.1364262044356
2985,39.4761661993375
2985.25,39.8159061942388
2985.5,40.1556461891407
2985.75,40.4953861840426
2986,40.8351261789445
2986.25,41.1748661738464
2986.5,41.5146061687483
2986.75,41.8543461636502
2987,42.1940861585521
2987.25,42.533826153454
2987.5,42.8735661483559
2987.75,43.2133061432578
2988,43.5530461381597
2988.25,43.8927861330616
2988.5,44.2325261279635
2988.75,44.5722661228654
2989,44.7468264083608
2989.25,44.9067040530205
2989.5,45.0665816976802
2989.75,45.22645934234
2990,45.3863369869997
2990.25,45.5462146316594
2990.5,45.7060922763191
2990.75,45.8659699209788
2991,46.0258475656385
2991.25,46.1857252102983
2991.5,46.345602854958
2991.75,46.5054804996177
2992,46.6653581442774
2992.25,46.8252357889371
2992.5,46.9851134335969
2992.75,47.1449910782563
2993,47.304868722916
2993.25,47.4647463675757
2993.5,47.6246240122354
2993.75,47.7845016568952
2994,47.9894978332908
2994.25,48.1993372419066
2994.5,48.4091766505225
2994.75,48.6190160591384
2995,48.8288554677543
2995.25,49.0386948763702
2995.5,49.2485342849861
2995.75,49.4583736936019
2996,49.6682131022178
2996.25,49.8780525108337
2996.5,50.0878919194492
2996.75,50.2977313280651
2997,50.507570736681
2997.25,50.7174101452968
2997.5,50.9272495539127
2997.75,51.1370889625286
2998,51.3469283711445
2998.25,51.5567677797604
2998.5,51.7666071883762
2998.75,51.9764465969921
2999,51.8536324241651
2999.25,51.6887586031098
2999.5,51.5238847820545
2999.75,51.3590109609991
3000,51.1941371399438
3000.25,51.0292633188888
3000.5,50.8643894978334
3000.75,50.6995156767781
3001,50.5346418557228
3001.25,50.3697680346674
3001.5,50.2048942136121
3001.75,50.0400203925568
3002,49.8751465715014
3002.25,49.7102727504461
3002.5,49.5453989293908
3002.75,49.3805251083354
3003,49.2156512872801
3003.25,49.0507774662248
3003.5,48.8859036451694
3003.75,48.7210298241141
3004,48.4646189140966
3004.25,48.1948253887334
3004.5,47.9250318633701
3004.75,47.6552383380068
3005,47.3854448126435
3005.25,47.1156512872803
3005.5,46.845857761917
3005.75,46.5760642365537
3006,46.3062707111904
3006.25,46.0364771858272
3006.5,45.7666836604639
3006.75,45.4968901351006
3007,45.2270966097373
3007.25,44.9573030843741
3007.5,44.6875095590108
3007.75,44.417716033648
3008,44.1479225082847
3008.25,43.8781289829214
3008.5,43.6083354575582
3008.75,43.3385419321949
3009,43.3385419321947
3009.25,43.3835075197553
3009.5,43.4284731073158
3009.75,43.4734386948764
3010,43.5184042824369
3010.25,43.5633698699975
3010.5,43.608335457558
3010.75,43.6533010451186
3011,43.6982666326791
3011.25,43.7432322202396
3011.5,43.7881978078001
3011.75,43.8331633953607
3012,43.8781289829212
3012.25,43.9230945704817
3012.5,43.9680601580423
3012.75,44.0130257456028
3013,44.0579913331634
3013.25,44.1029569207239
3013.5,44.1479225082845
3013.75,44.192888095845
3014,44.1873821055315
3014.25,44.1723935763446
3014.5,44.1574050471578
3014.75,44.1424165179709
3015,44.1274279887841
3015.25,44.1124394595973
3015.5,44.0974509304104
3015.75,44.0824624012236
3016,44.0674738720367
3016.25,44.0524853428499
3016.5,44.037496813663
3016.75,44.0225082844762
3017,44.0075197552893
3017.25,43.9925312261025
3017.5,43.9775426969156
3017.75,43.9625541677288
3018,43.9475656385419
3018.25,43.9325771093551
3018.5,43.9175885801682
3018.75,43.9026000509814
3019,43.9247769564109
