1362,944.350032575695
1362.25,943.354280162925
1362.5,941.277914519303
1362.75,938.771854469987
1363,936.516800979663
1363.25,935.127159851896
1363.5,934.546268202719
1363.75,934.327555320042
1364,934.019638198247
1364.25,933.320812279817
1364.5,932.600949746253
1364.75,932.41819634001
1365,933.327986419727
1365.25,935.461620454057
1365.5,938.069921960195
1365.75,940.294156166461
1366,941.308866615127
1366.25,941.076125782272
1366.5,940.358028010816
1366.75,939.952444738268
1367,940.556671012464
1367.25,941.931901802303
1367.5,943.330334547466
1367.75,943.99908370288
1368,943.396491262055
1368.25,941.904909702537
1368.5,940.159286114181
1368.75,938.793661405335
1369,938.233839908066
1369.25,938.433521460231
1369.5,939.281348113637
1369.75,940.661682193821
1370,942.32484418233
1370.25,943.863718689988
1370.5,944.862193808058
1370.75,944.953607127123
1371,944.322122695761
1371.25,943.496191871595
1371.5,943.009526072207
1371.75,943.271597419583
1372,944.017058628225
1372.25,944.752536042684
1372.5,944.984830087647
1372.75,944.467050214878
1373,943.629399852788
1373.25,943.017413807801
1373.5,943.168041688597
1373.75,944.149866674609
1374,945.331178209875
1374.25,946.022929334738
1374.5,945.58541404957
1374.75,944.195757048814
1375,942.702640534888
1375.25,941.974683293658
1375.5,942.743757102569
1375.75,944.701554103473
1376,947.06174208613
1376.25,949.035471390847
1376.5,950.042718704996
1376.75,950.282719400255
1377,950.136440198353
1377.25,949.98416738606
1377.5,950.101768289299
1377.75,950.549192288162
1378,951.35964625913
1378.25,952.562066762176
1378.5,954.043388309236
1378.75,955.51887799336
1379,956.693532494282
1379.25,957.299267914931
1379.5,957.441262153086
1379.75,957.497637900292
1380,957.85275563197
1380.25,958.80978535504
1380.5,960.055408666548
1380.75,960.993428446596
1381,961.026166314394
1381.25,959.751322486887
1381.5,957.648600709342
1381.75,955.44647642356
1382,953.873116250736
1382.25,953.3689697463
1382.5,953.558151556738
1382.75,953.920985515344
1383,953.941357987021
1383.25,953.37892691622
1383.5,952.460879785362
1383.75,951.459701205093
1384,950.64627826152
1384.25,950.25184927581
1384.5,950.466319015386
1384.75,951.477657582431
1385,953.427398062553
1385.25,955.942843710283
1385.5,958.331301531199
1385.75,959.895249761065
1386,960.074296608646
1386.25,959.11561219588
1386.5,957.560989441793
1386.75,955.952647081006
1387,954.677850667053
1387.25,953.561365197502
1387.5,952.300355856496
1387.75,950.593455249342
1388,948.419202282253
1388.25,946.365981574999
1388.5,945.102468296291
1388.75,945.279468050264
1389,946.871623473548
1389.25,948.985781946109
1389.5,950.67184523611
1389.75,951.042141921215
1390,950.057448312241
1390.25,948.290472424043
1390.5,946.327456642096
1390.75,944.702790678125
1391,943.592259035211
1391.25,943.020070305234
1391.5,943.009890559856
1391.75,943.515973182612
1392,944.243996699008
1392.25,944.844017864041
1392.5,944.968334682925
1392.75,944.503991548849
1393,943.775550341408
1393.25,943.155365378824
1393.5,943.003948533726
1393.75,943.389455463952
1394,944.076135016747
1394.25,944.814082387253
1394.5,945.372629381374
1394.75,945.710760323728
1395,945.895405015434
1395.25,945.994743147533
1395.5,946.064613114888
1395.75,946.100533509081
1396,946.079622499181
1396.25,945.979019659645
1396.5,945.787537639701
1396.75,945.524043119129
1397,945.212173499494
1397.25,944.876596373053
1397.5,944.591550578259
1397.75,944.501794115753
1398,944.757468611558
1398.25,945.508829969146
1398.5,946.907944791051
1398.75,949.108326965587
1399,952.263530830478
1399.25,956.417905084186
1399.5,960.823571590147
1399.75,964.383310557177
1400,965.998373628361
1400.25,964.984218257408
1400.5,962.343656778722
1400.75,959.509113288937
1401,957.912133849109
1401.25,958.411353955975
1401.5,960.305442233203
1401.75,962.630042247753
1402,964.426354255746
1402.25,965.172056898337
1402.5,965.088421293432
1402.75,964.469217570252
1403,963.612981914531
1403.25,962.964489978171
1403.5,963.138560083951
1403.75,964.759571216763
1404,968.379306197345
1404.25,973.402367687593
1404.5,978.318020467945
1404.75,981.590043765151
1405,981.859072185287
1405.25,979.455015950455
1405.5,975.645531022879
1405.75,971.708298367765
1406,968.798850083396
1406.25,967.154096368886
1406.5,966.592927182385
1406.75,966.932122050856
1407,967.981452639511
1407.25,969.514001890415
1407.5,971.29088663611
1407.75,973.07321891396
1408,974.648308513863
1408.25,975.895650366262
1408.5,976.715005375904
1408.75,977.006153982694
1409,976.677462229564
1409.25,975.659309684517
1409.5,973.885554589603
1409.75,971.292053176226
1410,968.073996064399
1410.25,964.939982242084
1410.5,962.65898085209
1410.75,961.987797346056
1411,963.056116856471
1411.25,965.076447648224
1411.5,967.188481897598
1411.75,968.556393982081
1412,968.888713878951
1412.25,968.428117874603
1412.5,967.439722369063
1412.75,966.181947000137
1413,964.825807021304
1413.25,963.481032147447
1413.5,962.256086351983
1413.75,961.24532197023
1414,960.427177084308
1414.25,959.723213469955
1414.5,959.054600485959
1414.75,958.366208201648
1415,957.72368073553
1415.25,957.23103479256
1415.5,956.99228072686
1415.75,957.063350339342
1416,957.350315374029
1416.25,957.730131731404
1416.5,958.079692319514
1416.75,958.268689705761
1417,958.153053609781
1417.25,957.587162939378
1417.5,956.430777722526
1417.75,954.726056934375
1418,952.737672325513
1418.25,950.743799046103
1418.5,949.012601356221
1418.75,947.660073605181
1419,946.68384152964
1419.25,946.078414235168
1419.5,945.836039616051
1419.75,945.93204540807
1420,946.334093362144
1420.25,947.009807185776
1420.5,947.879742179805
1420.75,948.682974925983
1421,949.114850175528
1421.25,948.872393376788
1421.5,947.919031124603
1421.75,946.773520486901
1422,946.024057126152
1422.25,946.242994020528
1422.5,947.479008962824
1422.75,949.149508048298
1423,950.634299558087
1423.25,951.361094067413
1423.5,951.361577809858
1423.75,951.080702246414
1424,950.971449129134
1424.25,951.39955448013
1424.5,952.163990190303
1424.75,952.837318642317
1425,952.991515346559
1425.25,952.350088934075
1425.5,951.179409347543
1425.75,949.867364521839
1426,948.800825673563
1426.25,948.206494539399
1426.5,947.977697657954
1426.75,947.966151066525
1427,948.023892290499
1427.25,948.013553542624
1427.5,947.81052018284
1427.75,947.290935409326
1428,946.354565784051
1428.25,945.20746178885
1428.5,944.269430192047
1428.75,943.964641847683
1429,944.62626879964
1429.25,946.011923677629
1429.5,947.65484743862
1429.75,949.087809916965
1430,949.962322243556
1430.25,950.311488715381
1430.5,950.244916014771
1430.75,949.872316677342
1431,949.313310755593
1431.25,948.705369209835
1431.5,948.187832299504
1431.75,947.899334058155
1432,947.960417641088
1432.25,948.472445098167
1432.5,949.535853973846
1432.75,951.204868613402
1433,953.031931363881
1433.25,954.261827563784
1433.5,954.134891001237
1433.75,952.12982382269
1434,949.071895632085
1434.25,946.258743633366
1434.5,944.988374643826
1434.75,946.052657883656
1435,948.60022815071
1435.25,951.446823572844
1435.5,953.415708316427
1435.75,953.962418854032
1436,953.643563065074
1436.25,953.126177243641
1436.5,953.059802696262
1436.75,953.647032022884
1437,954.617253134156
1437.25,955.677102391893
1437.5,956.556548031216
1437.75,957.257220634927
1438,957.956220890195
1438.25,958.83358316814
1438.5,960.019548970274
1438.75,961.322560994937
1439,962.423113881198
1439.25,963.001375819964
1439.5,962.85251407497
1439.75,962.222873995133
1440,961.469432999711
1440.25,960.948849750559
1440.5,960.886199009817
1440.75,961.172672805033
1441,961.647298133645
1441.25,962.149229373598
1441.5,962.526676035713
1441.75,962.642761691927
1442,962.362001328694
1442.25,961.555798244843
1442.5,960.285530012518
1442.75,958.82192409798
1443,957.446482865329
1443.25,956.432328151905
1443.5,955.934294701533
1443.75,956.019664501637
1444,956.753660842559
1444.25,958.152287478265
1444.5,959.852218080715
1444.75,961.313821088658
1445,961.996489302173
1445.25,961.542976787417
1445.5,960.425282088649
1445.75,959.349712564952
1446,959.022291122015
1446.25,959.852444187887
1446.5,961.396732217245
1446.75,963.059356758365
1447,964.247255991097
1447.25,964.628367643356
1447.5,964.343606373612
1447.75,963.583775865141
1448,962.537843867717
1448.25,961.330972455896
1448.5,960.009567299579
1448.75,958.615166387114
1449,957.196380998508
1449.25,955.922552197645
1449.5,955.064218055204
1449.75,954.895045195109
1450,955.630683064921
1450.25,956.956938858766
1450.5,958.275890218436
1450.75,958.986923771747
1451,958.67337777675
1451.25,957.866866347507
1451.5,957.403690876675
1451.75,958.12013606429
1452,960.458673256089
1452.25,963.620412977464
1452.5,966.562482740524
1452.75,968.246905660836
1453,968.239952834378
1453.25,967.287879366912
1453.5,966.273416762733
1453.75,966.065037192575
1454,966.889869601239
1454.25,968.087761203132
1454.5,968.93348178744
1454.75,968.732963231308
1455,967.469322874711
1455.25,965.781597757629
1455.5,964.335732498048
1455.75,963.747772937651
1456,963.984883632796
1456.25,964.560423260205
1456.5,964.978437383698
1456.75,964.812088764006
1457,964.178680779115
1457.25,963.45307990553
1457.5,963.011691203135
1457.75,963.132021687341
1458,963.589098997679
1458.25,963.998759412295
1458.5,963.976825042332
1458.75,963.324957597775
1459,962.450359030651
1459.25,961.883360563754
1459.5,962.152671546187
1459.75,963.493207599555
1460,965.507412866082
1460.25,967.715611766658
1460.5,969.641343230871
1460.75,970.963515410342
1461,971.582463408239
1461.25,971.415470433791
1461.5,970.393244649749
1461.75,968.771803209761
1462,967.141932520404
1462.25,966.10973648159
1462.5,966.236891688999
1462.75,967.43361593088
1463,969.115351749008
1463.25,970.685196464649
1463.5,971.60201281332
1463.75,971.824485826732
1464,971.574915107906
1464.25,971.077972773254
1464.5,970.535300738342
1464.75,970.006505276638
1465,969.497095464374
1465.25,969.012474291458
1465.5,968.566598755024
1465.75,968.210478719455
1466,968.005154304647
1466.25,968.011681752532
1466.5,968.313754439253
1466.75,969.062808713213
1467,970.422898651618
1467.25,972.556388798225
1467.5,975.361757856648
1467.75,978.189407861527
1468,980.321504379784
1468.25,981.048504360303
1468.5,980.142727279291
1468.75,978.114533637262
1469,975.536748591156
1469.25,972.97807632481
1469.5,970.859439234194
1469.75,969.416677694091
1470,968.873932404499
1470.25,969.432516601072
1470.5,970.810611842458
1470.75,972.265459322497
1471,973.035914109453
1471.25,972.43724365432
1471.5,970.757008584466
1471.75,968.952391861544
1472,967.993802883025
1472.25,968.692522695283
1472.5,970.475969102784
1472.75,972.059501672211
1473,972.152609623221
1473.25,969.780789234198
1473.5,965.795918566698
1473.75,961.704541673825
1474,959.014041905763
1474.25,958.834428169648
1474.5,960.640118408772
1474.75,963.484777326611
1475,966.422620185957
1475.25,968.735207613374
1475.5,970.280938176075
1475.75,971.00832887757
1476,970.86825136576
1476.25,970.008262270826
1476.5,968.917802116873
1476.75,968.120518451661
1477,968.126249635803
1477.25,968.928977505667
1477.5,969.864456367661
1477.75,970.225625879571
1478,969.34798101459
1478.25,967.402213450236
1478.5,965.32146948662
1478.75,964.066864442592
1479,964.503804989613
1479.25,966.33675673084
1479.5,968.497585450795
1479.75,969.904176950537
1480,969.630936793115
1480.25,967.912240318551
1480.5,965.503615998255
1480.75,963.163077507053
1481,961.537754120987
1481.25,960.709150825447
1481.5,960.578882069542
1481.75,961.048484341955
1482,962.008318951282
1482.25,963.312192330128
1482.5,964.806448392683
1482.75,966.337473443403
1483,967.758440150112
1483.25,968.936702675863
1483.5,969.741393587253
1483.75,970.045491247747
1484,969.914460322988
1484.25,969.691980601387
1484.5,969.743456128299
1484.75,970.416361624949
1485,971.603660948868
1485.25,972.719087202823
1485.5,973.153495839819
1485.75,972.353480217364
1486,970.600255516257
1486.25,968.81784647803
1486.5,967.946831402851
1486.75,968.80618040056
1487,970.993615197938
1487.25,973.401648222639
1487.5,974.91425146222
1487.75,974.625863546848
1488,973.018264433209
1488.25,971.13485025004
1488.5,970.020604717818
1488.75,970.491445573847
1489,972.253080497874
1489.25,974.675333520894
1489.5,977.127981743453
1489.75,979.151065886168
1490,980.860225779703
1490.25,982.492614182086
1490.5,984.284972530439
1490.75,986.284989652603
1491,988.05207406076
1491.25,989.067859528086
1491.5,988.816028594528
1491.75,987.152709274095
1492,984.736489477056
1492.25,982.33024903633
1492.5,980.693049067007
1492.75,980.150765360777
1493,980.203065568499
1493.25,980.256765582225
1493.5,979.725511659003
1493.75,978.434596086002
1494,976.84841358804
1494.25,975.486458475901
1494.5,974.856405480954
1494.75,975.039449223663
1495,975.58114391721
1495.25,975.993036069781
1495.5,975.809470297975
1495.75,975.058602749365
1496,974.246005153789
1496.25,973.896766987653
1496.5,974.482029076214
1496.75,975.693957818721
1497,976.639194866247
1497.25,976.410114233965
1497.5,974.237441001431
1497.75,970.716307979836
1498,967.218619587353
1498.25,965.1252811234
1498.5,965.545305926585
1498.75,967.637078721986
1499,969.707205285809
1499.25,970.058732828349
1499.5,967.503362806262
1499.75,963.221524067715
1500,959.082631943361
1500.25,956.955963007903
1500.5,957.925454291554
1500.75,960.522358121603
1501,962.760168396118
1501.25,962.661800516737
1501.5,959.490995638072
1501.75,954.977589853206
1502,951.142765960565
1502.25,949.969031978883
1502.5,951.839981930928
1502.75,955.005204311593
1503,957.56579105139
1503.25,957.740362223788
1503.5,955.578884146337
1503.75,952.579271241528
1504,950.278957629463
1504.25,950.03556544495
1504.5,951.682504527123
1504.75,954.285349597638
1505,956.903819045894
1505.25,958.772467093947
1505.5,959.919064360929
1505.75,960.596220874979
1506,961.056480570884
1506.25,961.499851291043
1506.5,961.983350699372
1506.75,962.539897653705
1507,963.201621021658
1507.25,963.932153063178
1507.5,964.574631057517
1507.75,964.959950811096
1508,964.924382077119
1508.25,964.476186467847
1508.5,963.827767085699
1508.75,963.203390156009
1509,962.820352631968
1509.25,962.780365078177
1509.5,963.089997836412
1509.75,963.752989847723
1510,964.757790077112
1510.25,965.946873352462
1510.5,967.081713370375
1510.75,967.922918978025
1511,968.31471236719
1511.25,968.60221944604
1511.5,969.316261591806
1511.75,970.987964179787
1512,973.921481356045
1512.25,977.498911971989
1512.5,980.868243342759
1512.75,983.177822006836
1513,983.935224199763
1513.25,983.681838142221
1513.5,983.143894401762
1513.75,983.046485845756
1514,983.794454673526
1514.25,985.034729238028
1514.5,986.304606482537
1514.75,987.143390175759
1515,987.340148395576
1515.25,987.172806024416
1515.5,986.975985264669
1515.75,987.081951019905
1516,987.639533136989
1516.25,988.486031213563
1516.5,989.428493516043
1516.75,990.276400915518
1517,990.967861423742
1517.25,991.630982118997
1517.5,992.409165647288
1517.75,993.439623506228
1518,994.606374726734
1518.25,995.45710543247
1518.5,995.516261097211
1518.75,994.328723128515
1519,992.148872079554
1519.25,990.106416153257
1519.5,989.385124526091
1519.75,991.130823522277
1520,995.309510613745
1520.25,1000.50632085149
1520.5,1005.22792744663
1520.75,1008.01890635098
1521,1008.38390507646
1521.25,1006.83942720195
1521.5,1003.95024490948
1521.75,1000.28344115805
1522,996.47346493496
1522.25,993.231127715203
1522.5,991.271359909935
1522.75,991.282662390005
1523,993.150501499008
1523.25,995.831106525612
1523.5,998.228868011453
1523.75,999.279590877135
1524,998.713453404194
1524.25,997.097096614487
1524.5,995.037000819147
1524.75,993.129711137761
1525,991.725524559423
1525.25,990.91821234233
1525.5,990.789553955664
1525.75,991.415835975483
1526,992.751878949264
1526.25,994.633683158978
1526.5,996.892285226528
1526.75,999.360999660852
1527,1001.91600685509
1527.25,1004.47164672822
1527.5,1006.9435918217
1527.75,1009.24042145868
1528,1011.14180537122
1528.25,1012.31506583271
1528.5,1012.42376397313
1528.75,1011.15820993747
1529,1008.76780364084
1529.25,1006.03151881697
1529.5,1003.74916958003
1529.75,1002.69598471427
1530,1003.00272449775
1530.25,1004.10846998008
1530.5,1005.41825994039
1530.75,1006.35147176325
1531,1006.72649437779
1531.25,1006.80345521309
1531.5,1006.86539342603
1531.75,1007.18775958447
1532,1007.80670816079
1532.25,1008.47640209057
1532.5,1008.93480441753
1532.75,1008.92637259806
1533,1008.4347588197
1533.25,1007.74686855396
1533.5,1007.16913995843
1533.75,1007.00492495316
1534,1007.41632744934
1534.25,1008.36861354501
1534.5,1009.81245987655
1534.75,1011.69623434774
1535,1013.84117073502
1535.25,1015.87772914452
1535.5,1017.42067216758
1535.75,1018.08719169056
1536,1017.68001844877
1536.25,1016.31502641556
1536.5,1014.13825239329
1536.75,1011.29666096824
1537,1008.07582349792
1537.25,1005.04598723422
1537.5,1002.81237630333
1537.75,1001.9787591789
1538,1002.75508515403
1538.25,1004.42656526833
1538.5,1006.14582019681
1538.75,1007.06662533659
1539,1006.69304956238
1539.25,1005.37025650726
1539.5,1003.567055193
1539.75,1001.75190441626
1540,1000.22550829152
1540.25,998.852425127508
1540.5,997.427242591626
1540.75,995.744792717211
1541,993.735475508916
1541.25,991.690235153319
1541.5,989.959291247022
1541.75,988.892324230984
1542,988.615459477816
1542.25,988.687146773896
1542.5,988.577071215679
1542.75,987.756405899592
1543,986.018233670381
1543.25,983.877056083104
1543.5,981.945484551302
1543.75,980.833452418686
1544,980.815414224766
1544.25,981.508033513219
1544.5,982.45151944894
1544.75,983.18887233562
1545,983.444209509611
1545.25,983.230522329203
1545.5,982.586628202416
1545.75,981.552994952936
1546,980.237897440208
1546.25,978.839864252171
1546.5,977.563679125219
1546.75,976.611318160336
1547,976.107358716654
1547.25,976.091104536408
1547.5,976.597472114611
1547.75,977.63917456309
1548,978.829362583544
1548.25,979.435059782135
1548.5,978.711842541058
1548.75,976.022761941743
1549,972.073341070761
1549.25,968.481563210837
1549.5,966.882844132316
1549.75,968.686850133006
1550,973.238356132132
1550.25,978.774990246831
1550.5,983.52383451629
1550.75,986.003636262709
1551,986.477203288711
1551.25,985.85278950586
1551.5,985.039692900612
1551.75,984.773228848081
1552,984.933373363974
1552.25,985.137688004221
1552.5,985.00366493049
1552.75,984.264197549629
1553,983.125635325357
1553.25,981.915730174635
1553.5,980.962225547587
1553.75,980.520883488194
1554,980.600772611519
1554.25,981.158155810988
1554.5,982.149189238767
1554.75,983.457066117925
1555,984.765015130495
1555.25,985.722314401002
1555.5,985.979837755997
1555.75,985.527216130457
1556,985.110122406128
1556.25,985.576562565393
1556.5,987.769137880302
1556.75,991.913805906679
1557,997.058479184053
1557.25,1002.11841206311
1557.5,1006.01644085715
1557.75,1008.22525842237
1558,1009.1294332666
1558.25,1009.19937924949
1558.5,1008.90311133418
1558.75,1008.50407247238
1559,1007.90773738944
1559.25,1006.98345845768
1559.5,1005.6023153507
1559.75,1003.83959640357
1560,1002.16464046443
1560.25,1001.09170597861
1560.5,1001.13258288416
1560.75,1002.42518738017
1561,1004.33688983571
1561.25,1006.13999711949
1561.5,1007.10884645627
1561.75,1006.8388072225
1562,1005.59405234151
1562.25,1003.72232185223
1562.5,1001.57147529005
1562.75,999.515802863411
1563,997.989113364815
1563.25,997.43335450273
1563.5,998.289070523971
1563.75,1000.65213371409
1564,1003.8248582152
1564.25,1006.99827380275
1564.5,1009.36488446342
1564.75,1010.44228911537
1565,1010.4796848138
1565.25,1009.82623746835
1565.5,1008.83078218813
1565.75,1007.71952818853
1566,1006.41324096222
1566.25,1004.78592311303
1566.5,1002.71181848594
1566.75,1000.23945042641
1567,997.898603372087
1567.25,996.301432339611
1567.5,996.059719942667
1567.75,997.433271689864
1568,999.675808540109
1568.25,1001.86244785731
1568.5,1003.06900271177
1568.75,1002.83109079048
1569,1001.93859829122
1569.25,1001.39330342867
1569.5,1002.19633240431
1569.75,1004.79068525989
1570,1008.0435356704
1570.25,1010.54592042055
1570.5,1010.88954920848
1570.75,1008.36121961884
1571,1004.25580963365
1571.25,1000.22869148955
1571.5,997.935106444188
1571.75,998.472915264228
1572,1001.10797180605
1572.25,1004.73029749657
1572.5,1008.2299983102
1572.75,1010.75667657255
1573,1012.29261099691
1573.25,1012.98675926102
1573.5,1012.98807900752
1573.75,1012.44499133743
1574,1011.50402467516
1574.25,1010.31129031792
1574.5,1009.01289956289
1574.75,1007.75958573583
1575,1006.72112793395
1575.25,1006.07221029122
1575.5,1005.98751694627
1575.75,1006.56026402864
1576,1007.5097495782
1576.25,1008.44806078496
1576.5,1008.98727583729
1576.75,1008.81610164583
1577,1008.00123535557
1577.25,1006.72572109488
1577.5,1005.1726351776
1577.75,1003.50541352942
1578,1001.7794433958
1578.25,1000.01315332589
1578.5,998.224939589032
1578.75,996.485497988331
1579,995.1713488855
1579.25,994.769848886598
1579.5,995.768508919487
1579.75,998.482101422869
1580,1002.2402072432
1580.25,1006.02366384285
1580.5,1008.81290304248
1580.75,1009.78027483505
1581,1009.14000873289
1581.25,1007.45821649876
1581.5,1005.30128392105
1581.75,1003.19898327298
1582,1001.45913881633
1582.25,1000.30638323338
1582.5,999.965202387211
1582.75,1000.55537974119
1583,1001.52147768448
1583.25,1002.0401119581
1583.5,1001.2872223241
1583.75,998.650399284968
1584,994.881665730626
1584.25,991.274310729771
1584.5,989.122986230294
1584.75,989.451148329275
1585,991.512560363729
1585.25,993.85112786674
1585.5,995.008850883128
1585.75,993.861300221466
1586,991.182474599382
1586.25,988.417034527026
1586.5,987.010408210235
1586.75,988.073742194646
1587,990.929245218984
1587.25,994.303180391522
1587.5,996.921403317359
1587.75,997.787462612566
1588,997.174135418258
1588.25,995.716613152336
1588.5,994.050115087833
1588.75,992.708326991986
1589,991.777469874461
1589.25,991.220535565412
1589.5,991.000512124629
1589.75,991.069016150827
1590,991.331049667008
1590.25,991.679671902178
1590.5,992.007942413374
1590.75,992.225564454982
1591,992.303467039743
1591.25,992.226654219845
1591.5,991.980140082885
1591.75,991.604079906978
1592,991.322950848664
1592.25,991.399698452916
1592.5,992.097161304457
1592.75,993.500664474501
1593,995.155836214785
1593.25,996.506114374221
1593.5,996.995343401207
1593.75,996.366701004969
1594,995.19205698367
1594.25,994.185500398224
1594.5,994.060526989528
1594.75,995.189915424098
1595,997.035635839774
1595.25,998.909086823454
1595.5,1000.12255976494
1595.75,1000.32216737695
1596,999.986782614682
1596.25,999.722984712914
1596.5,1000.1363816297
1596.75,1001.470101119
1597,1003.06331561578
1597.25,1004.11662353998
1597.5,1003.83199631176
1597.75,1001.92284614901
1598,999.377598845238
1598.25,997.380065635249
1598.5,997.112731735345
1598.75,999.108880356374
1599,1002.20808181464
1599.25,1004.97716439227
1599.5,1005.98462446364
1599.75,1004.46009905061
1600,1001.29926137608
1600.25,997.656122084943
1600.5,994.684075328985
1600.75,993.158600413515
1601,992.835251320165
1601.25,993.299237972643
1601.5,994.136093801266
1601.75,995.068009749644
1602,996.165275922092
1602.25,997.55279857633
1602.5,999.355109269696
1602.75,1001.58857885555
1603,1004.01234167087
1603.25,1006.34811800123
1603.5,1008.31786389109
1603.75,1009.70767782767
1604,1010.4544415906
1604.25,1010.51668366708
1604.5,1009.85320703167
1604.75,1008.54636093616
1605,1006.99650540576
1605.25,1005.65446760699
1605.5,1004.9708279821
1605.75,1005.14161394552
1606,1005.62756218437
1606.25,1005.75742798656
1606.5,1004.86016139038
1606.75,1002.61209800592
1607,999.753145406556
1607.25,997.226060407995
1607.5,995.973490666879
1607.75,996.547229952236
1608,998.230149035274
1608.25,1000.04805846539
1608.5,1001.02695461955
1608.75,1000.56599921251
1609,999.219584817117
1609.25,997.764973625364
1609.5,996.979314403693
1609.75,997.380853534438
1610,998.677117777541
1610.25,1000.41737238619
1610.5,1002.15095639577
1610.75,1003.54236256168
1611,1004.60405503381
1611.25,1005.41396925251
1611.5,1006.05002716797
1611.75,1006.56336086726
1612,1006.92225202935
1612.25,1007.07901549555
1612.5,1006.98597273796
1612.75,1006.62801403492
1613,1006.09811644008
1613.25,1005.51165014184
1613.5,1004.98398484906
1613.75,1004.61767626633
1614,1004.4690717849
1614.25,1004.58410656469
1614.5,1005.00871558225
1614.75,1005.7287775938
1615,1006.50032154252
1615.25,1007.02439659596
1615.5,1007.00205192165
1615.75,1006.29608759159
1616,1005.42640791748
1616.25,1005.07975772274
1616.5,1005.94288185341
1616.75,1008.47943514103
1617,1012.16764680058
1617.25,1016.21374689675
1617.5,1019.82395658863
1617.75,1022.3542489376
1618,1023.87139367305
1618.25,1024.65283383757
1618.5,1024.97604541813
1618.75,1025.09366843942
1619,1025.10791954868
1619.25,1025.06467833917
1619.5,1025.00972551569
1619.75,1024.96461086337
1620,1024.74909277956
1620.25,1024.08276652165
1620.5,1022.68450484825
1620.75,1020.3352018564
1621,1017.54529984155
1621.25,1015.30000936182
1621.5,1014.5926396714
1621.75,1016.33463929035
1622,1020.08557846951
1622.25,1024.29531280936
1622.5,1027.38086223563
1622.75,1027.82760135232
1623,1025.58322109685
1623.25,1021.99918999655
1623.5,1018.48361738214
1623.75,1016.42181841302
1624,1016.33245298556
1624.25,1017.61950006441
1624.5,1019.61355222173
1624.75,1021.6501082956
1625,1023.35368286738
1625.25,1024.79370968379
1625.5,1026.07754023482
1625.75,1027.3119305413
1626,1028.53300371674
1626.25,1029.64045985135
1626.5,1030.51842997863
1626.75,1031.05098279708
1627,1031.09125683252
1627.25,1030.41152640315
1627.5,1028.77101440181
1627.75,1025.92894567044
1628,1021.89371657695
1628.25,1017.61168372033
1628.5,1014.24986771005
1628.75,1012.97528915561
1629,1014.60547045764
1629.25,1018.15946442507
1629.5,1022.07946020508
1629.75,1024.80738130139
1630,1025.04539119989
1630.25,1023.06550573907
1630.5,1019.72548610466
1630.75,1015.88409585001
1631,1012.3521628432
1631.25,1009.54302304402
1631.5,1007.67341708777
1631.75,1006.95868690544
1632,1007.57464925045
1632.25,1009.29574923958
1632.5,1011.66264540608
1632.75,1014.21308891737
1633,1016.49430898849
1633.25,1018.15974618596
1633.5,1018.92952491189
1633.75,1018.52480116422
1634,1016.70791262192
1634.25,1013.81783749559
1634.5,1010.61805230988
1634.75,1007.88188903099
1635,1006.35578982363
1635.25,1006.28131222298
1635.5,1007.45117132298
1635.75,1009.64244951648
1636,1012.62538417275
1636.25,1016.02479394031
1636.5,1019.32645712645
1636.75,1022.01058349533
1637,1023.56741776169
1637.25,1023.74972979627
1637.5,1022.59174922388
1637.75,1020.14153329809
1638,1016.45385156567
1638.25,1011.87549849605
1638.5,1007.15165090781
1638.75,1003.0561146614
1639,1000.35793309554
1639.25,999.484599264182
1639.5,1000.29935152955
1639.75,1002.6125751618
1640,1006.2311451641
1640.25,1010.70238055304
1640.5,1015.14029737979
1640.75,1018.61776501051
1641,1020.21459912871
1641.25,1019.61548816917
1641.5,1017.57062565974
1641.75,1014.93864099635
1642,1012.5763762355
1642.25,1010.98873783538
1642.5,1009.90827099826
1642.75,1008.96497886299
1643,1007.78935673997
1643.25,1006.21698420378
1643.5,1004.60464570956
1643.75,1003.39069791578
1644,1003.01322417643
1644.25,1003.69940897124
1644.5,1005.08890548958
1644.75,1006.71986279866
1645,1008.13055799016
1645.25,1008.98951577208
1645.5,1009.3408657713
1645.75,1009.29603978616
1646,1008.96649128357
1646.25,1008.52005686467
1646.5,1008.30310783742
1646.75,1008.69726924211
1647,1010.08415197818
1647.25,1012.63640800044
1647.5,1015.79067608656
1647.75,1018.82162907813
1648,1021.00393982067
1648.25,1021.83622270761
1648.5,1021.70591201413
1648.75,1021.2209238537
1649,1020.98917433981
1649.25,1021.4456855545
1649.5,1022.14209240065
1649.75,1022.34862946681
1650,1021.33541158397
1650.25,1018.55644340643
1650.5,1014.68248623207
1650.75,1010.87855702949
1651,1008.31109688696
1651.25,1007.99857798643
1651.5,1009.67566519169
1651.75,1012.41772049645
1652,1015.29470827033
1652.25,1017.43463350449
1652.5,1018.52639439581
1652.75,1018.57314426721
1653,1017.58149774912
1653.25,1015.5957827759
1653.5,1013.11753128393
1653.75,1010.95241847146
1654,1009.91161711189
1654.25,1010.75067558154
1654.5,1013.34949121003
1654.75,1016.89100313739
1655,1020.53884931907
1655.25,1023.4842733194
1655.5,1025.43163511931
1655.75,1026.53867174957
1656,1026.97872056326
1656.25,1026.92328359689
1656.5,1026.49240148634
1656.75,1025.74892135344
1657,1024.75270457109
1657.25,1023.56461475085
1657.5,1022.29842057133
1657.75,1021.14598665819
1658,1020.30545881698
1658.25,1019.97375974671
1658.5,1020.20794966012
1658.75,1020.79772327389
1659,1021.50264413916
1659.25,1022.08246749461
1659.5,1022.35345668743
1659.75,1022.26681509781
1660,1021.7934620096
1660.25,1020.90436053281
1660.5,1019.65310156088
1660.75,1018.34758280719
1661,1017.34446831941
1661.25,1017.00042213912
1661.5,1017.58486190974
1661.75,1019.02251406812
1662,1021.15299266763
1662.25,1023.81591176168
1662.5,1026.83807566278
1662.75,1029.98422167762
1663,1033.00031458797
1663.25,1035.63231513066
1663.5,1037.63048332206
1663.75,1038.77303698302
1664,1038.84937297418
1664.25,1037.64891762697
1664.5,1035.04480198995
1664.75,1031.78500773154
1665,1029.13854890819
1665.25,1028.38136691503
1665.5,1030.66045492749
1665.75,1034.73817851885
1666,1037.27642343018
1666.25,1034.86524367104
1666.5,1024.23803861835
1666.75,1006.75768838682
1667,989.305989847948
1667.25,979.087696390981
1667.5,983.221967560173
1667.75,1002.84465772951
1668,1029.29416193246
1668.25,1053.00180278214
1668.5,1064.56087831516
1668.75,1061.13172943712
1669,1048.56523914976
1669.25,1033.30944368481
1669.5,1021.80757012015
1669.75,1018.15739246644
1670,1020.3413086744
1670.25,1025.35759205959
1670.5,1030.2046071375
1670.75,1032.58812441183
1671,1032.62730321545
1671.25,1030.95551951991
1671.5,1028.20614929675
1671.75,1025.02224774596
1672,1022.09418594461
1672.25,1020.1267707561
1672.5,1019.8248125744
1672.75,1021.69194987144
1673,1024.84324973742
1673.25,1027.80787387278
1673.5,1029.11291741588
1673.75,1027.49878325765
1674,1023.6157108463
1674.25,1019.12034844913
1674.5,1015.67837466605
1674.75,1014.83413837555
1675,1016.48903329329
1675.25,1019.3625000969
1675.5,1022.1479963318
1675.75,1023.59684432812
1676,1023.45536329789
1676.25,1022.30777703586
1676.5,1020.76446456062
1676.75,1019.42812648024
1677,1018.70118159235
1677.25,1018.77165602707
1677.5,1019.81707123104
1677.75,1022.00326403616
1678,1025.02537401371
1678.25,1027.95739309567
1678.5,1029.830811055
1678.75,1029.68721323552
1679,1027.28883487547
1679.25,1023.58654302915
1679.5,1019.64230778789
1679.75,1016.51627448367
1680,1014.82912160051
1680.25,1014.19382515597
1680.5,1014.08269579063
1680.75,1013.9682266571
1681,1013.46297619534
1681.25,1012.56941981695
1681.5,1011.35734460711
1681.75,1009.89654653647
1682,1008.29344363097
1682.25,1006.77455643314
1682.5,1005.5909884272
1682.75,1004.99384093361
1683,1005.11001714769
1683.25,1005.6077196852
1683.5,1006.04927915086
1683.75,1005.99702620102
1684,1005.18611140368
1684.25,1004.02914993622
1684.5,1003.10473811762
1684.75,1002.99147226685
1685,1004.05426338239
1685.25,1005.7581344182
1685.5,1007.3312597958
1685.75,1008.00181280053
1686,1007.24340566174
1686.25,1005.60081326795
1686.5,1003.91095157838
1686.75,1003.01074311747
1687,1003.48057270228
1687.25,1004.6684150398
1687.5,1005.55261530703
1687.75,1005.11144863854
1688,1002.63156527383
1688.25,998.935246286552
1688.5,995.321848010145
1688.75,993.090876079072
1689,993.240372822678
1689.25,995.173764553268
1689.5,997.7691923576
1689.75,999.904475913848
1690,1000.68126821823
1690.25,1000.28845006334
1690.5,999.244540571808
1690.75,998.068132500974
1691,997.21765645945
1691.25,996.859418952883
1691.5,997.071187274779
1691.75,997.93070904047
1692,999.441348564911
1692.25,1001.25403500951
1692.5,1002.91542125004
1692.75,1003.97214432915
1693,1004.09579053647
1693.25,1003.53566140442
1693.5,1002.70791116697
1693.75,1002.0287103149
1694,1001.8315245196
1694.25,1002.04865761807
1694.5,1002.49095124635
1694.75,1002.969220453
1695,1003.3275350095
1695.25,1003.57515955531
1695.5,1003.77255720951
1695.75,1003.98020661975
1696,1004.23218144513
1696.25,1004.42657520193
1696.5,1004.41783314399
1696.75,1004.06038025732
1697,1003.26728329539
1697.25,1002.26856105446
1697.5,1001.40082755936
1697.75,1001.00077664539
1698,1001.30244709688
1698.25,1001.95740273601
1698.5,1002.41202178359
1698.75,1002.11245288889
1699,1000.66466702206
1699.25,998.592367564771
1699.5,996.746212206074
1699.75,995.977258534753
1700,996.943750463382
1700.25,999.169549335851
1700.5,1001.76503652029
1700.75,1003.8399930533
1701,1004.68128995113
1701.25,1004.5673181749
1701.5,1004.12135544728
1701.75,1003.96702736995
1702,1004.5940856833
1702.25,1005.70522239365
1702.5,1006.7164398891
1702.75,1007.04332633253
1703,1006.19715515923
1703.25,1004.28009044874
1703.5,1001.6196189755
1703.75,998.543672803674
1704,995.3934996983
1704.25,992.600072971446
1704.5,990.631417259108
1704.75,989.955673945764
1705,990.900083893431
1705.25,992.866384156337
1705.5,994.882853327417
1705.75,995.976733088209
1706,995.388471753322
1706.25,993.59486772605
1706.5,991.517281300187
1706.75,990.077656432599
1707,990.025676519371
1707.25,991.160305428873
1707.5,992.954307530497
1707.75,994.880154495761
1708,996.498535649765
1708.25,997.80113218159
1708.5,998.911043350686
1708.75,999.951400297112
1709,1001.0319940968
1709.25,1002.20127947709
1709.5,1003.49009371814
1709.75,1004.92927256568
1710,1006.48324861345
1710.25,1007.81124536904
1710.5,1008.4848523004
1710.75,1008.07565129708
1711,1006.34171707379
1711.25,1003.95128955019
1711.5,1001.84985114975
1711.75,1000.98295056841
1712,1002.03926298752
1712.25,1004.32641967102
1712.5,1006.68994132315
1712.75,1007.97501887935
1713,1007.30545856307
1713.25,1005.32086411075
1713.5,1003.17383822694
1713.75,1002.01739075827
1714,1002.81364789382
1714.25,1005.37935669155
1714.5,1009.10600742766
1714.75,1013.38438690393
1715,1017.61823939176
1715.25,1021.29098204775
1715.5,1023.91629250205
1715.75,1025.00790666351
1716,1024.18735552763
1716.25,1021.86664068866
1716.5,1018.8096424299
1716.75,1015.78184978838
1717,1013.49764068266
1717.25,1012.14842939836
1717.5,1011.61922977395
1717.75,1011.79117685973
1718,1012.53790292573
1718.25,1013.63776422028
1718.5,1014.80359349577
1718.75,1015.74693390599
1719,1016.19612659169
1719.25,1016.13612155867
1719.5,1015.75213271998
1719.75,1015.23468541654
1720,1014.7778567286
1720.25,1014.64667620141
1720.5,1015.17162831219
1720.75,1016.68564752858
1721,1019.49870764142
1721.25,1023.31324262307
1721.5,1027.1764307667
1721.75,1030.1029294117
1722,1031.12880174239
1722.25,1030.12649835373
1722.5,1028.05742316301
1722.75,1025.95600429933
1723,1024.8498826119
1723.25,1025.11891776387
1723.5,1025.96882096963
1723.75,1026.48142190824
1724,1025.7410398779
1724.25,1023.57146468142
1724.5,1021.56488502408
1724.75,1021.57228611769
1725,1025.4443887346
1725.25,1034.14291960425
1725.5,1045.75698736317
1725.75,1057.79655313645
1726,1067.77157804921
1726.25,1073.91510995198
1726.5,1077.60974116733
1726.75,1081.09536612706
1727,1086.61189728866
1727.25,1096.12364588313
1727.5,1108.74713563673
1727.75,1121.91767075972
1728,1133.04878027451
1728.25,1139.58736597707
1728.5,1140.83885052082
1728.75,1138.90956308939
1729,1136.13767965873
1729.25,1134.86137620474
1729.5,1137.10041783423
1729.75,1142.45989501865
1730,1149.43812427171
1730.25,1156.52765418069
1730.5,1162.22604748334
1730.75,1165.62496236815
1731,1166.96315432073
1731.25,1166.61023932847
1731.5,1164.93583337881
1731.75,1162.30828791102
1732,1159.07763861672
1732.25,1155.58012516074
1732.5,1152.15164942075
1732.75,1149.12811327446
1733,1146.87086503105
1733.25,1145.85868545013
1733.5,1146.60420832096
1733.75,1149.62007061001
1734,1155.40266226943
1734.25,1163.6184679242
1734.5,1172.7246722249
1734.75,1181.08294615431
1735,1187.05496069521
1735.25,1189.17357701452
1735.5,1187.48846812377
1735.75,1182.84182142735
1736,1176.08272565881
1736.25,1168.06026955172
1736.5,1159.60575562231
1736.75,1151.47778836504
1737,1144.41640104181
1737.25,1139.16162690768
1737.5,1136.443972863
1737.75,1136.36782686894
1738,1138.03436241423
1738.25,1140.45451285511
1738.5,1142.63921154782
1738.75,1143.68806135704
1739,1143.4157739693
1739.25,1141.98256183563
1739.5,1139.55088029425
1739.75,1136.28315362685
1740,1132.33532168842
1740.25,1127.84890530811
1740.5,1122.96348183428
1740.75,1117.81862861529
1741,1112.58567693089
1741.25,1107.82354987988
1741.5,1104.35028005396
1741.75,1102.98864397229
1742,1104.5594059589
1742.25,1109.39345639533
1742.5,1116.6958642149
1742.75,1125.51414291198
1743,1134.89580598096
1743.25,1143.98775626445
1743.5,1152.73709524509
1743.75,1161.47697848842
1744,1170.54305331222
1744.25,1180.26756057326
1744.5,1190.45090197499
1744.75,1199.78898729602
1745,1206.84023126607
1745.25,1210.16304861488
1745.5,1208.38796655268
1745.75,1201.70097085687
1746,1191.78828201618
1746.25,1180.39718370418
1746.5,1169.2749595944
1746.75,1160.06738104811
1747,1153.27098448147
1747.25,1148.65525309908
1747.5,1145.97818290362
1747.75,1144.99776978561
1748,1145.36080046826
1748.25,1146.28253999373
1748.5,1146.87360267865
1748.75,1146.24460283962
1749,1143.53590094849
1749.25,1138.86150890586
1749.5,1133.50365111258
1749.75,1128.81361562176
1750,1126.14269048652
1750.25,1126.52110779738
1750.5,1128.95573678562
1750.75,1131.66727628016
1751,1132.87467708455
1751.25,1130.82388866036
1751.5,1125.23695123765
1751.75,1118.04476687411
1752,1111.3592961354
1752.25,1107.29249958717
1752.5,1107.58000133463
1752.75,1111.33683310866
1753,1116.56355595699
1753.25,1121.25664046481
1753.5,1123.44410065366
1753.75,1122.44969691405
1754,1119.32175536487
1754.25,1115.22811282273
1754.5,1111.33660610425
1754.75,1108.58909900079
1755,1106.70116230243
1755.25,1104.97435071719
1755.5,1102.70989761529
1755.75,1099.23466939218
1756,1094.61104894867
1756.25,1089.72851410275
1756.5,1085.520570479
1756.75,1082.92067580816
1757,1082.44730145704
1757.25,1083.19459362918
1757.5,1083.95136207228
1757.75,1083.50641653407
1758,1080.81181808274
1758.25,1076.39601085901
1758.5,1071.6700969724
1758.75,1068.05488094166
1759,1066.9464011619
1759.25,1068.70230935804
1759.5,1072.28591191423
1759.75,1076.56261277144
1760,1080.39808979032
1760.25,1082.88191204488
1760.5,1083.73206905289
1760.75,1082.7759850164
1761,1079.84108413746
1761.25,1074.94391022612
1761.5,1069.50020320257
1761.75,1065.55340799275
1762,1065.14994287123
1762.25,1070.26154216781
1762.5,1081.0040789957
1762.75,1095.5574192323
1763,1112.0107066239
1763.25,1128.4567895477
1763.5,1143.63529347797
1763.75,1157.66612141159
1764,1170.84658097883
1764.25,1183.47397980997
1764.5,1195.7969321346
1764.75,1207.5885829636
1765,1218.35349237548
1765.25,1227.5931839048
1765.5,1234.80918108611
1765.75,1239.68785893791
1766,1242.72909398587
1766.25,1244.65648140899
1766.5,1246.19362294528
1766.75,1248.06411738309
1767,1250.85047682144
1767.25,1254.61680524994
1767.5,1259.30816838609
1767.75,1264.86963194741
1768,1271.24625688713
1768.25,1278.27378273703
1768.5,1285.39592172887
1768.75,1291.96854442526
1769,1297.34752138883
1769.25,1300.88872318218
1769.5,1302.24391311785
1769.75,1302.42945681319
1770,1302.85484353479
1770.25,1304.92959895598
1770.5,1310.0632487501
1770.75,1319.42447444352
1771,1332.07709534482
1771.25,1345.99748327781
1771.5,1359.15291287604
1771.75,1369.51065877308
1772,1375.0937006347
1772.25,1375.20070730781
1772.5,1370.40297404283
1772.75,1361.32688856572
1773,1348.59883860243
1773.25,1332.84521204286
1773.5,1314.91739101694
1773.75,1296.54255191226
1774,1279.66093559561
1774.25,1266.21278293374
1774.5,1258.13833479337
1774.75,1257.15299258888
1775,1262.45615321425
1775.25,1271.66922805434
1775.5,1282.38928867899
1775.75,1292.21340665802
1776,1298.91905233491
1776.25,1302.51806616286
1776.5,1304.53177633506
1776.75,1306.50990646354
1777,1310.00218016031
1777.25,1316.50635930962
1777.5,1326.13500123282
1777.75,1337.50082490369
1778,1349.14161536666
1778.25,1359.59515766613
1778.5,1367.40226806675
1778.75,1371.62222259216
1779,1372.41531648633
1779.25,1370.0825484272
1779.5,1364.92491709271
1779.75,1357.2434211608
1780,1347.35094539678
1780.25,1335.66251302989
1780.5,1322.64518568823
1780.75,1308.76643886465
1781,1294.49374805201
1781.25,1280.29681770461
1781.5,1266.77845403743
1781.75,1254.74740616418
1782,1245.03009614495
1782.25,1238.45294603986
1782.5,1235.83977418742
1782.75,1237.41893048717
1783,1242.06818106263
1783.25,1248.47908785429
1783.5,1255.34321280264
1783.75,1261.35478572017
1784,1265.5299300772
1784.25,1267.50944111626
1784.5,1267.00581603968
1784.75,1263.73155204976
1785,1257.40128669733
1785.25,1248.12844224367
1785.5,1236.89059270714
1785.75,1224.77837169094
1786,1212.88241279827
1786.25,1202.29183171941
1786.5,1193.6395220538
1786.75,1186.46487171386
1787,1180.14683400259
1787.25,1174.06436222292
1787.5,1167.60894260772
1787.75,1160.80298224985
1788,1154.58291512342
1788.25,1149.95677953611
1788.5,1147.93261379562
1788.75,1149.26150432883
1789,1151.83581489843
1789.25,1151.76274003155
1789.5,1145.12227021939
1789.75,1127.9978419312
1790,1127.87156051937
1790.25,1127.74527910753
1790.5,1127.61899769569
1790.75,1127.49271628386
1791,1127.36643487202
1791.25,1127.24015346018
1791.5,1127.11387204835
1791.75,1126.98759063651
1792,1126.86130922468
1792.25,1126.73502781284
1792.5,1126.608746401
1792.75,1126.48246498917
1793,1126.35618357733
1793.25,1126.22990216549
1793.5,1126.10362075366
1793.75,1125.97733934182
1794,1125.85105792999
1794.25,1125.72477651815
1794.5,1125.59849510631
1794.75,1125.47221369448
1795,1125.34593228264
1795.25,1125.2196508708
1795.5,1125.09336945897
1795.75,1124.96708804713
1796,1124.8408066353
1796.25,1124.71452522346
1796.5,1124.58824381162
1796.75,1124.46196239979
1797,1124.33568098795
1797.25,1124.20939957611
1797.5,1124.08311816428
1797.75,1123.95683675244
1798,1123.83055534061
1798.25,1123.70427392877
1798.5,1123.57799251693
1798.75,1123.4517111051
1799,1123.32542969326
1799.25,1123.19914828142
1799.5,1123.07286686959
1799.75,1122.94658545775
1800,1122.82030404592
1800.25,1122.69402263408
1800.5,1122.56774122224
1800.75,1122.44145981041
1801,1122.31517839857
1801.25,1122.18889698673
1801.5,1122.0626155749
1801.75,1121.93633416306
1802,1121.81005275123
1802.25,1121.68377133939
1802.5,1121.55748992755
1802.75,1121.43120851572
1803,1121.30492710388
1803.25,1121.17864569204
1803.5,1121.05236428021
1803.75,1120.92608286837
1804,1120.79980145654
1804.25,1120.6735200447
1804.5,1120.54723863286
1804.75,1120.42095722103
1805,1120.29467580919
1805.25,1120.16839439735
1805.5,1120.04211298552
1805.75,1119.91583157368
1806,1119.78955016185
1806.25,1119.66326875001
1806.5,1119.53698733817
1806.75,1119.41070592634
1807,1119.2844245145
1807.25,1119.15814310266
1807.5,1119.03186169083
1807.75,1118.90558027899
1808,1118.77929886715
1808.25,1118.65301745532
1808.5,1118.52673604348
1808.75,1118.40045463165
1809,1118.27417321981
1809.25,1118.14789180797
1809.5,1118.02161039614
1809.75,1117.8953289843
1810,1117.76904757246
1810.25,1117.64276616063
1810.5,1117.51648474879
1810.75,1117.39020333696
1811,1117.26392192512
1811.25,1117.13764051328
1811.5,1117.01135910145
1811.75,1116.88507768961
1812,1116.75879627778
1812.25,1116.63251486594
1812.5,1116.5062334541
1812.75,1116.37995204227
1813,1116.25367063043
1813.25,1116.12738921859
1813.5,1116.00110780676
1813.75,1115.87482639492
1814,1115.74854498308
1814.25,1115.62226357125
1814.5,1115.49598215941
1814.75,1115.36970074758
1815,1115.24341933574
1815.25,1115.1171379239
1815.5,1114.99085651207
1815.75,1114.86457510023
1816,1114.73829368839
1816.25,1114.61201227656
1816.5,1114.48573086472
1816.75,1114.35944945289
1817,1114.23316804105
1817.25,1114.10688662921
1817.5,1113.98060521738
1817.75,1113.85432380554
1818,1113.7280423937
1818.25,1113.60176098187
1818.5,1113.47547957003
1818.75,1113.3491981582
1819,1113.22291674636
1819.25,1113.09663533452
1819.5,1112.97035392269
1819.75,1112.84407251085
1820,1112.71779109901
1820.25,1112.59150968718
1820.5,1112.46522827534
1820.75,1112.33894686351
1821,1112.21266545167
1821.25,1112.08638403983
1821.5,1111.960102628
1821.75,1111.83382121616
1822,1111.70753980432
1822.25,1111.58125839249
1822.5,1111.45497698065
1822.75,1111.32869556882
1823,1111.20241415698
1823.25,1111.07613274514
1823.5,1110.94985133331
1823.75,1110.82356992147
1824,1110.69728850963
1824.25,1110.5710070978
1824.5,1110.44472568596
1824.75,1110.31844427413
1825,1110.19216286229
1825.25,1110.06588145045
1825.5,1109.93960003862
1825.75,1109.81331862678
1826,1109.68703721494
1826.25,1109.56075580311
1826.5,1109.43447439127
1826.75,1109.30819297944
1827,1109.1819115676
1827.25,1109.05563015576
1827.5,1108.92934874393
1827.75,1108.80306733209
1828,1108.67678592025
1828.25,1108.55050450842
1828.5,1108.42422309658
1828.75,1108.29794168475
1829,1108.17166027291
1829.25,1108.04537886107
1829.5,1107.91909744924
1829.75,1107.7928160374
1830,1107.66653462556
1830.25,1107.54025321373
1830.5,1107.41397180189
1830.75,1107.28769039006
1831,1107.16140897822
1831.25,1107.03512756638
1831.5,1106.90884615455
1831.75,1106.78256474271
1832,1106.65628333087
1832.25,1106.53000191904
1832.5,1106.4037205072
1832.75,1106.27743909537
1833,1106.15115768353
1833.25,1106.02487627169
1833.5,1105.89859485986
1833.75,1105.77231344802
1834,1105.64603203618
1834.25,1105.51975062435
1834.5,1105.39346921251
1834.75,1105.26718780068
1835,1105.14090638884
1835.25,1105.014624977
1835.5,1104.88834356517
1835.75,1104.76206215333
1836,1104.63578074149
1836.25,1104.50949932966
1836.5,1104.38321791782
1836.75,1104.25693650599
1837,1104.13065509415
1837.25,1104.00437368231
1837.5,1103.87809227048
1837.75,1103.75181085864
1838,1103.6255294468
1838.25,1103.49924803497
1838.5,1103.37296662313
1838.75,1103.2466852113
1839,1103.12040379946
1839.25,1102.99412238762
1839.5,1102.86784097579
1839.75,1102.74155956395
1840,1102.61527815211
1840.25,1102.48899674028
1840.5,1102.36271532844
1840.75,1102.23643391661
1841,1102.11015250477
1841.25,1101.98387109293
1841.5,1101.8575896811
1841.75,1101.73130826926
1842,1101.60502685742
1842.25,1101.47874544559
1842.5,1101.35246403375
1842.75,1101.22618262192
1843,1101.09990121008
1843.25,1100.97361979824
1843.5,1100.84733838641
1843.75,1100.72105697457
1844,1100.59477556273
1844.25,1100.4684941509
1844.5,1100.34221273906
1844.75,1100.21593132723
1845,1100.08964991539
1845.25,1099.96336850355
1845.5,1099.83708709172
1845.75,1099.71080567988
1846,1099.58452426804
1846.25,1099.45824285621
1846.5,1099.33196144437
1846.75,1099.20568003254
1847,1099.0793986207
1847.25,1098.95311720886
1847.5,1098.82683579703
1847.75,1098.70055438519
1848,1098.57427297335
1848.25,1098.44799156152
1848.5,1098.32171014968
1848.75,1098.19542873785
1849,1098.06914732601
1849.25,1097.94286591417
1849.5,1097.81658450234
1849.75,1097.6903030905
1850,1097.56402167866
1850.25,1097.43774026683
1850.5,1097.31145885499
1850.75,1097.18517744316
1851,1097.05889603132
1851.25,1096.93261461948
1851.5,1096.80633320765
1851.75,1096.68005179581
1852,1096.55377038397
1852.25,1096.42748897214
1852.5,1096.3012075603
1852.75,1096.17492614847
1853,1096.04864473663
1853.25,1095.92236332479
1853.5,1095.79608191296
1853.75,1095.66980050112
1854,1095.54351908928
1854.25,1095.41723767745
1854.5,1095.29095626561
1854.75,1095.16467485378
1855,1095.03839344194
1855.25,1094.9121120301
1855.5,1094.78583061827
1855.75,1094.65954920643
1856,1094.53326779459
1856.25,1094.40698638276
1856.5,1094.28070497092
1856.75,1094.15442355909
1857,1094.02814214725
1857.25,1093.90186073541
1857.5,1093.77557932358
1857.75,1093.64929791174
1858,1093.5230164999
1858.25,1093.39673508807
1858.5,1093.27045367623
1858.75,1093.14417226439
1859,1093.01789085256
1859.25,1092.89160944072
1859.5,1092.76532802889
1859.75,1092.63904661705
1860,1092.51276520521
1860.25,1092.38648379338
1860.5,1092.26020238154
1860.75,1092.1339209697
1861,1092.00763955787
1861.25,1091.88135814603
1861.5,1091.7550767342
1861.75,1091.62879532236
1862,1091.50251391052
1862.25,1091.37623249869
1862.5,1091.24995108685
1862.75,1091.12366967501
1863,1090.99738826318
1863.25,1090.87110685134
1863.5,1090.74482543951
1863.75,1090.61854402767
1864,1090.49226261583
1864.25,1090.365981204
1864.5,1090.23969979216
1864.75,1090.11341838032
1865,1089.98713696849
1865.25,1089.86085555665
1865.5,1089.73457414482
1865.75,1089.60829273298
1866,1089.48201132114
1866.25,1089.35572990931
1866.5,1089.22944849747
1866.75,1089.10316708563
1867,1088.9768856738
1867.25,1088.85060426196
1867.5,1088.72432285013
1867.75,1088.59804143829
1868,1088.47176002645
1868.25,1088.34547861462
1868.5,1088.21919720278
1868.75,1088.09291579094
1869,1087.96663437911
1869.25,1087.84035296727
1869.5,1087.71407155544
1869.75,1087.5877901436
1870,1087.46150873176
1870.25,1087.33522731993
1870.5,1087.20894590809
1870.75,1087.08266449625
1871,1086.95638308442
1871.25,1086.83010167258
1871.5,1086.70382026075
1871.75,1086.57753884891
1872,1086.45125743707
1872.25,1086.32497602524
1872.5,1086.1986946134
1872.75,1086.07241320156
1873,1085.94613178973
1873.25,1085.81985037789
1873.5,1085.69356896606
1873.75,1085.56728755422
1874,1085.44100614238
1874.25,1085.31472473055
1874.5,1085.18844331871
1874.75,1085.06216190687
1875,1084.93588049504
1875.25,1084.8095990832
1875.5,1084.68331767137
1875.75,1084.55703625953
1876,1084.43075484769
1876.25,1084.30447343586
1876.5,1084.17819202402
1876.75,1084.05191061218
1877,1083.92562920035
1877.25,1083.79934778851
1877.5,1083.67306637668
1877.75,1083.54678496484
1878,1083.420503553
1878.25,1083.29422214117
1878.5,1083.16794072933
1878.75,1083.04165931749
1879,1082.91537790566
1879.25,1082.78909649382
1879.5,1082.66281508199
1879.75,1082.53653367015
1880,1082.41025225831
1880.25,1082.28397084648
1880.5,1082.15768943464
1880.75,1082.0314080228
1881,1081.90512661097
1881.25,1081.77884519913
1881.5,1081.6525637873
1881.75,1081.52628237546
1882,1081.40000096362
1882.25,1081.27371955179
1882.5,1081.14743813995
1882.75,1081.02115672811
1883,1080.89487531628
1883.25,1080.76859390444
1883.5,1080.64231249261
1883.75,1080.51603108077
1884,1080.38974966893
1884.25,1080.2634682571
1884.5,1080.13718684526
1884.75,1080.01090543342
1885,1079.88462402159
1885.25,1079.75834260975
1885.5,1079.63206119792
1885.75,1079.50577978608
1886,1079.37949837424
1886.25,1079.25321696241
1886.5,1079.12693555057
1886.75,1079.00065413873
1887,1078.8743727269
1887.25,1078.74809131506
1887.5,1078.62180990323
1887.75,1078.49552849139
1888,1078.36924707955
1888.25,1078.24296566772
1888.5,1078.11668425588
1888.75,1077.99040284404
1889,1077.86412143221
1889.25,1077.73784002037
1889.5,1077.61155860854
1889.75,1077.4852771967
1890,1077.35899578486
1890.25,1077.23271437303
1890.5,1077.10643296119
1890.75,1076.98015154935
1891,1076.85387013752
1891.25,1076.72758872568
1891.5,1076.60130731385
1891.75,1076.47502590201
1892,1076.34874449017
1892.25,1076.22246307834
1892.5,1076.0961816665
1892.75,1075.96990025466
1893,1075.84361884283
1893.25,1075.71733743099
1893.5,1075.59105601916
1893.75,1075.46477460732
1894,1075.33849319548
1894.25,1075.21221178365
1894.5,1075.08593037181
1894.75,1074.95964895997
1895,1074.83336754814
1895.25,1074.7070861363
1895.5,1074.58080472447
1895.75,1074.45452331263
1896,1074.32824190079
1896.25,1074.20196048896
1896.5,1074.07567907712
1896.75,1073.94939766528
1897,1073.82311625345
1897.25,1073.69683484161
1897.5,1073.57055342978
1897.75,1073.44427201794
1898,1073.3179906061
1898.25,1073.19170919427
1898.5,1073.06542778243
1898.75,1072.93914637059
1899,1072.81286495876
1899.25,1072.68658354692
1899.5,1072.56030213509
1899.75,1072.43402072325
1900,1072.30773931141
1900.25,1072.18145789958
1900.5,1072.05517648774
1900.75,1071.9288950759
1901,1071.80261366407
1901.25,1071.67633225223
1901.5,1071.5500508404
1901.75,1071.42376942856
1902,1071.29748801672
1902.25,1071.17120660489
1902.5,1071.04492519305
1902.75,1070.91864378121
1903,1070.79236236938
1903.25,1070.66608095754
1903.5,1070.5397995457
1903.75,1070.41351813387
1904,1070.28723672203
1904.25,1070.1609553102
1904.5,1070.03467389836
1904.75,1069.90839248652
1905,1069.78211107469
1905.25,1069.65582966285
1905.5,1069.52954825101
1905.75,1069.40326683918
1906,1069.27698542734
1906.25,1069.15070401551
1906.5,1069.02442260367
1906.75,1068.89814119183
1907,1068.77185978
1907.25,1068.64557836816
1907.5,1068.51929695632
1907.75,1068.39301554449
1908,1068.26673413265
1908.25,1068.14045272082
1908.5,1068.01417130898
1908.75,1067.88788989714
1909,1067.76160848531
1909.25,1065.60078789692
1909.5,1066.48348274943
1909.75,1069.94542491158
1910,1075.27672646577
1910.25,1081.24470022688
1910.5,1086.54967006164
1910.75,1089.89195983673
1911,1090.44573969038
1911.25,1089.64848264221
1911.5,1089.61265048135
1911.75,1092.45082189056
1912,1099.96338006805
1912.25,1108.9111331951
1912.5,1111.97802748467
1912.75,1101.73107290807
1913,1070.77098695412
1913.25,1018.73315752458
1913.5,960.893930593221
1913.75,914.637583070478
1914,919.14486761119
1914.25,923.652152151902
1914.5,928.159436692615
1914.75,932.666721233327
1915,937.17400577404
1915.25,941.681290314752
1915.5,946.188574855465
1915.75,950.695859396177
1916,955.203143936889
1916.25,959.710428477602
1916.5,964.217713018314
1916.75,968.724997559027
1917,973.232282099739
1917.25,977.739566640451
1917.5,982.246851181164
1917.75,986.754135721876
1918,991.261420262589
1918.25,995.768704803301
1918.5,1000.27598934401
1918.75,1004.78327388473
1919,1009.29055842544
1919.25,1013.79784296615
1919.5,1018.30512750686
1919.75,1022.81241204758
1920,1027.31969658829
1920.25,1031.826981129
1920.5,1036.33426566971
1920.75,1040.84155021043
1921,1045.34883475114
1921.25,1049.85611929185
1921.5,1054.36340383256
1921.75,1058.63164958553
1922,1067.90277066008
1922.25,1078.87839475285
1922.5,1088.14123107398
1922.75,1092.28636036135
1923,1090.21580889295
1923.25,1085.83163006635
1923.5,1083.69019169877
1923.75,1088.34786160745
1924,1102.5969659284
1924.25,1117.83459468563
1924.5,1120.92899174577
1924.75,1098.73687356173
1925,1038.9410000816
1925.25,1040.60191972306
1925.5,1042.26283936452
1925.75,1043.92375900598
1926,1045.58467864744
1926.25,1047.2455982889
1926.5,1048.90651793035
1926.75,1050.56743757181
1927,1052.22835721327
1927.25,1053.88927685473
1927.5,1055.55019649619
1927.75,1057.21111613765
1928,1058.87203577911
1928.25,1060.53295542057
1928.5,1062.19387506203
1928.75,1063.85479470349
1929,1065.51571434495
1929.25,1067.17663398641
1929.5,1068.83755362787
1929.75,1070.49847326932
1930,1072.15939291078
1930.25,1073.82031255224
1930.5,1075.4812321937
1930.75,1077.14215183516
1931,1078.80307147662
1931.25,1080.46399111808
1931.5,1082.12491075954
1931.75,1083.785830401
1932,1085.44675004246
1932.25,1087.10766968392
1932.5,1088.76858932538
1932.75,1090.42950896683
1933,1092.09042860829
1933.25,1093.75134824975
1933.5,1095.41226789121
1933.75,1097.07318753267
1934,1098.73410717413
1934.25,1100.39502681559
1934.5,1102.05594645705
1934.75,1103.71686609851
1935,1105.37778573997
1935.25,1107.03870538143
1935.5,1108.69962502289
1935.75,1110.36054466434
1936,1112.0214643058
1936.25,1113.68238394726
1936.5,1115.34330358872
1936.75,1117.00422323018
1937,1118.66514287164
1937.25,1120.3260625131
1937.5,1121.98698215456
1937.75,1123.64790179602
1938,1125.30882143748
1938.25,1126.96974107894
1938.5,1128.6306607204
1938.75,1130.29158036186
1939,1131.95250000331
1939.25,1133.61341964477
1939.5,1135.27433928623
1939.75,1136.93525892769
1940,1138.59617856915
1940.25,1140.25709821061
1940.5,1141.91801785207
1940.75,1143.57893749353
1941,1145.23985713499
1941.25,1146.90077677645
1941.5,1148.56169641791
1941.75,1150.22261605937
1942,1151.88353570083
1942.25,1153.54445534228
1942.5,1155.20537498374
1942.75,1156.8662946252
1943,1158.52721426666
1943.25,1160.18813390812
1943.5,1161.84905354958
1943.75,1163.50997319104
1944,1165.1708928325
1944.25,1166.83181247396
1944.5,1168.49273211542
1944.75,1170.15365175688
1945,1171.81457139834
1945.25,1173.47549103979
1945.5,1175.13641068125
1945.75,1176.79733032271
1946,1178.45824996417
1946.25,1180.11916960563
1946.5,1181.78008924709
1946.75,1183.44100888855
1947,1185.10192853001
1947.25,1186.76284817147
1947.5,1188.42376781293
1947.75,1190.08468745439
1948,1191.74560709585
1948.25,1193.4065267373
1948.5,1191.91964838678
1948.75,1186.97583234427
1949,1179.52658669316
1949.25,1171.02525375623
1949.5,1163.00097007581
1949.75,1156.98287219424
1950,1154.4323984902
1950.25,1154.37772635424
1950.5,1152.79641217733
1950.75,1145.47285990474
1951,1128.19147348174
1951.25,1098.75695059022
1951.5,1070.21377071462
1951.75,1062.55956092054
1952,1095.82746159636
1952.25,1189.64471306951
1952.5,1190.29126592984
1952.75,1190.93781879017
1953,1191.58437165049
1953.25,1192.23092451082
1953.5,1192.87747737114
1953.75,1193.52403023147
1954,1194.17058309179
1954.25,1194.81713595212
1954.5,1195.46368881244
1954.75,1196.11024167277
1955,1196.75679453309
1955.25,1197.40334739342
1955.5,1198.04990025374
1955.75,1198.69645311407
1956,1199.34300597439
1956.25,1199.98955883472
1956.5,1200.63611169504
1956.75,1201.28266455537
1957,1201.92921741569
1957.25,1202.57577027602
1957.5,1203.22232313635
1957.75,1203.86887599667
1958,1204.515428857
1958.25,1205.16198171732
1958.5,1205.80853457765
1958.75,1206.45508743797
1959,1207.1016402983
1959.25,1207.74819315862
1959.5,1208.39474601895
1959.75,1209.04129887927
1960,1209.6878517396
1960.25,1210.33440459992
1960.5,1210.98095746025
1960.75,1211.62751032057
1961,1212.2740631809
1961.25,1212.92061604122
1961.5,1213.56716890155
1961.75,1214.21372176187
1962,1214.8602746222
1962.25,1215.50682748253
1962.5,1216.15338034285
1962.75,1216.79993320318
1963,1217.4464860635
1963.25,1218.09303892383
1963.5,1218.73959178415
1963.75,1219.38614464448
1964,1220.0326975048
1964.25,1220.67925036513
1964.5,1221.32580322545
1964.75,1221.97235608578
1965,1222.6189089461
1965.25,1223.26546180643
1965.5,1223.91201466675
1965.75,1224.55856752708
1966,1225.2051203874
1966.25,1225.85167324773
1966.5,1226.49822610805
1966.75,1227.14477896838
1967,1227.79133182871
1967.25,1228.43788468903
1967.5,1229.08443754936
1967.75,1229.73099040968
1968,1230.37754327001
1968.25,1231.02409613033
1968.5,1231.67064899066
1968.75,1232.31720185098
1969,1232.96375471131
1969.25,1233.61030757163
1969.5,1234.25686043196
1969.75,1234.90341329228
1970,1235.54996615261
1970.25,1236.19651901293
1970.5,1236.84307187326
1970.75,1237.48962473358
1971,1238.13617759391
1971.25,1238.78273045423
1971.5,1239.42928331456
1971.75,1240.07583617489
1972,1240.72238903521
1972.25,1241.36894189554
1972.5,1242.01549475586
1972.75,1242.66204761619
1973,1243.30860047651
1973.25,1243.95515333684
1973.5,1244.60170619716
1973.75,1245.24825905749
1974,1245.89481191781
1974.25,1246.54136477814
1974.5,1247.18791763846
1974.75,1247.83447049879
1975,1248.48102335911
1975.25,1249.12757621944
1975.5,1249.77412907976
1975.75,1250.42068194009
1976,1251.06723480041
1976.25,1251.71378766074
1976.5,1252.36034052107
1976.75,1253.00689338139
1977,1253.65344624172
1977.25,1254.29999910204
1977.5,1254.94655196237
1977.75,1255.59310482269
1978,1256.23965768302
1978.25,1256.88621054334
1978.5,1257.53276340367
1978.75,1258.17931626399
1979,1258.82586912432
1979.25,1259.47242198464
1979.5,1260.11897484497
1979.75,1260.76552770529
1980,1261.41208056562
1980.25,1262.05863342594
1980.5,1262.70518628627
1980.75,1263.35173914659
1981,1263.99829200692
1981.25,1264.64484486725
1981.5,1265.29139772757
1981.75,1265.9379505879
1982,1266.58450344822
1982.25,1267.23105630855
1982.5,1267.87760916887
1982.75,1268.5241620292
1983,1269.17071488952
1983.25,1269.81726774985
1983.5,1270.46382061017
1983.75,1271.1103734705
1984,1271.75692633082
1984.25,1272.40347919115
1984.5,1273.05003205147
1984.75,1273.6965849118
1985,1274.34313777212
1985.25,1274.98969063245
1985.5,1275.63624349277
1985.75,1276.2827963531
1986,1276.92934921343
1986.25,1277.57590207375
1986.5,1278.22245493408
1986.75,1278.8690077944
1987,1279.51556065473
1987.25,1280.16211351505
1987.5,1280.80866637538
1987.75,1281.4552192357
1988,1282.10177209603
1988.25,1282.74832495635
1988.5,1283.39487781668
1988.75,1285.20042705386
1989,1282.57394923233
1989.25,1276.00262477778
1989.5,1267.17454216009
1989.75,1257.78771364625
1990,1249.54015150325
1990.25,1244.05054240876
1990.5,1241.79710208645
1990.75,1242.40328795136
1991,1245.47186817781
1991.25,1250.60561094011
1991.5,1257.42836943453
1991.75,1265.85321945316
1992,1276.00316557062
1992.25,1288.00592642616
1992.5,1301.98922065912
1992.75,1318.02756442825
1993,1335.43143967792
1993.25,1352.9391375038
1993.5,1369.2751235517
1993.75,1383.16386346739
1994,1393.34766480825
1994.25,1399.35888734915
1994.5,1401.81576475597
1994.75,1401.415419326
1995,1398.85497335651
1995.25,1394.83154914478
1995.5,1389.9622489403
1995.75,1384.30714398497
1996,1377.6894838172
1996.25,1369.93165004221
1996.5,1360.85602426524
1996.75,1350.28995913899
1997,1338.70677865226
1997.25,1327.85904120522
1997.5,1319.64978247144
1997.75,1315.98203812446
1998,1318.75884383785
1998.25,1328.94284398168
1998.5,1341.20043467089
1998.75,1347.61298712498
1999,1340.25397597177
1999.25,1311.19687583903
1999.5,1253.02859354694
1999.75,1167.72456636216
2000,1065.47342392093
2000.25,956.740841486489
2000.5,851.992494322351
2000.75,761.678027476106
2001,695.606557853098
2001.25,707.077736325382
2001.5,718.548914797666
2001.75,730.02009326995
2002,741.491271742234
2002.25,752.962450214518
2002.5,764.433628686802
2002.75,775.904807159086
2003,787.37598563137
2003.25,798.847164103654
2003.5,810.318342575938
2003.75,821.789521048222
2004,833.260699520506
2004.25,844.73187799279
2004.5,856.203056465074
2004.75,867.674234937358
2005,879.145413409642
2005.25,890.616591881926
2005.5,902.08777035421
2005.75,913.558948826494
2006,925.030127298777
2006.25,936.501305771061
2006.5,947.972484243345
2006.75,959.443662715629
2007,970.914841187913
2007.25,982.386019660197
2007.5,993.857198132481
2007.75,1005.32837660477
2008,1016.79955507705
2008.25,1028.27073354933
2008.5,1039.74191202162
2008.75,1051.2130904939
2009,1062.68426896619
2009.25,1074.15544743847
2009.5,1085.62662591075
2009.75,1097.09780438304
2010,1108.56898285532
2010.25,1120.0401613276
2010.5,1131.51133979989
2010.75,1142.98251827217
2011,1154.45369674446
2011.25,1165.92487521674
2011.5,1177.39605368902
2011.75,1188.86723216131
2012,1200.33841063359
2012.25,1211.80958910588
2012.5,1223.28076757816
2012.75,1222.69040555483
2013,1220.06082704873
2013.25,1215.38450555645
2013.5,1208.65393719391
2013.75,1200.14725136731
2014,1191.14152460658
2014.25,1183.13208681749
2014.5,1177.61426790581
2014.75,1176.07774705965
2015,1178.94105016223
2015.25,1184.29227612017
2015.5,1189.91321548741
2015.75,1193.58565881792
2016,1193.22049018721
2016.25,1189.62728495151
2016.5,1186.47569754915
2016.75,1187.55675306494
2017,1196.6614765837
2017.25,1216.81003972198
2017.5,1243.82855488159
2017.75,1269.62291041366
2018,1286.05956171207
2018.25,1285.00496417077
2018.5,1260.91010658708
2018.75,1221.16574382962
2019,1177.2038014576
2019.25,1140.45755797607
2019.5,1122.36029188999
2019.75,1132.35386968359
2020,1164.65910273929
2020.25,1206.4726471396
2020.5,1244.95345875166
2020.75,1267.35426321815
2021,1268.08424827843
2021.25,1253.62794665558
2021.5,1231.63264960228
2021.75,1209.74564837122
2022,1195.584054545
2022.25,1193.10750327627
2022.5,1199.169179004
2022.75,1209.80534929045
2023,1221.05228169787
2023.25,1229.03637495801
2023.5,1232.43147041571
2023.75,1232.75413234899
2024,1231.67033503197
2024.25,1230.84605273876
2024.5,1232.04296833322
2024.75,1238.7514244724
2025,1245.19749474723
2025.25,1251.64356502206
2025.5,1258.08963529689
2025.75,1264.53570557172
2026,1270.98177584654
2026.25,1277.42784612137
2026.5,1283.8739163962
2026.75,1290.31998667103
2027,1296.76605694586
2027.25,1303.21212722069
2027.5,1309.65819749552
2027.75,1316.10426777035
2028,1322.55033804518
2028.25,1328.99640832001
2028.5,1335.44247859483
2028.75,1341.88854886966
2029,1348.33461914449
2029.25,1354.78068941932
2029.5,1361.22675969415
2029.75,1367.67282996898
2030,1374.11890024381
2030.25,1380.56497051864
2030.5,1387.01104079347
2030.75,1393.4571110683
2031,1399.90318134312
2031.25,1406.34925161795
2031.5,1379.60600746789
2031.75,1344.66941068484
2032,1314.0262384644
2032.25,1295.66796973037
2032.5,1286.1939050606
2032.75,1280.42588896799
2033,1273.18576596547
2033.25,1259.29538056595
2033.5,1235.33904843253
2033.75,1207.9383893923
2034,1187.26315747418
2034.25,1183.48718859287
2034.5,1206.78431866308
2034.75,1264.0347655118
2035,1341.67604523525
2035.25,1418.31367387173
2035.5,1472.53721838294
2035.75,1482.936246028
2036,1435.49448545494
2036.25,1345.46873032938
2036.5,1235.35892283227
2036.75,1127.66500514463
2037,1044.88691944716
2037.25,1009.52161223964
2037.5,1034.03939213505
2037.75,1098.52213401657
2038,1176.52411385385
2038.25,1241.59979912649
2038.5,1273.88828113151
2038.75,1277.47838529327
2039,1261.9024519076
2039.25,1236.69282127041
2039.5,1211.38114916715
2039.75,1193.23118504498
2040,1182.1864351226
2040.25,1176.71623759338
2040.5,1175.28993065068
2040.75,1176.37813388689
2041,1178.66483645259
2041.25,1181.28422019082
2041.5,1183.42756425488
2041.75,1184.28614779805
2042,1183.08319956378
2042.25,1179.72393316967
2042.5,1174.76741444636
2042.75,1168.7990291522
2043,1162.40416304549
2043.25,1156.18092534929
2043.5,1150.82764904368
2043.75,1147.09012935816
2044,1145.71444559649
2044.25,1147.4456692597
2044.5,1152.45030097291
2044.75,1159.34826474212
2045,1166.50382174226
2045.25,1172.28123314829
2045.5,1175.11719387772
2045.75,1174.78820927277
2046,1172.25110657271
2046.25,1168.50308834722
2046.5,1164.54135716597
2046.75,1161.22152056142
2047,1158.51316877574
2047.25,1156.04388693499
2047.5,1153.44053002729
2047.75,1150.33236873516
2048,1146.88215281393
2048.25,1144.45355486836
2048.5,1144.5744053725
2048.75,1148.77253480042
2049,1158.4347050337
2049.25,1172.7768324288
2049.5,1189.31246171764
2049.75,1205.50950293043
2050,1218.83586609736
2050.25,1227.31298153582
2050.5,1231.27767422819
2050.75,1231.672094526
2051,1229.43839470095
2051.25,1225.51861709879
2051.5,1220.74012306845
2051.75,1215.59857854777
2052,1210.53002990647
2052.25,1205.97052351423
2052.5,1202.35701457416
2052.75,1200.30657489266
2053,1200.83214235859
2053.25,1204.99930074083
2053.5,1213.87363380824
2053.75,1228.42622306178
2054,1224.35760087834
2054.25,1220.28897869489
2054.5,1216.22035651144
2054.75,1212.15173432799
2055,1208.08311214455
2055.25,1204.0144899611
2055.5,1199.94586777765
2055.75,1195.87724559421
2056,1191.80862341076
2056.25,1187.74000122731
2056.5,1183.67137904387
2056.75,1179.60275686042
2057,1175.53413467697
2057.25,1171.46551249353
2057.5,1167.39689031008
2057.75,1163.32826812663
2058,1159.25964594318
2058.25,1155.19102375974
2058.5,1151.12240157629
2058.75,1147.05377939284
2059,1142.9851572094
2059.25,1138.91653502595
2059.5,1134.8479128425
2059.75,1130.77929065906
2060,1126.71066847561
2060.25,1122.64204629216
2060.5,1118.57342410872
2060.75,1114.50480192527
2061,1110.43617974182
2061.25,1106.36755755838
2061.5,1157.01141242397
2061.75,1197.76074582284
2062,1212.35882480255
2062.25,1198.32608824679
2062.5,1169.19363575714
2062.75,1139.39194966345
2063,1123.35151229543
2063.25,1134.44722313078
2063.5,1170.42097292887
2063.75,1217.06246896697
2064,1259.8586739828
2064.25,1284.30136646117
2064.5,1281.23219977361
2064.75,1257.07953501637
2065,1221.09480470769
2065.25,1182.5294413658
2065.5,1150.63487750886
2065.75,1132.54304735401
2066,1126.24406466177
2066.25,1127.26383978098
2066.5,1131.1282468023
2066.75,1133.41485335682
2067,1132.04255124722
2067.25,1128.17887019115
2067.5,1123.23062016971
2067.75,1118.60461116404
2068,1115.68832682605
2068.25,1115.74466307121
2068.5,1119.98709289391
2068.75,1129.62896485391
2069,1145.77821480897
2069.25,1164.65335695051
2069.5,1175.62129100152
2069.75,1167.53700627365
2070,1129.25549207851
2070.25,1054.01101923242
2070.5,965.849170075399
2070.75,902.039653615944
2071,899.902987418599
2071.25,996.030615418787
2071.5,1186.31832640017
2071.75,1405.27689124363
2072,1582.32970979388
2072.25,1649.98645183675
2072.5,1599.06465496198
2072.75,1472.41174647337
2073,1314.700717816
2073.25,1170.6045604353
2073.5,1084.7962657766
2073.75,1101.94858529201
2074,1247.7098850244
2074.25,1476.87867513427
2074.5,1727.76361640834
2074.75,1938.67336963406
2075,2051.40822308947
2075.25,2055.35973412352
2075.5,1974.31208262883
2075.75,1832.81373603325
2076,1655.41316176484
2076.25,1466.6588272518
2076.5,1291.09919992179
2076.75,1153.282747203
2077,1075.73770650608
2077.25,1055.48297740573
2077.5,1072.0647190528
2077.75,1104.68867758085
2078,1132.58431306342
2078.25,1142.35297937764
2078.5,1138.37903482338
2078.75,1127.67455686516
2079,1117.25162296743
2079.25,1113.52676918831
2079.5,1115.73026797085
2079.75,1118.32802807352
2080,1115.70059511871
2080.25,1102.25531302717
2080.5,1078.33618751872
2080.75,1057.66038936397
2081,1051.67206322897
2081.25,1045.68373709397
2081.5,1039.69541095897
2081.75,1033.70708482398
2082,1027.71875868898
2082.25,1021.73043255398
2082.5,1015.74210641898
2082.75,1009.75378028398
2083,1003.76545414898
2083.25,997.777128013983
2083.5,991.788801878984
2083.75,985.800475743985
2084,979.812149608986
2084.25,973.823823473987
2084.5,967.835497338989
2084.75,961.84717120399
2085,955.858845068991
2085.25,949.870518933992
2085.5,943.882192798994
2085.75,937.893866663995
2086,931.905540528996
2086.25,925.917214393997
2086.5,919.928888258998
2086.75,913.940562124
2087,907.952235989001
2087.25,901.963909854002
2087.5,1169.9817973539
2087.75,1473.84369125283
2088,1698.93473596742
2088.25,1818.18785893283
2088.5,1850.68172600593
2088.75,1815.90942097574
2089,1733.36402763116
2089.25,1622.53862976114
2089.5,1502.51478680293
2089.75,1385.41030468389
2090,1277.53753904518
2090.25,1185.031387874
2090.5,1114.02674915749
2090.75,1070.6585208826
2091,1060.93350419138
2091.25,1079.70820550245
2091.5,1102.19980474953
2091.75,1101.62709846261
2092,1051.2105977453
2092.25,944.394743479818
2092.5,945.951311420007
2092.75,947.507879360197
2093,949.064447300386
2093.25,950.621015240576
2093.5,952.177583180765
2093.75,953.734151120954
2094,955.290719061144
2094.25,956.847287001333
2094.5,958.403854941522
2094.75,959.960422881712
2095,961.516990821901
2095.25,963.07355876209
2095.5,964.63012670228
2095.75,966.186694642469
2096,967.743262582659
2096.25,969.299830522848
2096.5,970.856398463037
2096.75,972.412966403227
2097,973.969534343416
2097.25,975.526102283605
2097.5,977.082670223795
2097.75,978.639238163984
2098,980.195806104173
2098.25,981.752374044363
2098.5,983.308941984552
2098.75,984.865509924742
2099,986.422077864931
2099.25,987.97864580512
2099.5,989.53521374531
2099.75,991.091781685499
2100,992.648349625689
2100.25,994.204917565878
2100.5,995.761485506067
2100.75,997.318053446257
2101,998.874621386446
2101.25,1000.43118932664
2101.5,1001.98775726682
2101.75,1003.54432520701
2102,1005.1008931472
2102.25,1006.65746108739
2102.5,1008.21402902758
2102.75,1009.77059696777
2103,1011.32716490796
2103.25,1012.88373284815
2103.5,1014.44030078834
2103.75,1015.99686872853
2104,1017.55343666872
2104.25,1019.11000460891
2104.5,1020.6665725491
2104.75,1022.22314048929
2105,1023.77970842948
2105.25,1025.33627636967
2105.5,1026.89284430985
2105.75,1028.44941225004
2106,1030.00598019023
2106.25,1031.56254813042
2106.5,1033.11911607061
2106.75,1034.6756840108
2107,1036.23225195099
2107.25,1037.78881989118
2107.5,1039.34538783137
2107.75,1040.90195577156
2108,1042.45852371175
2108.25,1044.01509165194
2108.5,1045.57165959213
2108.75,1047.12822753232
2109,1048.68479547251
2109.25,1050.2413634127
2109.5,1051.79793135288
2109.75,1053.35449929307
2110,1054.91106723326
2110.25,1056.46763517345
2110.5,1058.02420311364
2110.75,1059.58077105383
2111,1061.13733899402
2111.25,1062.69390693421
2111.5,1064.2504748744
2111.75,1065.80704281459
2112,1067.36361075478
2112.25,1068.92017869497
2112.5,1070.47674663516
2112.75,1072.03331457535
2113,1073.58988251554
2113.25,1075.14645045573
2113.5,1076.70301839591
2113.75,1078.2595863361
2114,1079.81615427629
2114.25,1081.37272221648
2114.5,1082.92929015667
2114.75,1084.48585809686
2115,1086.04242603705
2115.25,1087.59899397724
2115.5,1089.15556191743
2115.75,1090.71212985762
2116,1092.26869779781
2116.25,1093.825265738
2116.5,1095.38183367819
2116.75,1096.93840161838
2117,1098.49496955857
2117.25,1100.05153749876
2117.5,1101.60810543894
2117.75,1103.16467337913
2118,1104.72124131932
2118.25,1106.27780925951
2118.5,1107.8343771997
2118.75,1269.36482819417
2119,1449.65307417437
2119.25,1596.71341216912
2119.5,1658.71370733395
2119.75,1610.260060763
2120,1482.19169104668
2120.25,1312.54721387134
2120.5,1139.36524492332
2120.75,1000.68439988895
2121,934.543294454608
2121.25,975.317168882762
2121.5,1101.97811224041
2121.75,1250.54590801675
2122,1355.91782162547
2122.25,1363.7471265416
2122.5,1287.68057482761
2122.75,1167.85761849101
2123,1044.47763340817
2123.25,957.739995456155
2123.5,946.837342811996
2123.75,1010.29809968693
2124,1092.92549410418
2124.25,1135.84012661886
2124.5,1085.4980535986
2124.75,958.436650855017
2125,820.552160149957
2125.25,738.771482401628
2125.5,779.979960539414
2125.75,972.280946326762
2126,1233.09624647756
2126.25,1460.23340111326
2126.5,1576.93788231567
2126.75,1595.14408352585
2127,1546.10289233693
2127.25,1461.06519634202
2127.5,1371.28188313425
2127.75,1307.83161843177
2128,1278.26054290424
2128.25,1242.88552737004
2128.5,1156.37794060954
2128.75,1158.14016154294
2129,1159.90238247635
2129.25,1161.66460340975
2129.5,1163.42682434316
2129.75,1165.18904527656
2130,1166.95126620997
2130.25,1168.71348714337
2130.5,1170.47570807678
2130.75,1172.23792901018
2131,1174.00014994359
2131.25,1175.76237087699
2131.5,1177.5245918104
2131.75,1179.2868127438
2132,1181.04903367721
2132.25,1182.81125461061
2132.5,1184.57347554402
2132.75,1186.33569647742
2133,1188.09791741083
2133.25,1189.86013834423
2133.5,1191.62235927764
2133.75,1193.38458021104
2134,1195.14680114445
2134.25,1196.90902207785
2134.5,1198.67124301126
2134.75,1200.43346394466
2135,1202.19568487807
2135.25,1203.95790581147
2135.5,1205.72012674488
2135.75,1207.48234767828
2136,1209.24456861169
2136.25,1211.00678954509
2136.5,1212.7690104785
2136.75,1214.5312314119
2137,1216.29345234531
2137.25,1218.05567327871
2137.5,1219.81789421212
2137.75,1221.58011514552
2138,1223.34233607893
2138.25,1225.10455701233
2138.5,1226.86677794574
2138.75,1228.62899887915
2139,1230.39121981255
2139.25,1232.15344074596
2139.5,1233.91566167936
2139.75,1235.67788261277
2140,1237.44010354617
2140.25,1239.20232447958
2140.5,1240.96454541298
2140.75,1242.72676634639
2141,1244.48898727979
2141.25,1246.2512082132
2141.5,1248.0134291466
2141.75,1249.77565008001
2142,1251.53787101341
2142.25,1253.30009194682
2142.5,1255.06231288022
2142.75,1256.82453381363
2143,1258.58675474703
2143.25,1260.34897568044
2143.5,1262.11119661384
2143.75,1263.87341754725
2144,1265.63563848065
2144.25,1267.39785941406
2144.5,1269.16008034746
2144.75,1270.92230128087
2145,1272.68452221427
2145.25,1274.44674314768
2145.5,1276.20896408108
2145.75,1277.97118501449
2146,1279.73340594789
2146.25,1281.4956268813
2146.5,1283.2578478147
2146.75,1285.02006874811
2147,1286.78228968151
2147.25,1288.54451061492
2147.5,1290.30673154832
2147.75,1292.06895248173
2148,1293.83117341513
2148.25,1295.59339434854
2148.5,1297.35561528194
2148.75,1299.11783621535
2149,1300.88005714875
2149.25,1302.64227808216
2149.5,1304.40449901556
2149.75,1306.16671994897
2150,1307.92894088237
2150.25,1309.69116181578
2150.5,1311.45338274918
2150.75,1313.21560368259
2151,1314.97782461599
2151.25,1316.7400455494
2151.5,1318.5022664828
2151.75,1320.26448741621
2152,1322.02670834961
2152.25,1323.78892928302
2152.5,1325.55115021642
2152.75,1327.31337114983
2153,1329.07559208323
2153.25,1330.83781301664
2153.5,1332.60003395005
2153.75,1334.36225488345
2154,1336.12447581686
2154.25,1337.88669675026
2154.5,1339.64891768367
2154.75,1341.41113861707
2155,1343.17335955048
2155.25,1344.93558048388
2155.5,1346.69780141729
2155.75,1348.46002235069
2156,1350.2222432841
2156.25,1351.9844642175
2156.5,1353.74668515091
2156.75,1355.50890608431
2157,1357.27112701772
2157.25,1359.03334795112
2157.5,1360.79556888453
2157.75,1362.55778981793
2158,1364.32001075134
2158.25,1366.08223168474
2158.5,1367.84445261815
2158.75,1369.60667355155
2159,1147.44981962517
2159.25,855.893742032004
2159.5,572.077515082112
2159.75,377.95735895342
2160,355.489493822775
2160.25,582.229641178916
2160.5,970.409058661868
2160.75,1234.16917707993
2161,1293.13407980084
2161.25,1245.83963998424
2161.5,1227.75793768913
2161.75,1209.67623539401
2162,1191.59453309889
2162.25,1173.51283080377
2162.5,1155.43112850866
2162.75,1137.34942621354
2163,1119.26772391842
2163.25,1101.1860216233
2163.5,1083.10431932819
2163.75,1065.02261703307
2164,1046.94091473795
2164.25,1028.85921244283
2164.5,1010.77751014772
2164.75,992.695807852599
2165,974.614105557482
2165.25,956.532403262364
2165.5,938.450700967247
2165.75,920.36899867213
2166,902.287296377012
2166.25,884.205594081895
2166.5,866.123891786777
2166.75,848.04218949166
2167,829.960487196543
2167.25,811.878784901425
2167.5,793.797082606308
2167.75,775.715380311191
2168,757.633678016073
2168.25,739.551975720956
2168.5,721.470273425838
2168.75,703.388571130721
2169,685.306868835604
2169.25,667.225166540486
2169.5,649.143464245369
2169.75,631.061761950251
2170,612.980059655134
2170.25,594.898357360016
2170.5,576.816655064899
2170.75,558.734952769782
2171,540.653250474664
2171.25,522.571548179547
2171.5,504.489845884429
2171.75,486.408143589312
2172,468.326441294195
2172.25,450.244738999077
2172.5,432.16303670396
2172.75,748.812487868719
2173,1292.38887906611
2173.25,1773.24736756805
2173.5,2012.01213528313
2173.75,2041.66147035615
2174,1916.96747220246
2174.25,1692.70224023742
2174.5,1423.63787387637
2174.75,1164.54647253511
2175,968.154316227478
2175.25,989.745283559951
2175.5,1011.33625089242
2175.75,1032.9272182249
2176,1054.51818555737
2176.25,1076.10915288984
2176.5,1097.70012022231
2176.75,1119.29108755479
2177,1140.88205488726
2177.25,1162.47302221973
2177.5,1184.06398955221
2177.75,1205.65495688468
2178,1227.24592421715
2178.25,1248.83689154962
2178.5,1270.4278588821
2178.75,1292.01882621457
2179,1313.60979354704
2179.25,1335.20076087951
2179.5,1356.79172821199
2179.75,1378.38269554446
2180,1399.97366287693
2180.25,1421.5646302094
2180.5,1443.15559754188
2180.75,1464.74656487435
2181,1486.33753220682
2181.25,1507.9284995393
2181.5,1529.51946687177
2181.75,1551.11043420424
2182,1572.70140153671
2182.25,1594.29236886919
2182.5,1615.88333620166
2182.75,1637.47430353413
2183,1659.0652708666
2183.25,1680.65623819908
2183.5,1702.24720553155
2183.75,1723.83817286402
2184,1745.42914019649
2184.25,1767.02010752897
2184.5,1788.61107486144
2184.75,1810.20204219391
2185,1831.79300952639
2185.25,1747.7056547337
2185.5,1615.1259421279
2185.75,1460.87122863974
2186,1311.75887120001
2186.25,1194.60622673948
2186.5,1136.23065218895
2186.75,1158.59752785024
2187,1239.54172441598
2187.25,1333.34409909259
2187.5,1394.06461687816
2187.75,1396.5928091656
2188,1399.12100145304
2188.25,1401.64919374047
2188.5,1404.17738602791
2188.75,1406.70557831534
2189,1409.23377060278
2189.25,1411.76196289022
2189.5,1414.29015517765
2189.75,1416.81834746509
2190,1419.34653975252
2190.25,1421.87473203996
2190.5,1424.4029243274
2190.75,1426.93111661483
2191,1429.45930890227
2191.25,1431.9875011897
2191.5,1434.51569347714
2191.75,1437.04388576458
2192,1439.57207805201
2192.25,1442.10027033945
2192.5,1444.62846262688
2192.75,1447.15665491432
2193,1449.68484720176
2193.25,1452.21303948919
2193.5,1454.74123177663
2193.75,1457.26942406406
2194,1459.7976163515
2194.25,1462.32580863894
2194.5,1464.85400092637
2194.75,1467.38219321381
2195,1469.91038550125
2195.25,1472.43857778868
2195.5,1474.96677007612
2195.75,1477.49496236355
2196,1480.02315465099
2196.25,1482.55134693843
2196.5,1485.07953922586
2196.75,1487.6077315133
2197,1490.13592380073
2197.25,1492.66411608817
2197.5,1495.19230837561
2197.75,1497.72050066304
2198,1500.24869295048
2198.25,1502.77688523791
2198.5,1505.30507752535
2198.75,1507.83326981279
2199,1510.36146210022
2199.25,1512.88965438766
2199.5,1515.41784667509
2199.75,1343.84253785236
2200,1166.8464727708
2200.25,1012.90779550711
2200.5,910.504650139026
2200.75,888.115180743946
2201,973.666241528704
2201.25,1161.33245805643
2201.5,1392.58073644172
2201.75,1604.29788592118
2202,1736.34920019675
2202.25,1772.70270197752
2202.5,1731.04091118744
2202.75,1629.90008636816
2203,1487.81648606131
2203.25,1323.32636880884
2203.5,1154.96599315177
2203.75,1003.19223043161
2204,898.03632988482
2204.25,917.659854249189
2204.5,937.283378613558
2204.75,956.906902977927
2205,976.530427342295
2205.25,996.153951706664
2205.5,1015.77747607103
2205.75,1035.4010004354
2206,1055.02452479977
2206.25,1074.64804916414
2206.5,1094.27157352851
2206.75,1113.89509789288
2207,1133.51862225724
2207.25,1153.14214662161
2207.5,1172.76567098598
2207.75,1192.38919535035
2208,1212.01271971472
2208.25,1231.63624407909
2208.5,1251.25976844346
2208.75,1270.88329280783
2209,1290.50681717219
2209.25,1310.13034153656
2209.5,1329.75386590093
2209.75,1349.3773902653
2210,1369.00091462967
2210.25,1388.62443899404
2210.5,1408.24796335841
2210.75,1229.85681454795
2211,1117.99634399759
2211.25,1074.28667533064
2211.5,1077.21180309422
2211.75,1104.85048113723
2212,1135.28146330873
2212.25,1150.34410431001
2212.5,1150.56888814938
2212.75,1142.28226334785
2213,1131.81244861136
2213.25,1125.40199810547
2213.5,1125.53223554515
2213.75,1129.53341881667
2214,1134.36352919152
2214.25,1136.98054794122
2214.5,1134.8993025833
2214.75,1128.91574443291
2215,1121.02350770948
2215.25,1113.21798375254
2215.5,1107.47833631306
2215.75,1104.74298359943
2216,1104.29738104147
2216.25,1105.28003720099
2216.5,1106.82946063981
2216.75,1108.1618650274
2217,1108.92900187843
2217.25,1108.93427418939
2217.5,1107.98123923972
2217.75,1105.89450627081
2218,1103.08614905306
2218.25,1100.61954243663
2218.5,1099.59192314804
2218.75,1101.1005117546
2219,1105.72918807142
2219.25,1112.19957752519
2219.5,1118.81114721122
2219.75,1123.86336422478
2220,1125.8316841202
2220.25,1125.54702745156
2220.5,1125.52119480611
2220.75,1128.30222452383
2221,1136.43474274401
2221.25,1150.18299191639
2221.5,1163.58105419491
2221.75,1169.6087634063
2222,1161.24595337734
2222.25,1132.52328255888
2222.5,1093.90138169159
2222.75,1068.86008472936
2223,1081.2362980648
2223.25,1080.75994656148
2223.5,1080.28359505815
2223.75,1079.80724355483
2224,1079.33089205151
2224.25,1078.85454054819
2224.5,1078.37818904486
2224.75,1077.90183754154
2225,1077.42548603822
2225.25,1076.9491345349
2225.5,1076.47278303158
2225.75,1075.99643152825
2226,1075.52008002493
2226.25,1075.04372852161
2226.5,1074.56737701829
2226.75,1074.09102551497
2227,1073.61467401164
2227.25,1073.13832250832
2227.5,1072.661971005
2227.75,1072.18561950168
2228,1071.70926799835
2228.25,1071.23291649503
2228.5,1070.75656499171
2228.75,1070.28021348839
2229,1069.80386198507
2229.25,1069.32751048174
2229.5,1068.85115897842
2229.75,1068.3748074751
2230,1067.89845597178
2230.25,1067.42210446846
2230.5,1066.94575296513
2230.75,1066.46940146181
2231,1065.99304995849
2231.25,1065.51669845517
2231.5,1065.04034695184
2231.75,1064.56399544852
2232,1064.0876439452
2232.25,1063.61129244188
2232.5,1063.13494093856
2232.75,1062.65858943523
2233,1062.18223793191
2233.25,1061.70588642859
2233.5,1061.22953492527
2233.75,1060.75318342194
2234,1060.27683191862
2234.25,1059.8004804153
2234.5,1059.32412891198
2234.75,1058.84777740866
2235,1058.37142590533
2235.25,1057.89507440201
2235.5,1057.41872289869
2235.75,1056.94237139537
2236,1056.46601989205
2236.25,1055.98966838872
2236.5,1055.5133168854
2236.75,1055.03696538208
2237,1054.56061387876
2237.25,1054.08426237543
2237.5,1053.60791087211
2237.75,1053.13155936879
2238,1052.65520786547
2238.25,1052.17885636215
2238.5,1051.70250485882
2238.75,1051.2261533555
2239,1050.74980185218
2239.25,1050.27345034886
2239.5,1049.79709884553
2239.75,1049.32074734221
2240,1048.84439583889
2240.25,1048.36804433557
2240.5,1047.89169283225
2240.75,1047.41534132892
2241,1046.9389898256
2241.25,1046.46263832228
2241.5,1045.98628681896
2241.75,1045.50993531564
2242,1045.03358381231
2242.25,1044.55723230899
2242.5,1044.08088080567
2242.75,1043.60452930235
2243,1043.12817779902
2243.25,1042.6518262957
2243.5,1042.17547479238
2243.75,1041.69912328906
2244,1041.22277178574
2244.25,1040.74642028241
2244.5,1040.27006877909
2244.75,1039.79371727577
2245,1039.31736577245
2245.25,1038.84101426913
2245.5,1038.3646627658
2245.75,1037.88831126248
2246,1037.41195975916
2246.25,1036.93560825584
2246.5,1036.45925675251
2246.75,1035.98290524919
2247,1035.50655374587
2247.25,1035.03020224255
2247.5,1034.55385073923
2247.75,1034.0774992359
2248,1033.60114773258
2248.25,1033.12479622926
2248.5,1032.64844472594
2248.75,1032.17209322261
2249,1031.69574171929
2249.25,1031.21939021597
2249.5,1030.74303871265
2249.75,1030.26668720933
2250,1029.790335706
2250.25,1029.31398420268
2250.5,1028.83763269936
2250.75,1028.36128119604
2251,1027.88492969272
2251.25,1027.40857818939
2251.5,1026.93222668607
2251.75,1026.45587518275
2252,1025.97952367943
2252.25,1025.5031721761
2252.5,1025.02682067278
2252.75,1024.55046916946
2253,1024.07411766614
2253.25,1023.59776616282
2253.5,1023.12141465949
2253.75,1022.64506315617
2254,1022.16871165285
2254.25,1021.69236014953
2254.5,1021.21600864621
2254.75,1020.73965714288
2255,1020.26330563956
2255.25,1019.78695413624
2255.5,1019.31060263292
2255.75,1018.83425112959
2256,1018.35789962627
2256.25,1017.88154812295
2256.5,1017.40519661963
2256.75,1016.92884511631
2257,1016.45249361298
2257.25,1015.97614210966
2257.5,1015.49979060634
2257.75,1015.02343910302
2258,1014.54708759969
2258.25,1014.07073609637
2258.5,1013.59438459305
2258.75,1013.11803308973
2259,1012.64168158641
2259.25,1012.16533008308
2259.5,1011.68897857976
2259.75,1011.21262707644
2260,1010.73627557312
2260.25,1010.2599240698
2260.5,1009.78357256647
2260.75,1009.30722106315
2261,1008.83086955983
2261.25,1008.35451805651
2261.5,1007.87816655318
2261.75,1007.40181504986
2262,1006.92546354654
2262.25,1006.44911204322
2262.5,1005.9727605399
2262.75,1005.49640903657
2263,1005.02005753325
2263.25,1004.54370602993
2263.5,1004.06735452661
2263.75,1003.59100302329
2264,1003.11465151996
2264.25,1002.63830001664
2264.5,1002.16194851332
2264.75,1001.68559701
2265,1001.20924550667
2265.25,1000.73289400335
2265.5,1000.25654250003
2265.75,999.780190996708
2266,999.303839493386
2266.25,998.827487990063
2266.5,998.351136486741
2266.75,997.874784983419
2267,997.398433480097
2267.25,996.922081976775
2267.5,996.445730473453
2267.75,995.96937897013
2268,995.493027466808
2268.25,995.016675963486
2268.5,994.540324460164
2268.75,994.063972956842
2269,993.58762145352
2269.25,993.111269950197
2269.5,992.634918446875
2269.75,992.158566943553
2270,991.682215440231
2270.25,991.205863936909
2270.5,990.729512433587
2270.75,990.253160930264
2271,989.776809426942
2271.25,989.30045792362
2271.5,988.824106420298
2271.75,988.347754916976
2272,987.871403413654
2272.25,987.395051910331
2272.5,986.918700407009
2272.75,986.442348903687
2273,985.965997400365
2273.25,985.489645897043
2273.5,985.013294393721
2273.75,984.536942890398
2274,984.060591387076
2274.25,983.584239883754
2274.5,983.107888380432
2274.75,982.63153687711
2275,982.155185373788
2275.25,981.678833870466
2275.5,981.202482367143
2275.75,980.726130863821
2276,980.249779360499
2276.25,979.773427857177
2276.5,979.297076353855
2276.75,978.820724850532
2277,978.34437334721
2277.25,977.868021843888
2277.5,977.391670340566
2277.75,976.915318837244
2278,976.438967333922
2278.25,975.962615830599
2278.5,975.486264327277
2278.75,975.009912823955
2279,974.533561320633
2279.25,974.057209817311
2279.5,973.580858313989
2279.75,973.104506810666
2280,972.628155307344
2280.25,972.151803804022
2280.5,971.6754523007
2280.75,971.199100797378
2281,970.722749294056
2281.25,970.246397790733
2281.5,969.770046287411
2281.75,969.293694784089
2282,968.817343280767
2282.25,968.340991777445
2282.5,967.864640274123
2282.75,967.388288770801
2283,966.911937267478
2283.25,966.435585764156
2283.5,965.959234260834
2283.75,965.482882757512
2284,965.00653125419
2284.25,964.530179750868
2284.5,964.053828247545
2284.75,963.577476744223
2285,963.101125240901
2285.25,962.624773737579
2285.5,962.148422234257
2285.75,961.672070730934
2286,961.195719227612
2286.25,960.71936772429
2286.5,960.243016220968
2286.75,959.766664717646
2287,959.290313214324
2287.25,958.813961711002
2287.5,958.337610207679
2287.75,957.861258704357
2288,957.384907201035
2288.25,956.908555697713
2288.5,956.432204194391
2288.75,955.955852691069
2289,955.479501187746
2289.25,955.003149684424
2289.5,954.526798181102
2289.75,954.05044667778
2290,953.574095174458
2290.25,953.097743671136
2290.5,952.621392167813
2290.75,952.145040664491
2291,951.668689161169
2291.25,951.192337657847
2291.5,950.715986154525
2291.75,950.239634651203
2292,949.76328314788
2292.25,949.286931644558
2292.5,948.810580141236
2292.75,948.334228637914
2293,947.857877134592
2293.25,947.38152563127
2293.5,946.905174127947
2293.75,946.428822624625
2294,945.952471121303
2294.25,945.476119617981
2294.5,944.999768114659
2294.75,944.523416611337
2295,944.047065108014
2295.25,943.570713604692
2295.5,943.09436210137
2295.75,942.618010598048
2296,942.141659094726
2296.25,941.665307591404
2296.5,941.188956088081
2296.75,940.712604584759
2297,940.236253081437
2297.25,911.60672798768
2297.5,919.056792494237
2297.75,985.653416042897
2298,1097.02090803885
2298.25,1209.78695729121
2298.5,1279.82328633558
2298.75,1270.57592358137
2299,1193.91049935965
2299.25,1080.75336260404
2299.5,962.076727085625
2299.75,962.713354023633
2300,963.349980961642
2300.25,963.986607899651
2300.5,964.62323483766
2300.75,965.259861775668
2301,965.896488713677
2301.25,966.533115651686
2301.5,967.169742589695
2301.75,967.806369527703
2302,968.442996465712
2302.25,969.079623403721
2302.5,969.71625034173
2302.75,970.352877279738
2303,970.989504217747
2303.25,971.626131155756
2303.5,972.262758093765
2303.75,972.899385031773
2304,973.536011969782
2304.25,974.172638907791
2304.5,974.8092658458
2304.75,975.445892783808
2305,976.082519721817
2305.25,976.719146659826
2305.5,977.355773597835
2305.75,977.992400535843
2306,978.629027473852
2306.25,979.265654411861
2306.5,979.90228134987
2306.75,980.538908287878
2307,981.175535225887
2307.25,981.812162163896
2307.5,982.448789101905
2307.75,983.085416039913
2308,983.722042977922
2308.25,984.358669915931
2308.5,984.99529685394
2308.75,985.631923791948
2309,986.268550729957
2309.25,986.905177667966
2309.5,987.541804605975
2309.75,988.178431543983
2310,988.815058481992
2310.25,989.451685420001
2310.5,990.08831235801
2310.75,990.724939296019
2311,991.361566234027
2311.25,991.998193172036
2311.5,992.634820110045
2311.75,993.271447048054
2312,993.908073986062
2312.25,994.544700924071
2312.5,995.18132786208
2312.75,995.817954800089
2313,996.454581738097
2313.25,997.091208676106
2313.5,997.727835614115
2313.75,998.364462552124
2314,999.001089490132
2314.25,999.637716428141
2314.5,1000.27434336615
2314.75,1000.91097030416
2315,1001.54759724217
2315.25,1002.18422418018
2315.5,1002.82085111818
2315.75,1003.45747805619
2316,1004.0941049942
2316.25,1004.73073193221
2316.5,1005.36735887022
2316.75,1006.00398580823
2317,1006.64061274624
2317.25,1007.27723968425
2317.5,1007.91386662225
2317.75,1008.55049356026
2318,1009.18712049827
2318.25,1009.82374743628
2318.5,1010.46037437429
2318.75,1011.0970013123
2319,1011.73362825031
2319.25,1001.73123435006
2319.5,991.923483830449
2319.75,986.065882930195
2320,984.833809443639
2320.25,987.326532324909
2320.5,992.630585340548
2320.75,999.730485540504
2321,1006.83805140359
2321.25,1011.81130776721
2321.5,1012.50644419735
2321.75,1007.28180741615
2322,998.016593822291
