1362,41.5531436804514
1362.25,41.3033046197234
1362.5,41.0534655589957
1362.75,40.803626498268
1363,40.5537874375403
1363.25,40.3039483768126
1363.5,40.0541093160847
1363.75,39.804270255357
1364,39.5544311946293
1364.25,39.3045921339015
1364.5,39.0547530731738
1364.75,38.8049140124459
1365,38.5550749517182
1365.25,38.3052358909905
1365.5,38.096431746421
1365.75,38.0764446215628
1366,38.0564574967046
1366.25,38.0364703718464
1366.5,38.0164832469881
1366.75,37.9964961221299
1367,37.9765089972717
1367.25,37.9565218724135
1367.5,37.9365347475553
1367.75,37.916547622697
1368,37.8965604978388
1368.25,37.8765733729806
1368.5,37.8565862481224
1368.75,37.8365991232642
1369,37.8166119984059
1369.25,37.7966248735477
1369.5,37.7766377486895
1369.75,37.7566506238313
1370,37.7366634989731
1370.25,37.7166763741148
1370.5,37.6718586186812
1370.75,37.5019680573864
1371,37.3320774960915
1371.25,37.1621869347967
1371.5,36.9922963735017
1371.75,36.8224058122069
1372,36.652515250912
1372.25,36.4826246896172
1372.5,36.3127341283223
1372.75,36.1428435670273
1373,35.9729530057325
1373.25,35.8030624444377
1373.5,35.6331718831428
1373.75,35.463281321848
1374,35.293390760553
1374.25,35.1235001992581
1374.5,34.9536096379633
1374.75,34.7837190766684
1375,34.6138285153736
1375.25,34.4439379540786
1375.5,34.3106863676773
1375.75,34.380641304681
1376,34.4505962416848
1376.25,34.5205511786885
1376.5,34.5905061156923
1376.75,34.6604610526961
1377,34.7304159896999
1377.25,34.8003709267036
1377.5,34.8703258637074
1377.75,34.9402808007112
1378,35.010235737715
1378.25,35.0801906747187
1378.5,35.1501456117225
1378.75,35.2201005487263
1379,35.29005548573
1379.25,35.3600104227338
1379.5,35.4299653597376
1379.75,35.4999202967414
1380,35.5698752337451
1380.25,35.6398301707489
1380.5,35.7188712792373
1380.75,35.8537843720303
1381,35.9886974648233
1381.25,36.1236105576162
1381.5,36.2585236504092
1381.75,36.3934367432022
1382,36.5283498359952
1382.25,36.6632629287882
1382.5,36.7981760215812
1382.75,36.9330891143741
1383,37.0680022071671
1383.25,37.2029152999602
1383.5,37.3378283927531
1383.75,37.4727414855461
1384,37.6076545783391
1384.25,37.742567671132
1384.5,37.8774807639251
1384.75,38.0123938567181
1385,38.147306949511
1385.25,38.282220042304
1385.5,38.3993654394408
1385.75,38.3943686582263
1386,38.3893718770117
1386.25,38.3843750957972
1386.5,38.3793783145826
1386.75,38.3743815333681
1387,38.3693847521535
1387.25,38.364387970939
1387.5,38.3593911897244
1387.75,38.3543944085099
1388,38.3493976272953
1388.25,38.3444008460807
1388.5,38.3394040648662
1388.75,38.3344072836516
1389,38.3294105024371
1389.25,38.3244137212225
1389.5,38.319416940008
1389.75,38.3144201587934
1390,38.3094233775789
1390.25,38.3044265963643
1390.5,38.3062720333527
1390.75,38.3612366267128
1391,38.416201220073
1391.25,38.4711658134331
1391.5,38.5261304067932
1391.75,38.5810950001533
1392,38.6360595935134
1392.25,38.6910241868735
1392.5,38.7459887802336
1392.75,38.8009533735937
1393,38.8559179669538
1393.25,38.9108825603139
1393.5,38.965847153674
1393.75,39.0208117470341
1394,39.0757763403942
1394.25,39.1307409337543
1394.5,39.1857055271144
1394.75,39.2406701204745
1395,39.2956347138347
1395.25,39.3505993071948
1395.5,39.4005058091414
1395.75,39.4055025903559
1396,39.4104993715705
1396.25,39.415496152785
1396.5,39.4204929339996
1396.75,39.4254897152141
1397,39.4304864964287
1397.25,39.4354832776432
1397.5,39.4404800588578
1397.75,39.4454768400723
1398,39.4504736212869
1398.25,39.4554704025015
1398.5,39.460467183716
1398.75,39.4654639649306
1399,39.4704607461451
1399.25,39.4754575273597
1399.5,39.4804543085742
1399.75,39.4854510897888
1400,39.4904478710033
1400.25,39.4954446522179
1400.5,39.5110358358113
1400.75,39.6359553661752
1401,39.760874896539
1401.25,39.8857944269029
1401.5,40.0107139572668
1401.75,40.1356334876307
1402,40.2605530179945
1402.25,40.3854725483584
1402.5,40.5103920787222
1402.75,40.6353116090861
1403,40.7602311394501
1403.25,40.8851506698139
1403.5,41.0100702001778
1403.75,41.1349897305416
1404,41.2599092609055
1404.25,41.3848287912695
1404.5,41.5097483216333
1404.75,41.6346678519972
1405,41.759587382361
1405.25,41.8845069127249
1405.5,41.9917047300818
1405.75,41.8817755433616
1406,41.7718463566414
1406.25,41.6619171699212
1406.5,41.5519879832011
1406.75,41.4420587964808
1407,41.3321296097606
1407.25,41.2222004230404
1407.5,41.1122712363202
1407.75,41.0023420496
1408,40.8924128628798
1408.25,40.7824836761595
1408.5,40.6725544894393
1408.75,40.5626253027191
1409,40.4526961159989
1409.25,40.3427669292787
1409.5,40.2328377425584
1409.75,40.1229085558383
1410,40.0129793691181
1410.25,39.9030501823979
1410.5,39.7934336776923
1410.75,39.6885012721866
1411,39.583568866681
1411.25,39.4786364611753
1411.5,39.3737040556697
1411.75,39.268771650164
1412,39.1638392446583
1412.25,39.0589068391527
1412.5,38.953974433647
1412.75,38.8490420281414
1413,38.7441096226358
1413.25,38.6391772171301
1413.5,38.5342448116244
1413.75,38.4293124061188
1414,38.3243800006131
1414.25,38.2194475951075
1414.5,38.1145151896018
1414.75,38.0095827840961
1415,37.9046503785905
1415.25,37.7997179730848
1415.5,37.7014898378345
1415.75,37.7314705251218
1416,37.7614512124092
1416.25,37.7914318996965
1416.5,37.8214125869838
1416.75,37.8513932742712
1417,37.8813739615585
1417.25,37.9113546488458
1417.5,37.9413353361332
1417.75,37.9713160234205
1418,38.0012967107078
1418.25,38.0312773979951
1418.5,38.0612580852825
1418.75,38.0912387725698
1419,38.1212194598571
1419.25,38.1512001471445
1419.5,38.1811808344318
1419.75,38.2111615217191
1420,38.2411422090065
1420.25,38.2711228962938
1420.5,38.301287514178
1420.75,38.3362649826799
1421,38.3712424511817
1421.25,38.4062199196837
1421.5,38.4411973881855
1421.75,38.4761748566874
1422,38.5111523251893
1422.25,38.5461297936912
1422.5,38.5811072621931
1422.75,38.616084730695
1423,38.6510621991968
1423.25,38.6860396676987
1423.5,38.7210171362006
1423.75,38.7559946047025
1424,38.7909720732044
1424.25,38.8259495417063
1424.5,38.8609270102081
1424.75,38.89590447871
1425,38.9308819472119
1425.25,38.9658594157138
1425.5,38.9983262315686
1425.75,38.9283712945649
1426,38.8584163575611
1426.25,38.7884614205573
1426.5,38.7185064835535
1426.75,38.6485515465498
1427,38.578596609546
1427.25,38.5086416725422
1427.5,38.4386867355385
1427.75,38.3687317985347
1428,38.2987768615309
1428.25,38.2288219245271
1428.5,38.1588669875234
1428.75,38.0889120505196
1429,38.0189571135159
1429.25,37.9490021765121
1429.5,37.8790472395083
1429.75,37.8090923025045
1430,37.7391373655008
1430.25,37.669182428497
1430.5,37.5996689249257
1430.75,37.5696882376383
1431,37.539707550351
1431.25,37.5097268630637
1431.5,37.4797461757764
1431.75,37.449765488489
1432,37.4197848012017
1432.25,37.3898041139144
1432.5,37.359823426627
1432.75,37.3298427393397
1433,37.2998620520523
1433.25,37.269881364765
1433.5,37.2399006774777
1433.75,37.2099199901904
1434,37.1799393029031
1434.25,37.1499586156157
1434.5,37.1199779283284
1434.75,37.089997241041
1435,37.0600165537537
1435.25,37.0300358664664
1435.5,37.0000551791791
1435.75,36.9950124153153
1436,36.9900156341007
1436.25,36.9850188528862
1436.5,36.9800220716716
1436.75,36.9750252904571
1437,36.9700285092425
1437.25,36.965031728028
1437.5,36.9600349468134
1437.75,36.9550381655989
1438,36.9500413843843
1438.25,36.9450446031697
1438.5,36.9400478219552
1438.75,36.9350510407406
1439,36.9300542595261
1439.25,36.9250574783115
1439.5,36.920060697097
1439.75,36.9150639158824
1440,36.9100671346678
1440.25,36.9050703534533
1440.5,36.9000735722387
1440.75,36.9590785077097
1441,37.0190398822844
1441.25,37.0790012568591
1441.5,37.1389626314337
1441.75,37.1989240060084
1442,37.258885380583
1442.25,37.3188467551577
1442.5,37.3788081297324
1442.75,37.438769504307
1443,37.4987308788817
1443.25,37.5586922534563
1443.5,37.618653628031
1443.75,37.6786150026057
1444,37.7385763771803
1444.25,37.798537751755
1444.5,37.8584991263296
1444.75,37.9184605009043
1445,37.978421875479
1445.25,38.0383832500536
1445.5,38.0983446246283
1445.75,38.0708470003985
1446,38.0408663131112
1446.25,38.0108856258238
1446.5,37.9809049385365
1446.75,37.9509242512492
1447,37.9209435639619
1447.25,37.8909628766746
1447.5,37.8609821893872
1447.75,37.8310015020999
1448,37.8010208148125
1448.25,37.7710401275252
1448.5,37.7410594402379
1448.75,37.7110787529506
1449,37.6810980656632
1449.25,37.6511173783759
1449.5,37.6211366910886
1449.75,37.5911560038012
1450,37.5611753165139
1450.25,37.5311946292266
1450.5,37.5012139419392
1450.75,37.4472609668618
1451,37.3922963735018
1451.25,37.3373317801417
1451.5,37.2823671867815
1451.75,37.2274025934214
1452,37.1724380000613
1452.25,37.1174734067012
1452.5,37.0625088133411
1452.75,37.007544219981
1453,36.9525796266209
1453.25,36.8976150332608
1453.5,36.8426504399007
1453.75,36.7876858465406
1454,36.7327212531805
1454.25,36.6777566598204
1454.5,36.6227920664603
1454.75,36.5678274731002
1455,36.5128628797401
1455.25,36.45789828638
1455.5,36.4029336930198
1455.75,36.442570736642
1456,36.487541767573
1456.25,36.532512798504
1456.5,36.577483829435
1456.75,36.622454860366
1457,36.667425891297
1457.25,36.712396922228
1457.5,36.757367953159
1457.75,36.80233898409
1458,36.847310015021
1458.25,36.892281045952
1458.5,36.937252076883
1458.75,36.982223107814
1459,37.027194138745
1459.25,37.0721651696759
1459.5,37.117136200607
1459.75,37.162107231538
1460,37.207078262469
1460.25,37.2520492933999
1460.5,37.2970203243309
1460.75,37.3279942368413
1461,37.3579749241286
1461.25,37.387955611416
1461.5,37.4179362987033
1461.75,37.4479169859906
1462,37.477897673278
1462.25,37.5078783605653
1462.5,37.5378590478526
1462.75,37.5678397351399
1463,37.5978204224273
1463.25,37.6278011097146
1463.5,37.6577817970019
1463.75,37.6877624842893
1464,37.7177431715766
1464.25,37.7477238588639
1464.5,37.7777045461512
1464.75,37.8076852334386
1465,37.8376659207259
1465.25,37.8676466080132
1465.5,37.8976272953006
1465.75,37.9230066521566
1466,37.9479905582294
1466.25,37.9729744643021
1466.5,37.9979583703749
1466.75,38.0229422764477
1467,38.0479261825204
1467.25,38.0729100885932
1467.5,38.097893994666
1467.75,38.1228779007388
1468,38.1478618068116
1468.25,38.1728457128843
1468.5,38.1978296189571
1468.75,38.2228135250299
1469,38.2477974311027
1469.25,38.2727813371754
1469.5,38.2977652432482
1469.75,38.322749149321
1470,38.3477330553938
1470.25,38.3727169614665
1470.5,38.3977008675393
1470.75,38.3410195886086
1471,38.2760614328194
1471.25,38.2111032770301
1471.5,38.1461451212409
1471.75,38.0811869654517
1472,38.0162288096625
1472.25,37.9512706538733
1472.5,37.886312498084
1472.75,37.8213543422948
1473,37.7563961865056
1473.25,37.6914380307164
1473.5,37.6264798749272
1473.75,37.561521719138
1474,37.4965635633488
1474.25,37.4316054075596
1474.5,37.3666472517703
1474.75,37.3016890959811
1475,37.2367309401919
1475.25,37.1717727844027
1475.5,37.1068146286135
1475.75,37.0642193678919
1476,37.0242451181754
1476.25,36.984270868459
1476.5,36.9442966187425
1476.75,36.9043223690261
1477,36.8643481193097
1477.25,36.8243738695932
1477.5,36.7843996198768
1477.75,36.7444253701603
1478,36.7044511204439
1478.25,36.6644768707274
1478.5,36.624502621011
1478.75,36.5845283712946
1479,36.5445541215781
1479.25,36.5045798718617
1479.5,36.4646056221452
1479.75,36.4246313724288
1480,36.3846571227124
1480.25,36.3446828729959
1480.5,36.3047086232795
1480.75,36.4146132859201
1481,36.5445295974985
1481.25,36.6744459090769
1481.5,36.8043622206553
1481.75,36.9342785322339
1482,37.0641948438123
1482.25,37.1941111553907
1482.5,37.3240274669691
1482.75,37.4539437785475
1483,37.583860090126
1483.25,37.7137764017044
1483.5,37.8436927132828
1483.75,37.9736090248613
1484,38.1035253364397
1484.25,38.2334416480182
1484.5,38.3633579595966
1484.75,38.493274271175
1485,38.6231905827534
1485.25,38.7531068943318
1485.5,38.8830232059102
1485.75,38.9130314827872
1486,38.9280218264308
1486.25,38.9430121700745
1486.5,38.9580025137181
1486.75,38.9729928573618
1487,38.9879832010055
1487.25,39.0029735446492
1487.5,39.0179638882928
1487.75,39.0329542319365
1488,39.0479445755801
1488.25,39.0629349192238
1488.5,39.0779252628675
1488.75,39.0929156065111
1489,39.1079059501548
1489.25,39.1228962937985
1489.5,39.1378866374421
1489.75,39.1528769810858
1490,39.1678673247295
1490.25,39.1828576683731
1490.5,39.1978480120168
1490.75,39.1572054811318
1491,39.1072376689862
1491.25,39.0572698568407
1491.5,39.0073020446951
1491.75,38.9573342325496
1492,38.9073664204041
1492.25,38.8573986082585
1492.5,38.8074307961129
1492.75,38.7574629839674
1493,38.7074951718218
1493.25,38.6575273596763
1493.5,38.6075595475307
1493.75,38.5575917353852
1494,38.5076239232396
1494.25,38.4576561110941
1494.5,38.4076882989486
1494.75,38.357720486803
1495,38.3077526746574
1495.25,38.2577848625119
1495.5,38.2078170503663
1495.75,38.2674412188467
1496,38.3473897182796
1496.25,38.4273382177125
1496.5,38.5072867171454
1496.75,38.5872352165783
1497,38.6671837160111
1497.25,38.747132215444
1497.5,38.8270807148769
1497.75,38.9070292143098
1498,38.9869777137427
1498.25,39.0669262131755
1498.5,39.1468747126084
1498.75,39.2268232120413
1499,39.3067717114742
1499.25,39.3867202109071
1499.5,39.4666687103399
1499.75,39.5466172097728
1500,39.6265657092057
1500.25,39.7065142086386
1500.5,39.7864627080715
1500.75,39.808301400938
1501,39.8182949633672
1501.25,39.8282885257963
1501.5,39.8382820882254
1501.75,39.8482756506545
1502,39.8582692130836
1502.25,39.8682627755127
1502.5,39.8782563379418
1502.75,39.8882499003709
1503,39.8982434628
1503.25,39.9082370252291
1503.5,39.9182305876583
1503.75,39.9282241500874
1504,39.9382177125165
1504.25,39.9482112749456
1504.5,39.9582048373747
1504.75,39.9681983998038
1505,39.9781919622329
1505.25,39.988185524662
1505.5,39.9981790870911
1505.75,39.8488059838754
1506,39.6639250789369
1506.25,39.4790441739984
1506.5,39.2941632690599
1506.75,39.1092823641212
1507,38.9244014591827
1507.25,38.7395205542442
1507.5,38.5546396493057
1507.75,38.3697587443672
1508,38.1848778394285
1508.25,37.99999693449
1508.5,37.8151160295515
1508.75,37.630235124613
1509,37.4453542196745
1509.25,37.2604733147359
1509.5,37.0755924097973
1509.75,36.8907115048588
1510,36.7058305999203
1510.25,36.5209496949818
1510.5,36.3360687900433
1510.75,36.1793415284632
1511,36.0294380920266
1511.25,35.87953465559
1511.5,35.7296312191534
1511.75,35.5797277827167
1512,35.42982434628
1512.25,35.2799209098433
1512.5,35.1300174734067
1512.75,34.9801140369701
1513,34.8302106005335
1513.25,34.6803071640967
1513.5,34.5304037276601
1513.75,34.3805002912235
1514,34.2305968547868
1514.25,34.0806934183502
1514.5,33.9307899819134
1514.75,33.7808865454768
1515,33.6309831090402
1515.25,33.4810796726036
1515.5,33.3311762361669
1515.75,33.2762545599461
1516,33.2462738726587
1516.25,33.2162931853714
1516.5,33.1863124980841
1516.75,33.1563318107967
1517,33.1263511235094
1517.25,33.0963704362221
1517.5,33.0663897489347
1517.75,33.0364090616474
1518,33.0064283743601
1518.25,32.9764476870728
1518.5,32.9464669997854
1518.75,32.9164863124981
1519,32.8865056252108
1519.25,32.8565249379234
1519.5,32.8265442506361
1519.75,32.7965635633488
1520,32.7665828760614
1520.25,32.7366021887741
1520.5,32.7066215014868
1520.75,32.8751938935041
1521,33.100049048159
1521.25,33.3249042028142
1521.5,33.5497593574691
1521.75,33.7746145121241
1522,33.999469666779
1522.25,34.2243248214339
1522.5,34.4491799760891
1522.75,34.674035130744
1523,34.8988902853989
1523.25,35.1237454400539
1523.5,35.3486005947088
1523.75,35.573455749364
1524,35.7983109040189
1524.25,36.0231660586738
1524.5,36.2480212133288
1524.75,36.4728763679837
1525,36.6977315226389
1525.25,36.9225866772938
1525.5,37.1474418319487
1525.75,37.2344593973207
1526,37.2794304282517
1526.25,37.3244014591827
1526.5,37.3693724901137
1526.75,37.4143435210447
1527,37.4593145519757
1527.25,37.5042855829067
1527.5,37.5492566138377
1527.75,37.5942276447687
1528,37.6391986756997
1528.25,37.6841697066307
1528.5,37.7291407375617
1528.75,37.7741117684927
1529,37.8190827994237
1529.25,37.8640538303547
1529.5,37.9090248612857
1529.75,37.9539958922167
1530,37.9989669231476
1530.25,38.0439379540787
1530.5,38.0889089850097
1530.75,38.261871187272
1531,38.4767327794978
1531.25,38.6915943717237
1531.5,38.9064559639495
1531.75,39.1213175561755
1532,39.3361791484013
1532.25,39.5510407406272
1532.5,39.765902332853
1532.75,39.9807639250788
1533,40.1956255173048
1533.25,40.4104871095307
1533.5,40.6253487017565
1533.75,40.8402102939823
1534,41.0550718862082
1534.25,41.2699334784342
1534.5,41.48479507066
1534.75,41.6996566628859
1535,41.9145182551117
1535.25,42.1293798473375
1535.5,42.3442414395635
1535.75,42.2704975322645
1536,42.0956101897551
1536.25,41.9207228472457
1536.5,41.7458355047363
1536.75,41.5709481622269
1537,41.3960608197173
1537.25,41.2211734772079
1537.5,41.0462861346985
1537.75,40.8713987921891
1538,40.6965114496797
1538.25,40.5216241071702
1538.5,40.3467367646608
1538.75,40.1718494221514
1539,39.996962079642
1539.25,39.8220747371326
1539.5,39.6471873946231
1539.75,39.4723000521137
1540,39.2974127096043
1540.25,39.1225253670949
1540.5,38.9476380245855
1540.75,38.9945280647436
1541,39.124444376322
1541.25,39.2543606879004
1541.5,39.3842769994788
1541.75,39.5141933110572
1542,39.6441096226357
1542.25,39.7740259342142
1542.5,39.9039422457926
1542.75,40.033858557371
1543,40.1637748689494
1543.25,40.2936911805278
1543.5,40.4236074921063
1543.75,40.5535238036847
1544,40.6834401152632
1544.25,40.8133564268416
1544.5,40.94327273842
1544.75,41.0731890499985
1545,41.2031053615769
1545.25,41.3330216731553
1545.5,41.4629379847337
1545.75,41.30000613102
1546,41.0201863830047
1546.25,40.7403666349897
1546.5,40.4605468869747
1546.75,40.1807271389596
1547,39.9009073909446
1547.25,39.6210876429296
1547.5,39.3412678949143
1547.75,39.0614481468992
1548,38.7816283988842
1548.25,38.5018086508692
1548.5,38.2219889028541
1548.75,37.9421691548389
1549,37.6623494068238
1549.25,37.3825296588088
1549.5,37.1027099107937
1549.75,36.8228901627787
1550,36.5430704147634
1550.25,36.2632506667484
1550.5,35.9834309187334
1550.75,35.9175347169002
1551,35.9425186229729
1551.25,35.9675025290457
1551.5,35.9924864351185
1551.75,36.0174703411913
1552,36.042454247264
1552.25,36.0674381533368
1552.5,36.0924220594096
1552.75,36.1174059654824
1553,36.1423898715551
1553.25,36.1673737776279
1553.5,36.1923576837007
1553.75,36.2173415897734
1554,36.2423254958462
1554.25,36.267309401919
1554.5,36.2922933079918
1554.75,36.3172772140646
1555,36.3422611201373
1555.25,36.3672450262101
1555.5,36.3922289322829
1555.75,36.3724594586309
1556,36.3324852089145
1556.25,36.2925109591981
1556.5,36.2525367094816
1556.75,36.2125624597652
1557,36.1725882100487
1557.25,36.1326139603323
1557.5,36.0926397106159
1557.75,36.0526654608994
1558,36.012691211183
1558.25,35.9727169614665
1558.5,35.9327427117501
1558.75,35.8927684620337
1559,35.8527942123172
1559.25,35.8128199626008
1559.5,35.7728457128843
1559.75,35.7328714631679
1560,35.6928972134515
1560.25,35.652922963735
1560.5,35.6129487140186
1560.75,35.7047239508292
1561,35.8596241684804
1561.25,36.0145243861316
1561.5,36.1694246037828
1561.75,36.3243248214341
1562,36.4792250390853
1562.25,36.6341252567365
1562.5,36.7890254743876
1562.75,36.9439256920388
1563,37.09882590969
1563.25,37.2537261273413
1563.5,37.4086263449925
1563.75,37.5635265626437
1564,37.7184267802948
1564.25,37.873326997946
1564.5,38.0282272155974
1564.75,38.1831274332485
1565,38.3380276508997
1565.25,38.4929278685509
1565.5,38.6478280862021
1565.75,38.6502927562
1566,38.5753410379817
1566.25,38.5003893197634
1566.5,38.425437601545
1566.75,38.3504858833267
1567,38.2755341651083
1567.25,38.20058244689
1567.5,38.1256307286717
1567.75,38.0506790104534
1568,37.9757272922351
1568.25,37.9007755740168
1568.5,37.8258238557984
1568.75,37.7508721375801
1569,37.6759204193618
1569.25,37.6009687011435
1569.5,37.5260169829252
1569.75,37.4510652647068
1570,37.3761135464885
1570.25,37.3011618282701
1570.5,37.2262101100518
1570.75,37.2779865730664
1571,37.3979093222158
1571.25,37.5178320713651
1571.5,37.6377548205144
1571.75,37.7576775696637
1572,37.877600318813
1572.25,37.9975230679624
1572.5,38.1174458171117
1572.75,38.237368566261
1573,38.3572913154103
1573.25,38.4772140645596
1573.5,38.5971368137089
1573.75,38.7170595628583
1574,38.8369823120076
1574.25,38.9569050611569
1574.5,39.0768278103062
1574.75,39.1967505594555
1575,39.3166733086049
1575.25,39.4365960577542
1575.5,39.5565188069035
1575.75,39.5745194813157
1576,39.5345452315993
1576.25,39.4945709818828
1576.5,39.4545967321664
1576.75,39.41462248245
1577,39.3746482327335
1577.25,39.3346739830171
1577.5,39.2946997333007
1577.75,39.2547254835842
1578,39.2147512338678
1578.25,39.1747769841513
1578.5,39.1348027344349
1578.75,39.0948284847185
1579,39.054854235002
1579.25,39.0148799852856
1579.5,38.9749057355691
1579.75,38.9349314858527
1580,38.8949572361363
1580.25,38.8549829864198
1580.5,38.8150087367033
1580.75,38.7344655283407
1581,38.629533122835
1581.25,38.5246007173294
1581.5,38.4196683118236
1581.75,38.314735906318
1582,38.2098035008124
1582.25,38.1048710953067
1582.5,37.9999386898011
1582.75,37.8950062842955
1583,37.7900738787897
1583.25,37.6851414732841
1583.5,37.5802090677784
1583.75,37.4752766622728
1584,37.3703442567672
1584.25,37.2654118512614
1584.5,37.1604794457558
1584.75,37.0555470402502
1585,36.9506146347445
1585.25,36.8456822292389
1585.5,36.7407498237332
1585.75,36.6327611048098
1586,36.5228319180896
1586.25,36.4129027313694
1586.5,36.3029735446492
1586.75,36.1930443579289
1587,36.0831151712087
1587.25,35.9731859844885
1587.5,35.8632567977683
1587.75,35.7533276110481
1588,35.643398424328
1588.25,35.5334692376077
1588.5,35.4235400508875
1588.75,35.3136108641673
1589,35.2036816774471
1589.25,35.0937524907269
1589.5,34.9838233040066
1589.75,34.8738941172864
1590,34.7639649305662
1590.25,34.654035743846
1590.5,34.5441065571258
1590.75,34.4670886852028
1591,34.4121240918427
1591.25,34.3571594984826
1591.5,34.3021949051225
1591.75,34.2472303117624
1592,34.1922657184022
1592.25,34.1373011250421
1592.5,34.082336531682
1592.75,34.027371938322
1593,33.9724073449619
1593.25,33.9174427516018
1593.5,33.8624781582416
1593.75,33.8075135648815
1594,33.7525489715214
1594.25,33.6975843781613
1594.5,33.6426197848012
1594.75,33.5876551914411
1595,33.532690598081
1595.25,33.4777260047209
1595.5,33.4227614113608
1595.75,33.4380583059992
1596,33.5030164617884
1596.25,33.5679746175776
1596.5,33.6329327733668
1596.75,33.697890929156
1597,33.7628490849453
1597.25,33.8278072407345
1597.5,33.8927653965237
1597.75,33.9577235523129
1598,34.0226817081021
1598.25,34.0876398638913
1598.5,34.1525980196805
1598.75,34.2175561754698
1599,34.282514331259
1599.25,34.3474724870482
1599.5,34.4124306428374
1599.75,34.4773887986266
1600,34.5423469544159
1600.25,34.6073051102051
1600.5,34.6722632659943
1600.75,34.7830324024401
1601,34.9279390576622
1601.25,35.0728457128844
1601.5,35.2177523681064
1601.75,35.3626590233285
1602,35.5075656785506
1602.25,35.6524723337727
1602.5,35.7973789889949
1602.75,35.9422856442169
1603,36.087192299439
1603.25,36.2320989546611
1603.5,36.3770056098831
1603.75,36.5219122651052
1604,36.6668189203274
1604.25,36.8117255755495
1604.5,36.9566322307716
1604.75,37.1015388859936
1605,37.2464455412157
1605.25,37.3913521964379
1605.5,37.53625885166
1605.75,37.6951595597927
1606,37.8650501210876
1606.25,38.0349406823824
1606.5,38.2048312436774
1606.75,38.3747218049723
1607,38.5446123662671
1607.25,38.714502927562
1607.5,38.8843934888568
1607.75,39.0542840501518
1608,39.2241746114466
1608.25,39.3940651727415
1608.5,39.5639557340363
1608.75,39.7338462953312
1609,39.903736856626
1609.25,40.073627417921
1609.5,40.2435179792158
1609.75,40.4134085405107
1610,40.5832991018055
1610.25,40.7531896631004
1610.5,40.9230802243954
1610.75,40.9261702584225
1611,40.7912571656295
1611.25,40.6563440728366
1611.5,40.5214309800436
1611.75,40.3865178872505
1612,40.2516047944575
1612.25,40.1166917016646
1612.5,39.9817786088716
1612.75,39.8468655160787
1613,39.7119524232856
1613.25,39.5770393304926
1613.5,39.4421262376996
1613.75,39.3072131449067
1614,39.1723000521137
1614.25,39.0373869593208
1614.5,38.9024738665277
1614.75,38.7675607737347
1615,38.6326476809417
1615.25,38.4977345881488
1615.5,38.3628214953558
1615.75,38.1931976334263
1616,37.9933263848441
1616.25,37.7934551362619
1616.5,37.5935838876798
1616.75,37.3937126390976
1617,37.1938413905153
1617.25,36.9939701419331
1617.5,36.7940988933509
1617.75,36.5942276447688
1618,36.3943563961866
1618.25,36.1944851476042
1618.5,35.9946138990221
1618.75,35.7947426504399
1619,35.5948714018577
1619.25,35.3950001532756
1619.5,35.1951289046934
1619.75,34.9952576561111
1620,34.7953864075289
1620.25,34.5955151589467
1620.5,34.3956439103646
1620.75,34.2609147481684
1621,34.18596302995
1621.25,34.1110113117317
1621.5,34.0360595935134
1621.75,33.9611078752951
1622,33.8861561570768
1622.25,33.8112044388584
1622.5,33.7362527206401
1622.75,33.6613010024218
1623,33.5863492842034
1623.25,33.5113975659851
1623.5,33.4364458477667
1623.75,33.3614941295484
1624,33.2865424113301
1624.25,33.2115906931118
1624.5,33.1366389748935
1624.75,33.0616872566752
1625,32.9867355384568
1625.25,32.9117838202385
1625.5,32.8368321020202
1625.75,32.7796695380277
1626,32.7396952883112
1626.25,32.6997210385948
1626.5,32.6597467888783
1626.75,32.6197725391619
1627,32.5797982894455
1627.25,32.539824039729
1627.5,32.4998497900126
1627.75,32.4598755402961
1628,32.4199012905797
1628.25,32.3799270408633
1628.5,32.3399527911468
1628.75,32.2999785414304
1629,32.2600042917139
1629.25,32.2200300419975
1629.5,32.1800557922811
1629.75,32.1400815425646
1630,32.1001072928482
1630.25,32.0601330431317
1630.5,32.0201587934153
1630.75,32.0594463689034
1631,32.1793691180527
1631.25,32.299291867202
1631.5,32.4192146163515
1631.75,32.5391373655008
1632,32.6590601146501
1632.25,32.7789828637994
1632.5,32.8989056129487
1632.75,33.0188283620981
1633,33.1387511112474
1633.25,33.2586738603967
1633.5,33.378596609546
1633.75,33.4985193586953
1634,33.6184421078447
1634.25,33.738364856994
1634.5,33.8582876061433
1634.75,33.9782103552926
1635,34.0981331044419
1635.25,34.2180558535912
1635.5,34.3379786027406
1635.75,34.4796143588486
1636,34.6445081389289
1636.25,34.8094019190092
1636.5,34.9742956990895
1636.75,35.1391894791699
1637,35.3040832592502
1637.25,35.4689770393305
1637.5,35.6338708194108
1637.75,35.798764599491
1638,35.9636583795715
1638.25,36.1285521596518
1638.5,36.2934459397321
1638.75,36.4583397198124
1639,36.6232334998926
1639.25,36.7881272799731
1639.5,36.9530210600534
1639.75,37.1179148401337
1640,37.2828086202139
1640.25,37.4477024002942
1640.5,37.6125961803745
1640.75,37.7023481806199
1641,37.7073449618344
1641.25,37.712341743049
1641.5,37.7173385242635
1641.75,37.7223353054781
1642,37.7273320866926
1642.25,37.7323288679072
1642.5,37.7373256491217
1642.75,37.7423224303363
1643,37.7473192115508
1643.25,37.7523159927654
1643.5,37.75731277398
1643.75,37.7623095551945
1644,37.7673063364091
1644.25,37.7723031176236
1644.5,37.7772998988382
1644.75,37.7822966800527
1645,37.7872934612673
1645.25,37.7922902424818
1645.5,37.7972870236964
1645.75,37.7451886821373
1646,37.6252659329879
1646.25,37.5053431838386
1646.5,37.3854204346893
1646.75,37.26549768554
1647,37.1455749363907
1647.25,37.0256521872413
1647.5,36.905729438092
1647.75,36.7858066889427
1648,36.6658839397934
1648.25,36.5459611906441
1648.5,36.4260384414947
1648.75,36.3061156923454
1649,36.1861929431961
1649.25,36.0662701940468
1649.5,35.9463474448975
1649.75,35.8264246957482
1650,35.7065019465988
1650.25,35.5865791974495
1650.5,35.4666564483002
1650.75,35.4199748628184
1651,35.4649458937494
1651.25,35.5099169246804
1651.5,35.5548879556114
1651.75,35.5998589865424
1652,35.6448300174734
1652.25,35.6898010484044
1652.5,35.7347720793354
1652.75,35.7797431102664
1653,35.8247141411974
1653.25,35.8696851721284
1653.5,35.9146562030594
1653.75,35.9596272339904
1654,36.0045982649214
1654.25,36.0495692958524
1654.5,36.0945403267833
1654.75,36.1395113577143
1655,36.1844823886453
1655.25,36.2294534195764
1655.5,36.2744244505073
1655.75,36.3495662303424
1656,36.4644921982771
1656.25,36.5794181662119
1656.5,36.6943441341467
1656.75,36.8092701020815
1657,36.9241960700162
1657.25,37.039122037951
1657.5,37.1540480058857
1657.75,37.2689739738206
1658,37.3838999417553
1658.25,37.4988259096901
1658.5,37.6137518776248
1658.75,37.7286778455596
1659,37.8436038134944
1659.25,37.9585297814291
1659.5,38.0734557493639
1659.75,38.1883817172986
1660,38.3033076852334
1660.25,38.4182336531681
1660.5,38.533159621103
1660.75,38.591637288863
1661,38.5716501640048
1661.25,38.5516630391466
1661.5,38.5316759142884
1661.75,38.5116887894301
1662,38.4917016645719
1662.25,38.4717145397137
1662.5,38.4517274148555
1662.75,38.4317402899973
1663,38.411753165139
1663.25,38.3917660402808
1663.5,38.3717789154226
1663.75,38.3517917905644
1664,38.3318046657062
1664.25,38.3118175408479
1664.5,38.2918304159897
1664.75,38.2718432911315
1665,38.2518561662733
1665.25,38.2318690414151
1665.5,38.2118819165568
1665.75,38.1452898439655
1666,38.0103767511726
1666.25,37.8754636583796
1666.5,37.7405505655866
1666.75,37.6056374727937
1667,37.4707243800006
1667.25,37.3358112872076
1667.5,37.2008981944147
1667.75,37.0659851016217
1668,36.9310720088287
1668.25,36.7961589160357
1668.5,36.6612458232427
1668.75,36.5263327304497
1669,36.3914196376568
1669.25,36.2565065448638
1669.5,36.1215934520707
1669.75,35.9866803592778
1670,35.8517672664848
1670.25,35.7168541736918
1670.5,35.5819410808989
1670.75,35.4960761472671
1671,35.486082584838
1671.25,35.4760890224089
1671.5,35.4660954599798
1671.75,35.4561018975507
1672,35.4461083351216
1672.25,35.4361147726924
1672.5,35.4261212102633
1672.75,35.4161276478342
1673,35.4061340854051
1673.25,35.396140522976
1673.5,35.3861469605469
1673.75,35.3761533981178
1674,35.3661598356887
1674.25,35.3561662732596
1674.5,35.3461727108305
1674.75,35.3361791484013
1675,35.3261855859722
1675.25,35.3161920235431
1675.5,35.306198461114
1675.75,35.3094877532877
1676,35.3344716593605
1676.25,35.3594555654333
1676.5,35.3844394715061
1676.75,35.4094233775789
1677,35.4344072836516
1677.25,35.4593911897244
1677.5,35.4843750957972
1677.75,35.50935900187
1678,35.5343429079427
1678.25,35.5593268140155
1678.5,35.5843107200883
1678.75,35.6092946261611
1679,35.6342785322338
1679.25,35.6592624383066
1679.5,35.6842463443794
1679.75,35.7092302504522
1680,35.7342141565249
1680.25,35.7591980625977
1680.5,35.7841819686705
1680.75,35.7743355507189
1681,35.7043806137151
1681.25,35.6344256767114
1681.5,35.5644707397075
1681.75,35.4945158027038
1682,35.4245608657
1682.25,35.3546059286963
1682.5,35.2846509916925
1682.75,35.2146960546887
1683,35.1447411176849
1683.25,35.0747861806812
1683.5,35.0048312436774
1683.75,34.9348763066737
1684,34.8649213696698
1684.25,34.7949664326661
1684.5,34.7250114956623
1684.75,34.6550565586586
1685,34.5851016216548
1685.25,34.515146684651
1685.5,34.4451917476472
1685.75,34.4265319885963
1686,34.5014837068146
1686.25,34.5764354250329
1686.5,34.6513871432512
1686.75,34.7263388614696
1687,34.8012905796879
1687.25,34.8762422979062
1687.5,34.9511940161246
1687.75,35.0261457343429
1688,35.1010974525612
1688.25,35.1760491707796
1688.5,35.2510008889979
1688.75,35.3259526072162
1689,35.4009043254345
1689.25,35.4758560436529
1689.5,35.5508077618712
1689.75,35.6257594800895
1690,35.7007111983078
1690.25,35.7756629165261
1690.5,35.8506146347445
1690.75,35.9289752000245
1691,36.013920480672
1691.25,36.0988657613194
1691.5,36.1838110419668
1691.75,36.2687563226142
1692,36.3537016032617
1692.25,36.4386468839091
1692.5,36.5235921645566
1692.75,36.608537445204
1693,36.6934827258514
1693.25,36.7784280064989
1693.5,36.8633732871463
1693.75,36.9483185677937
1694,37.0332638484412
1694.25,37.1182091290886
1694.5,37.2031544097361
1694.75,37.2880996903835
1695,37.3730449710309
1695.25,37.4579902516783
1695.5,37.5429355323258
1695.75,37.7197234910028
1696,38.0844885196653
1696.25,38.4492535483277
1696.5,38.8140185769902
1696.75,39.1787836056527
1697,39.5435486343151
1697.25,39.9083136629779
1697.5,40.2730786916404
1697.75,40.6378437203028
1698,41.0026087489653
1698.25,41.3673737776277
1698.5,41.7321388062905
1698.75,42.096903834953
1699,42.4616688636154
1699.25,42.8264338922779
1699.5,43.1911989209403
1699.75,43.5559639496031
1700,43.9207289782656
1700.25,44.285494006928
1700.5,44.6502590355905
1700.75,44.8164893780082
1701,44.5516599736365
1701.25,44.2868305692652
1701.5,44.0220011648938
1701.75,43.7571717605224
1702,43.492342356151
1702.25,43.2275129517797
1702.5,42.9626835474081
1702.75,42.6978541430367
1703,42.4330247386653
1703.25,42.168195334294
1703.5,41.9033659299226
1703.75,41.638536525551
1704,41.3737071211796
1704.25,41.1088777168082
1704.5,40.8440483124369
1704.75,40.5792189080655
1705,40.3143895036939
1705.25,40.0495600993225
1705.5,39.7847306949511
1705.75,39.5652401827044
1706,39.4503142147697
1706.25,39.3353882468348
1706.5,39.2204622789001
1706.75,39.1055363109653
1707,38.9906103430306
1707.25,38.8756843750958
1707.5,38.7607584071611
1707.75,38.6458324392262
1708,38.5309064712915
1708.25,38.4159805033568
1708.5,38.301054535422
1708.75,38.1861285674873
1709,38.0712025995524
1709.25,37.9562766316177
1709.5,37.8413506636829
1709.75,37.7264246957482
1710,37.6114987278134
1710.25,37.4965727598786
1710.5,37.3816467919438
1710.75,37.2652739033138
1711,37.1453511541645
1711.25,37.0254284050152
1711.5,36.9055056558658
1711.75,36.7855829067165
1712,36.6656601575672
1712.25,36.5457374084179
1712.5,36.4258146592686
1712.75,36.3058919101193
1713,36.1859691609699
1713.25,36.0660464118206
1713.5,35.9461236626713
1713.75,35.826200913522
1714,35.7062781643727
1714.25,35.5863554152233
1714.5,35.466432666074
1714.75,35.3465099169247
1715,35.2265871677754
1715.25,35.1066644186261
1715.5,34.9867416694767
1715.75,34.8972349100273
1716,34.8872413475982
1716.25,34.8772477851691
1716.5,34.86725422274
1716.75,34.8572606603108
1717,34.8472670978817
1717.25,34.8372735354526
1717.5,34.8272799730235
1717.75,34.8172864105944
1718,34.8072928481653
1718.25,34.7972992857362
1718.5,34.7873057233071
1718.75,34.777312160878
1719,34.7673185984489
1719.25,34.7573250360198
1719.5,34.7473314735906
1719.75,34.7373379111615
1720,34.7273443487324
1720.25,34.7173507863033
1720.5,34.7073572238742
1720.75,34.717136200607
1721,34.7820943563962
1721.25,34.8470525121854
1721.5,34.9120106679746
1721.75,34.9769688237638
1722,35.041926979553
1722.25,35.1068851353423
1722.5,35.1718432911315
1722.75,35.2368014469207
1723,35.3017596027099
1723.25,35.3667177584991
1723.5,35.4316759142884
1723.75,35.4966340700776
1724,35.5615922258668
1724.25,35.626550381656
1724.5,35.6915085374452
1724.75,35.7564666932344
1725,35.8214248490236
1725.25,35.8863830048128
1725.5,35.951341160602
1725.75,36.0050151742742
1726,36.0250022991325
1726.25,36.0449894239907
1726.5,36.0649765488489
1726.75,36.0849636737071
1727,36.1049507985653
1727.25,36.1249379234236
1727.5,36.1449250482818
1727.75,36.16491217314
1728,36.1848992979982
1728.25,36.2048864228564
1728.5,36.2248735477147
1728.75,36.2448606725729
1729,36.2648477974311
1729.25,36.2848349222893
1729.5,36.3048220471475
1729.75,36.3248091720058
1730,36.344796296864
1730.25,36.3647834217222
1730.5,36.3847705465804
1730.75,36.4261671929125
1731,36.5360963796327
1731.25,36.646025566353
1731.5,36.7559547530732
1731.75,36.8658839397934
1732,36.9758131265136
1732.25,37.0857423132338
1732.5,37.195671499954
1732.75,37.3056006866742
1733,37.4155298733944
1733.25,37.5254590601146
1733.5,37.6353882468348
1733.75,37.745317433555
1734,37.8552466202753
1734.25,37.9651758069955
1734.5,38.0751049937157
1734.75,38.1850341804359
1735,38.2949633671561
1735.25,38.4048925538764
1735.5,38.5148217405966
1735.75,38.6168756322614
1736,38.6918273504797
1736.25,38.766779068698
1736.5,38.8417307869164
1736.75,38.9166825051347
1737,38.9916342233531
1737.25,39.0665859415714
1737.5,39.1415376597897
1737.75,39.216489378008
1738,39.2914410962264
1738.25,39.3663928144447
1738.5,39.441344532663
1738.75,39.5162962508813
1739,39.5912479690996
1739.25,39.666199687318
1739.5,39.7411514055363
1739.75,39.8161031237546
1740,39.8910548419729
1740.25,39.9660065601913
1740.5,40.0409582784096
1740.75,40.1201526623954
1741,40.2150915054719
1741.25,40.3100303485485
1741.5,40.404969191625
1741.75,40.4999080347016
1742,40.5948468777781
1742.25,40.6897857208547
1742.5,40.7847245639312
1742.75,40.8796634070077
1743,40.9746022500842
1743.25,41.0695410931609
1743.5,41.1644799362374
1743.75,41.2594187793139
1744,41.3543576223905
1744.25,41.449296465467
1744.5,41.5442353085436
1744.75,41.6391741516201
1745,41.7341129946967
1745.25,41.8290518377732
1745.5,41.9239906808497
1745.75,42.0229146868582
1746,42.1378406547929
1746.25,42.2527666227277
1746.5,42.3676925906624
1746.75,42.4826185585972
1747,42.597544526532
1747.25,42.7124704944668
1747.5,42.8273964624015
1747.75,42.9423224303363
1748,43.057248398271
1748.25,43.1721743662057
1748.5,43.2871003341406
1748.75,43.4020263020753
1749,43.5169522700101
1749.25,43.6318782379448
1749.5,43.7468042058796
1749.75,43.8617301738144
1750,43.9766561417492
1750.25,44.0915821096839
1750.5,44.2065080776187
1750.75,44.3074553201925
1751,44.347429569909
1751.25,44.3874038196254
1751.5,44.4273780693418
1751.75,44.4673523190583
1752,44.5073265687747
1752.25,44.5473008184912
1752.5,44.5872750682076
1752.75,44.627249317924
1753,44.6672235676405
1753.25,44.7071978173569
1753.5,44.7471720670733
1753.75,44.7871463167898
1754,44.8271205665062
1754.25,44.8670948162227
1754.5,44.9070690659391
1754.75,44.9470433156555
1755,44.987017565372
1755.25,45.0269918150884
1755.5,45.0669660648049
1755.75,45.0887219889029
1756,45.0237638331137
1756.25,44.9588056773244
1756.5,44.8938475215352
1756.75,44.828889365746
1757,44.7639312099568
1757.25,44.6989730541676
1757.5,44.6340148983783
1757.75,44.5690567425891
1758,44.5040985867999
1758.25,44.4391404310107
1758.5,44.3741822752215
1758.75,44.3092241194323
1759,44.244265963643
1759.25,44.1793078078538
1759.5,44.1143496520646
1759.75,44.0493914962754
1760,43.9844333404862
1760.25,43.919475184697
1760.5,43.8545170289078
1760.75,43.7975905091812
1761,43.7826001655375
1761.25,43.7676098218939
1761.5,43.7526194782502
1761.75,43.7376291346065
1762,43.7226387909629
1762.25,43.7076484473192
1762.5,43.6926581036756
1762.75,43.6776677600319
1763,43.6626774163882
1763.25,43.6476870727446
1763.5,43.6326967291009
1763.75,43.6177063854572
1764,43.6027160418136
1764.25,43.5877256981699
1764.5,43.5727353545262
1764.75,43.5577450108826
1765,43.5427546672389
1765.25,43.5277643235952
1765.5,43.5127739799516
1765.75,43.4726648477974
1766,43.2877839428589
1766.25,43.1029030379204
1766.5,42.9180221329819
1766.75,42.7331412280432
1767,42.5482603231047
1767.25,42.3633794181662
1767.5,42.1784985132277
1767.75,41.9936176082892
1768,41.8087367033505
1768.25,41.623855798412
1768.5,41.4389748934735
1768.75,41.254093988535
1769,41.0692130835965
1769.25,40.884332178658
1769.5,40.6994512737194
1769.75,40.5145703687809
1770,40.3296894638423
1770.25,40.1448085589038
1770.5,39.9599276539653
1770.75,39.8074185340732
1771,39.8623831274332
1771.25,39.9173477207933
1771.5,39.9723123141534
1771.75,40.0272769075135
1772,40.0822415008737
1772.25,40.1372060942338
1772.5,40.1921706875939
1772.75,40.247135280954
1773,40.3020998743141
1773.25,40.3570644676742
1773.5,40.4120290610343
1773.75,40.4669936543944
1774,40.5219582477545
1774.25,40.5769228411146
1774.5,40.6318874344747
1774.75,40.6868520278348
1775,40.7418166211949
1775.25,40.796781214555
1775.5,40.8517458079151
1775.75,40.8890193433678
1776,40.7990772815058
1776.25,40.7091352196438
1776.5,40.6191931577818
1776.75,40.5292510959198
1777,40.4393090340579
1777.25,40.3493669721958
1777.5,40.2594249103338
1777.75,40.1694828484719
1778,40.0795407866099
1778.25,39.9895987247479
1778.5,39.8996566628858
1778.75,39.8097146010239
1779,39.7197725391619
1779.25,39.6298304772999
1779.5,39.5398884154379
1779.75,39.449946353576
1780,39.3600042917139
1780.25,39.2700622298519
1780.5,39.18012016799
1780.75,39.1
1781,39.1
1781.25,39.1
1781.5,39.1
1781.75,39.1
1782,39.1
1782.25,39.1
1782.5,39.1
1782.75,39.1
1783,39.1
1783.25,39.1
1783.5,39.1
1783.75,39.1
1784,39.1
1784.25,39.1
1784.5,39.1
1784.75,39.1
1785,39.1
1785.25,39.1
1785.5,39.1
1785.75,39.1
1786,39.1
1786.25,39.1
1786.5,39.1
1786.75,39.1
1787,39.1
1787.25,39.1
1787.5,39.1
1787.75,39.1
1788,39.1
1788.25,39.1
1788.5,39.1
1788.75,39.1
1789,39.1
1789.25,39.1
1789.5,39.1
1789.75,39.1
1790,39.1
1790.25,39.1
1790.5,39.1
1790.75,39.0941632690598
1791,39.0242083320561
1791.25,38.9542533950523
1791.5,38.8842984580485
1791.75,38.8143435210447
1792,38.744388584041
1792.25,38.6744336470372
1792.5,38.6044787100334
1792.75,38.5345237730297
1793,38.4645688360259
1793.25,38.3946138990221
1793.5,38.3246589620183
1793.75,38.2547040250146
1794,38.1847490880108
1794.25,38.1147941510071
1794.5,38.0448392140032
1794.75,37.9748842769995
1795,37.9049293399957
1795.25,37.834974402992
1795.5,37.7650194659882
1795.75,37.7
1796,37.7
1796.25,37.7
1796.5,37.7
1796.75,37.7
1797,37.7
1797.25,37.7
1797.5,37.7
1797.75,37.7
1798,37.7
1798.25,37.7
1798.5,37.7
1798.75,37.7
1799,37.7
1799.25,37.7
1799.5,37.7
1799.75,37.7
1800,37.7
1800.25,37.7
1800.5,37.7
1800.75,37.7008644738052
1801,37.7158548174489
1801.25,37.7308451610926
1801.5,37.7458355047362
1801.75,37.7608258483799
1802,37.7758161920235
1802.25,37.7908065356672
1802.5,37.8057968793109
1802.75,37.8207872229545
1803,37.8357775665982
1803.25,37.8507679102419
1803.5,37.8657582538855
1803.75,37.8807485975292
1804,37.8957389411729
1804.25,37.9107292848165
1804.5,37.9257196284602
1804.75,37.9407099721039
1805,37.9557003157475
1805.25,37.9706906593912
1805.5,37.9856810030348
1805.75,38.0004475644523
1806,38.0104411268815
1806.25,38.0204346893106
1806.5,38.0304282517397
1806.75,38.0404218141688
1807,38.0504153765979
1807.25,38.060408939027
1807.5,38.0704025014561
1807.75,38.0803960638852
1808,38.0903896263143
1808.25,38.1003831887434
1808.5,38.1103767511726
1808.75,38.1203703136017
1809,38.1303638760308
1809.25,38.1403574384599
1809.5,38.150351000889
1809.75,38.1603445633181
1810,38.1703381257472
1810.25,38.1803316881763
1810.5,38.1903252506054
1810.75,38.2
1811,38.2
1811.25,38.2
1811.5,38.2
1811.75,38.2
1812,38.2
1812.25,38.2
1812.5,38.2
1812.75,38.2
1813,38.2
1813.25,38.2
1813.5,38.2
1813.75,38.2
1814,38.2
1814.25,38.2
1814.5,38.2
1814.75,38.2
1815,38.2
1815.25,38.2
1815.5,38.2
1815.75,38.2
1816,38.2
1816.25,38.2
1816.5,38.2
1816.75,38.2
1817,38.2
1817.25,38.2
1817.5,38.2
1817.75,38.2
1818,38.2
1818.25,38.2
1818.5,38.2
1818.75,38.2
1819,38.2
1819.25,38.2
1819.5,38.2
1819.75,38.2
1820,38.2
1820.25,38.2
1820.5,38.2
1820.75,38.2
1821,38.2
1821.25,38.2
1821.5,38.2
1821.75,38.2
1822,38.2
1822.25,38.2
1822.5,38.2
1822.75,38.2
1823,38.2
1823.25,38.2
1823.5,38.2
1823.75,38.2
1824,38.2
1824.25,38.2
1824.5,38.2
1824.75,38.2
1825,38.2
1825.25,38.2
1825.5,38.2
1825.75,38.2
1826,38.3406200504788
1826.25,38.4821955182245
1826.5,38.6237709859702
1826.75,38.7653464537159
1827,38.9069219214616
1827.25,39.0484973892074
1827.5,39.1900728569531
1827.75,39.3316483246988
1828,39.4732237924445
1828.25,39.6147992601902
1828.5,39.756374727936
1828.75,39.8979501956817
1829,40.0395256634274
1829.25,40.1811011311731
1829.5,40.3226765989188
1829.75,40.4642520666647
1830,40.6058275344104
1830.25,40.7474030021561
1830.5,40.8889784699018
1830.75,41.0305539376475
1831,41.1721294053932
1831.25,41.313704873139
1831.5,41.4552803408847
1831.75,41.5968558086304
1832,39.5675031421485
1832.25,37.488842156894
1832.5,35.4101811716375
1832.75,33.331520186383
1833,31.2528592011285
1833.25,29.1741982158739
1833.5,27.0955372306194
1833.75,25.0168762453629
1834,22.9382152601084
1834.25,20.8595542748539
1834.5,18.7808932895993
1834.75,16.7022323043448
1835,14.6235713190884
1835.25,12.5449103338338
1835.5,10.4662493485793
1835.75,8.38758836332476
1836,6.30892737807022
1836.25,4.23026639281568
1836.5,2.15160540755925
1836.75,0.0729444223047176
1837,2.24799362373883
1837.25,4.57774286502472
1837.5,6.9074921063106
1837.75,9.2372413475986
1838,11.5669905888845
1838.25,13.8967398301704
1838.5,16.2264890714563
1838.75,18.5562383127421
1839,20.8859875540301
1839.25,23.215736795316
1839.5,25.5454860366019
1839.75,27.8752352778878
1840,30.2049845191737
1840.25,32.5347337604617
1840.5,34.8644830017476
1840.75,37.1942322430335
1841,37.4669476717451
1841.25,37.6418350142545
1841.5,37.8167223567639
1841.75,37.9916096992735
1842,38.1664970417829
1842.25,38.3413843842923
1842.5,38.5162717268017
1842.75,38.6911590693111
1843,38.8660464118206
1843.25,39.04093375433
1843.5,39.2158210968394
1843.75,39.3907084393488
1844,39.5655957818582
1844.25,39.7404831243678
1844.5,39.9153704668772
1844.75,40.0902578093866
1845,40.265145151896
1845.25,40.4400324944054
1845.5,40.6149198369149
1845.75,40.7898071794243
1846,40.8
1846.25,40.8
1846.5,40.8
1846.75,40.8
1847,40.8
1847.25,40.8
1847.5,40.8
1847.75,40.8
1848,40.8
1848.25,40.8
1848.5,40.8
1848.75,40.8
1849,40.8
1849.25,40.8
1849.5,40.8
1849.75,40.8
1850,40.8
1850.25,40.8
1850.5,40.8
1850.75,40.8
1851,40.7907176358787
1851.25,40.7807240734496
1851.5,40.7707305110205
1851.75,40.7607369485914
1852,40.7507433861623
1852.25,40.7407498237332
1852.5,40.7307562613041
1852.75,40.720762698875
1853,40.7107691364458
1853.25,40.7007755740167
1853.5,40.6907820115876
1853.75,40.6807884491585
1854,40.6707948867294
1854.25,40.6608013243003
1854.5,40.6508077618712
1854.75,40.6408141994421
1855,40.630820637013
1855.25,40.6208270745839
1855.5,40.6108335121547
1855.75,40.6008399497256
1856,40.6
1856.25,40.6
1856.5,40.6
1856.75,40.6
1857,40.6
1857.25,40.6
1857.5,40.6
1857.75,40.6
1858,40.6
1858.25,40.6
1858.5,40.6
1858.75,40.6
1859,40.6
1859.25,40.6
1859.5,40.6
1859.75,40.6
1860,40.6
1860.25,40.6
1860.5,40.6
1860.75,40.6
1861,40.6
1861.25,40.6
1861.5,40.6
1861.75,40.6
1862,40.6089991110021
1862.25,40.6189926734312
1862.5,40.6289862358603
1862.75,40.6389797982894
1863,40.6489733607186
1863.25,40.6589669231477
1863.5,40.6689604855768
1863.75,40.6789540480059
1864,40.688947610435
1864.25,40.6989411728641
1864.5,40.7089347352932
1864.75,40.7189282977223
1865,40.7289218601514
1865.25,40.7389154225805
1865.5,40.7489089850097
1865.75,40.7589025474388
1866,40.7688961098679
1866.25,40.778889672297
1866.5,40.7888832347261
1866.75,40.7988767971552
1867,40.7556482020784
1867.25,40.7056803899329
1867.5,40.6557125777873
1867.75,40.6057447656418
1868,40.5557769534962
1868.25,40.5058091413507
1868.5,40.4558413292051
1868.75,40.4058735170596
1869,40.355905704914
1869.25,40.3059378927684
1869.5,40.2559700806229
1869.75,40.2060022684774
1870,40.1560344563318
1870.25,40.1060666441863
1870.5,40.0560988320407
1870.75,40.0061310198952
1871,39.9693142454247
1871.25,39.9343367769228
1871.5,39.899359308421
1871.75,39.8643818399191
1872,39.8294043714172
1872.25,39.7944269029153
1872.5,39.7594494344134
1872.75,39.7244719659115
1873,39.6894944974097
1873.25,39.6545170289078
1873.5,39.6195395604059
1873.75,39.584562091904
1874,39.5495846234021
1874.25,39.5146071549002
1874.5,39.4796296863983
1874.75,39.4446522178964
1875,39.4096747493946
1875.25,39.3746972808927
1875.5,39.3397198123908
1875.75,39.3047423438889
1876,39.2964005804032
1876.25,39.2922365960578
1876.5,39.2880726117123
1876.75,39.2839086273668
1877,39.2797446430214
1877.25,39.2755806586759
1877.5,39.2714166743304
1877.75,39.267252689985
1878,39.2630887056395
1878.25,39.2589247212941
1878.5,39.2547607369486
1878.75,39.2505967526031
1879,39.2464327682577
1879.25,39.2422687839122
1879.5,39.2381047995667
1879.75,39.2339408152213
1880,39.2297768308758
1880.25,39.2256128465304
1880.5,39.2214488621849
1880.75,39.2172848778394
1881,39.213120893494
1881.25,39.2089569091485
1881.5,39.204792924803
1881.75,39.2006289404576
1882,39.2084841053309
1882.25,39.21847766776
1882.5,39.2284712301891
1882.75,39.2384647926183
1883,39.2484583550474
1883.25,39.2584519174765
1883.5,39.2684454799056
1883.75,39.2784390423347
1884,39.2884326047638
1884.25,39.2984261671929
1884.5,39.308419729622
1884.75,39.3184132920511
1885,39.3284068544802
1885.25,39.3384004169094
1885.5,39.3483939793385
1885.75,39.3583875417676
1886,39.3683811041967
1886.25,39.3783746666258
1886.5,39.3883682290549
1886.75,39.398361791484
1887,39.2161822139113
1887.25,38.996323840471
1887.5,38.7764654670306
1887.75,38.55660709359
1888,38.3367487201496
1888.25,38.1168903467092
1888.5,37.8970319732688
1888.75,37.6771735998285
1889,37.4573152263879
1889.25,37.2374568529475
1889.5,37.0175984795071
1889.75,36.7977401060667
1890,36.5778817326263
1890.25,36.3580233591858
1890.5,36.1381649857454
1890.75,35.918306612305
1891,35.6984482388646
1891.25,35.4785898654242
1891.5,35.2587314919836
1891.75,35.0388731185433
1892,35.012339903743
1892.25,35.0273302473867
1892.5,35.0423205910303
1892.75,35.057310934674
1893,35.0723012783177
1893.25,35.0872916219613
1893.5,35.102281965605
1893.75,35.1172723092486
1894,35.1322626528923
1894.25,35.147252996536
1894.5,35.1622433401796
1894.75,35.1772336838233
1895,35.192224027467
1895.25,35.2072143711106
1895.5,35.2222047147543
1895.75,35.237195058398
1896,35.2521854020416
1896.25,35.2671757456853
1896.5,35.282166089329
1896.75,35.2971564329726
1897,35.2493884307655
1897.25,35.1869286655835
1897.5,35.1244689004016
1897.75,35.0620091352197
1898,34.9995493700377
1898.25,34.9370896048558
1898.5,34.8746298396738
1898.75,34.8121700744919
1899,34.74971030931
1899.25,34.687250544128
1899.5,34.6247907789461
1899.75,34.5623310137641
1900,34.4998712485822
1900.25,34.4374114834003
1900.5,34.3749517182184
1900.75,34.3124919530364
1901,34.3
1901.25,34.3
1901.5,34.3
1901.75,34.3
1902,34.3
1902.25,34.3
1902.5,34.3
1902.75,34.3
1903,34.3
1903.25,34.3
1903.5,34.3
1903.75,34.3
1904,34.3
1904.25,34.3
1904.5,34.3
1904.75,34.3
1905,34.3
1905.25,34.3
1905.5,34.3
1905.75,34.3
1906,34.2724686551608
1906.25,34.2374911866589
1906.5,34.202513718157
1906.75,34.1675362496551
1907,34.1325587811533
1907.25,34.0975813126514
1907.5,34.0626038441495
1907.75,34.0276263756476
1908,33.9926489071457
1908.25,33.9576714386438
1908.5,33.922693970142
1908.75,33.88771650164
1909,33.8527390331382
1909.25,33.8177615646363
1909.5,33.7827840961344
1909.75,33.7478066276325
1910,33.7128291591306
1910.25,33.6778516906287
1910.5,33.6428742221269
1910.75,33.607896753625
1911,33.6270807148769
1911.25,33.6620581833788
1911.5,33.6970356518807
1911.75,33.7320131203826
1912,33.7669905888845
1912.25,33.8019680573863
1912.5,33.8369455258882
1912.75,33.8719229943901
1913,33.906900462892
1913.25,33.9418779313939
1913.5,33.9768553998958
1913.75,34.0118328683976
1914,34.0468103368995
1914.25,34.0817878054014
1914.5,34.1167652739033
1914.75,34.1517427424052
1915,34.1867202109071
1915.25,34.221697679409
1915.5,34.2566751479109
1915.75,34.2916526164127
1916,34.3874988504337
1916.25,34.5024248183685
1916.5,34.6173507863033
1916.75,34.7322767542381
1917,34.8472027221728
1917.25,34.9621286901076
1917.5,35.0770546580423
1917.75,35.1919806259772
1918,35.3069065939119
1918.25,35.4218325618467
1918.5,35.5367585297814
1918.75,35.6516844977161
1919,35.7666104656509
1919.25,35.8815364335857
1919.5,35.9964624015205
1919.75,36.1113883694552
1920,36.22631433739
1920.25,36.3412403053247
1920.5,36.4561662732596
1920.75,36.5710922411943
1921,36.6186996106802
1921.25,36.643683516753
1921.5,36.6686674228258
1921.75,36.6936513288986
1922,36.7186352349713
1922.25,36.7436191410441
1922.5,36.7686030471169
1922.75,36.7935869531897
1923,36.8185708592624
1923.25,36.8435547653352
1923.5,36.868538671408
1923.75,36.8935225774808
1924,36.9185064835535
1924.25,36.9434903896263
1924.5,36.9684742956991
1924.75,36.9934582017719
1925,37.0184421078446
1925.25,37.0434260139174
1925.5,37.0684099199902
1925.75,37.093393826063
1926,37.12572882499
1926.25,37.1607062934919
1926.5,37.1956837619938
1926.75,37.2306612304957
1927,37.2656386989976
1927.25,37.3006161674995
1927.5,37.3355936360013
1927.75,37.3705711045032
1928,37.4055485730051
1928.25,37.440526041507
1928.5,37.4755035100089
1928.75,37.5104809785108
1929,37.5454584470126
1929.25,37.5804359155145
1929.5,37.6154133840164
1929.75,37.6503908525183
1930,37.6853683210202
1930.25,37.7203457895221
1930.5,37.755323258024
1930.75,37.7903007265258
1931,37.8
1931.25,37.8
1931.5,37.8
1931.75,37.8
1932,37.8
1932.25,37.8
1932.5,37.8
1932.75,37.8
1933,37.8
1933.25,37.8
1933.5,37.8
1933.75,37.8
1934,37.8
1934.25,37.8
1934.5,37.8
1934.75,37.8
1935,37.8
1935.25,37.8
1935.5,37.8
1935.75,37.8
1936,37.8
1936.25,37.8
1936.5,37.8
1936.75,37.8
1937,37.8
1937.25,37.8
1937.5,37.8
1937.75,37.8
1938,37.8
1938.25,37.8
1938.5,37.8
1938.75,37.8
1939,37.8
1939.25,37.8
1939.5,37.8
1939.75,37.8
1940,37.8
1940.25,37.8
1940.5,37.8
1940.75,37.8
1941,37.768658226296
1941.25,37.723687195365
1941.5,37.6787161644339
1941.75,37.633745133503
1942,37.588774102572
1942.25,37.543803071641
1942.5,37.49883204071
1942.75,37.453861009779
1943,37.408889978848
1943.25,37.363918947917
1943.5,37.318947916986
1943.75,37.273976886055
1944,37.229005855124
1944.25,37.184034824193
1944.5,37.139063793262
1944.75,37.094092762331
1945,37.0491217314
1945.25,37.004150700469
1945.5,36.959179669538
1945.75,36.914208638607
1946,36.9
1946.25,36.9
1946.5,36.9
1946.75,36.9
1947,36.9
1947.25,36.9
1947.5,36.9
1947.75,36.9
1948,36.9
1948.25,36.9
1948.5,36.9
1948.75,36.9
1949,36.9
1949.25,36.9
1949.5,36.9
1949.75,36.9
1950,36.9
1950.25,36.9
1950.5,36.9
1950.75,36.9
1951,36.889938996352
1951.25,36.8749486527084
1951.5,36.8599583090647
1951.75,36.8449679654211
1952,36.8299776217774
1952.25,36.8149872781337
1952.5,36.7999969344901
1952.75,36.7850065908464
1953,36.7700162472027
1953.25,36.7550259035591
1953.5,36.7400355599154
1953.75,36.7250452162717
1954,36.7100548726281
1954.25,36.6950645289844
1954.5,36.6800741853407
1954.75,36.6650838416971
1955,36.6500934980534
1955.25,36.6351031544097
1955.5,36.6201128107661
1955.75,36.6051224671224
1956,36.6098678765213
1956.25,36.6248582201649
1956.5,36.6398485638086
1956.75,36.6548389074523
1957,36.6698292510959
1957.25,36.6848195947396
1957.5,36.6998099383833
1957.75,36.7148002820269
1958,36.7297906256706
1958.25,36.7447809693142
1958.5,36.7597713129579
1958.75,36.7747616566016
1959,36.7897520002452
1959.25,36.8047423438889
1959.5,36.8197326875326
1959.75,36.8347230311762
1960,36.8497133748199
1960.25,36.8647037184636
1960.5,36.8796940621072
1960.75,36.8946844057509
1961,36.8935501670703
1961.25,36.8835566046412
1961.5,36.8735630422121
1961.75,36.863569479783
1962,36.8535759173539
1962.25,36.8435823549247
1962.5,36.8335887924956
1962.75,36.8235952300665
1963,36.8136016676374
1963.25,36.8036081052083
1963.5,36.7936145427792
1963.75,36.7836209803501
1964,36.773627417921
1964.25,36.7636338554919
1964.5,36.7536402930628
1964.75,36.7436467306337
1965,36.7336531682045
1965.25,36.7236596057754
1965.5,36.7136660433463
1965.75,36.7036724809172
1966,36.6652340516845
1966.25,36.6102694583244
1966.5,36.5553048649643
1966.75,36.5003402716042
1967,36.4453756782441
1967.25,36.390411084884
1967.5,36.3354464915239
1967.75,36.2804818981638
1968,36.2255173048037
1968.25,36.1705527114436
1968.5,36.1155881180835
1968.75,36.0606235247234
1969,36.0056589313632
1969.25,35.9506943380031
1969.5,35.895729744643
1969.75,35.8407651512829
1970,35.7858005579228
1970.25,35.7308359645627
1970.5,35.6758713712026
1970.75,35.6209067778425
1971,35.5938076699059
1971.25,35.5838141074768
1971.5,35.5738205450477
1971.75,35.5638269826186
1972,35.5538334201894
1972.25,35.5438398577603
1972.5,35.5338462953312
1972.75,35.5238527329021
1973,35.513859170473
1973.25,35.5038656080439
1973.5,35.4938720456148
1973.75,35.4838784831857
1974,35.4738849207566
1974.25,35.4638913583275
1974.5,35.4538977958983
1974.75,35.4439042334692
1975,35.4339106710401
1975.25,35.423917108611
1975.5,35.4139235461819
1975.75,35.4039299837528
1976,35.4
1976.25,35.4
1976.5,35.4
1976.75,35.4
1977,35.4
1977.25,35.4
1977.5,35.4
1977.75,35.4
1978,35.4
1978.25,35.4
1978.5,35.4
1978.75,35.4
1979,35.4
1979.25,35.4
1979.5,35.4
1979.75,35.4
1980,35.4
1980.25,35.4
1980.5,35.4
1980.75,35.4
1981,35.4
1981.25,35.4
1981.5,35.4
1981.75,35.4
1982,35.4
1982.25,35.4
1982.5,35.4
1982.75,35.4
1983,35.4
1983.25,35.4
1983.5,35.4
1983.75,35.4
1984,35.4
1984.25,35.4
1984.5,35.4
1984.75,35.4
1985,35.4
1985.25,35.4
1985.5,35.4
1985.75,35.4
1986,35.3767756966372
1986.25,35.3368014469207
1986.5,35.2968271972043
1986.75,35.2568529474878
1987,35.2168786977714
1987.25,35.176904448055
1987.5,35.1369301983385
1987.75,35.0969559486221
1988,35.0569816989056
1988.25,35.0170074491892
1988.5,34.9770331994728
1988.75,34.9370589497563
1989,34.8970847000398
1989.25,34.8571104503234
1989.5,34.817136200607
1989.75,34.7771619508906
1990,34.7371877011741
1990.25,34.6972134514577
1990.5,34.6572392017412
1990.75,34.6172649520248
1991,34.5659360534625
1991.25,34.5059746788879
1991.5,34.4460133043132
1991.75,34.3860519297385
1992,34.3260905551639
1992.25,34.2661291805892
1992.5,34.2061678060146
1992.75,34.1462064314399
1993,34.0862450568652
1993.25,34.0262836822906
1993.5,33.9663223077159
1993.75,33.9063609331413
1994,33.8463995585666
1994.25,33.7864381839919
1994.5,33.7264768094173
1994.75,33.6665154348426
1995,33.606554060268
1995.25,33.5465926856932
1995.5,33.4866313111186
1995.75,33.4266699365439
1996,33.3976880945812
1996.25,33.3935241102357
1996.5,33.3893601258903
1996.75,33.3851961415448
1997,33.3810321571994
1997.25,33.3768681728539
1997.5,33.3727041885084
1997.75,33.368540204163
1998,33.3643762198175
1998.25,33.360212235472
1998.5,33.3560482511266
1998.75,33.3518842667811
1999,33.3477202824357
1999.25,33.3435562980902
1999.5,33.3393923137447
1999.75,33.3352283293993
2000,33.3310643450538
2000.25,33.3269003607083
2000.5,33.3227363763629
2000.75,33.3185723920174
2001,33.3144084076719
2001.25,33.3102444233265
2001.5,33.306080438981
2001.75,33.3019164546356
2002,33.2757266791331
2002.25,33.2307556482021
2002.5,33.1857846172711
2002.75,33.1408135863401
2003,33.0958425554091
2003.25,33.0508715244781
2003.5,33.0059004935471
2003.75,32.9609294626161
2004,32.9159584316851
2004.25,32.8709874007541
2004.5,32.8260163698231
2004.75,32.7810453388921
2005,32.7360743079611
2005.25,32.6911032770301
2005.5,32.6461322460992
2005.75,32.6011612151682
2006,32.5561901842371
2006.25,32.5112191533062
2006.5,32.4662481223752
2006.75,32.4212770914442
2007,32.4164541246436
2007.25,32.4476840072346
2007.5,32.4789138898256
2007.75,32.5101437724165
2008,32.5413736550075
2008.25,32.5726035375985
2008.5,32.6038334201895
2008.75,32.6350633027804
2009,32.6662931853714
2009.25,32.6975230679623
2009.5,32.7287529505533
2009.75,32.7599828331443
2010,32.7912127157353
2010.25,32.8224425983262
2010.5,32.8536724809172
2010.75,32.8849023635082
2011,32.9283927531344
2011.25,32.9833573464946
2011.5,33.0383219398547
2011.75,33.0932865332148
2012,33.1482511265749
2012.25,33.203215719935
2012.5,33.2581803132951
2012.75,33.3131449066552
2013,33.3681095000153
2013.25,33.4230740933754
2013.5,33.4780386867355
2013.75,33.5330032800957
2014,33.5879678734558
2014.25,33.6429324668158
2014.5,33.6978970601759
2014.75,33.752861653536
2015,33.8078262468962
2015.25,33.8627908402563
2015.5,33.9177554336164
2015.75,33.9727200269765
2016,34.0050335673339
2016.25,34.015027129763
2016.5,34.0250206921922
2016.75,34.0350142546213
2017,34.0450078170504
2017.25,34.0550013794795
2017.5,34.0649949419086
2017.75,34.0749885043377
2018,34.0849820667668
2018.25,34.0949756291959
2018.5,34.104969191625
2018.75,34.1149627540541
2019,34.1249563164832
2019.25,34.1349498789124
2019.5,34.1449434413415
2019.75,34.1549370037706
2020,34.1649305661997
2020.25,34.1749241286288
2020.5,34.1849176910579
2020.75,34.194911253487
2021,34.1926427761258
2021.25,34.1776524324822
2021.5,34.1626620888385
2021.75,34.1476717451948
2022,34.1326814015512
2022.25,34.1176910579075
2022.5,34.1027007142638
2022.75,34.0877103706202
2023,34.0727200269765
2023.25,34.0577296833328
2023.5,34.0427393396892
2023.75,34.0277489960455
2024,34.0127586524018
2024.25,33.9977683087582
2024.5,33.9827779651145
2024.75,33.9677876214708
2025,33.9527972778272
2025.25,33.9378069341835
2025.5,33.9228165905398
2025.75,33.9078262468962
2026,33.9167162257441
2026.25,33.951693694246
2026.5,33.9866711627479
2026.75,34.0216486312498
2027,34.0566260997517
2027.25,34.0916035682536
2027.5,34.1265810367555
2027.75,34.1615585052573
2028,34.1965359737592
2028.25,34.2315134422611
2028.5,34.266490910763
2028.75,34.3014683792649
2029,34.3364458477668
2029.25,34.3714233162686
2029.5,34.4064007847706
2029.75,34.4413782532724
2030,34.4763557217743
2030.25,34.5113331902762
2030.5,34.5463106587781
2030.75,34.58128812728
2031,34.6
2031.25,34.6
2031.5,34.6
2031.75,34.6
2032,34.6
2032.25,34.6
2032.5,34.6
2032.75,34.6
2033,34.6
2033.25,34.6
2033.5,34.6
2033.75,34.6
2034,34.6
2034.25,34.6
2034.5,34.6
2034.75,34.6
2035,34.6
2035.25,34.6
2035.5,34.6
2035.75,34.6
2036,34.5977407191686
2036.25,34.5927439379541
2036.5,34.5877471567395
2036.75,34.582750375525
2037,34.5777535943104
2037.25,34.5727568130959
2037.5,34.5677600318813
2037.75,34.5627632506667
2038,34.5577664694522
2038.25,34.5527696882376
2038.5,34.5477729070231
2038.75,34.5427761258085
2039,34.537779344594
2039.25,34.5327825633794
2039.5,34.5277857821649
2039.75,34.5227890009503
2040,34.5177922197358
2040.25,34.5127954385212
2040.5,34.5077986573066
2040.75,34.5028018760921
2041,34.4780509487754
2041.25,34.4280831366298
2041.5,34.3781153244842
2041.75,34.3281475123387
2042,34.2781797001931
2042.25,34.2282118880476
2042.5,34.1782440759021
2042.75,34.1282762637565
2043,34.0783084516109
2043.25,34.0283406394654
2043.5,33.9783728273198
2043.75,33.9284050151743
2044,33.8784372030287
2044.25,33.8284693908832
2044.5,33.7785015787376
2044.75,33.7285337665921
2045,33.6785659544465
2045.25,33.628598142301
2045.5,33.5786303301554
2045.75,33.5286625180099
2046,33.4680420587965
2046.25,33.3930903405782
2046.5,33.3181386223598
2046.75,33.2431869041415
2047,33.1682351859232
2047.25,33.0932834677049
2047.5,33.0183317494866
2047.75,32.9433800312682
2048,32.8684283130499
2048.25,32.7934765948316
2048.5,32.7185248766132
2048.75,32.6435731583949
2049,32.5686214401766
2049.25,32.4936697219582
2049.5,32.4187180037399
2049.75,32.3437662855216
2050,32.2688145673033
2050.25,32.193862849085
2050.5,32.1189111308666
2050.75,32.0439594126483
2051,32.03099230557
2051.25,32.1059440237883
2051.5,32.1808957420066
2051.75,32.255847460225
2052,32.3307991784433
2052.25,32.4057508966617
2052.5,32.48070261488
2052.75,32.5556543330983
2053,32.6306060513166
2053.25,32.705557769535
2053.5,32.7805094877533
2053.75,32.8554612059716
2054,32.9304129241899
2054.25,33.0053646424082
2054.5,33.0803163606266
2054.75,33.1552680788449
2055,33.2302197970632
2055.25,33.3051715152815
2055.5,33.3801232334999
2055.75,33.4550749517182
2056,33.526023113945
2056.25,33.5909812697342
2056.5,33.6559394255234
2056.75,33.7208975813126
2057,33.7858557371019
2057.25,33.8508138928911
2057.5,33.9157720486803
2057.75,33.9807302044695
2058,34.0456883602587
2058.25,34.1106465160479
2058.5,34.1756046718372
2058.75,34.2405628276264
2059,34.3055209834156
2059.25,34.3704791392048
2059.5,34.435437294994
2059.75,34.5003954507832
2060,34.5653536065725
2060.25,34.6303117623617
2060.5,34.6952699181509
2060.75,34.7602280739401
2061,34.8096870114344
2061.25,34.8346709175071
2061.5,34.8596548235799
2061.75,34.8846387296527
2062,34.9096226357254
2062.25,34.9346065417982
2062.5,34.959590447871
2062.75,34.9845743539438
2063,35.0095582600165
2063.25,35.0345421660893
2063.5,35.0595260721621
2063.75,35.0845099782349
2064,35.1094938843077
2064.25,35.1344777903804
2064.5,35.1594616964532
2064.75,35.184445602526
2065,35.2094295085988
2065.25,35.2344134146715
2065.5,35.2593973207443
2065.75,35.2843812268171
2066,35.3112381594678
2066.25,35.3412188467552
2066.5,35.3711995340425
2066.75,35.4011802213298
2067,35.4311609086171
2067.25,35.4611415959045
2067.5,35.4911222831918
2067.75,35.5211029704791
2068,35.5510836577665
2068.25,35.5810643450538
2068.5,35.6110450323411
2068.75,35.6410257196284
2069,35.6710064069158
2069.25,35.7009870942031
2069.5,35.7309677814904
2069.75,35.7609484687778
2070,35.7909291560651
2070.25,35.8209098433524
2070.5,35.8508905306398
2070.75,35.8808712179271
2071,35.8927653965237
2071.25,35.8727782716655
2071.5,35.8527911468073
2071.75,35.8328040219491
2072,35.8128168970908
2072.25,35.7928297722326
2072.5,35.7728426473744
2072.75,35.7528555225162
2073,35.7328683976579
2073.25,35.7128812727997
2073.5,35.6928941479415
2073.75,35.6729070230833
2074,35.6529198982251
2074.25,35.6329327733668
2074.5,35.6129456485086
2074.75,35.5929585236504
2075,35.5729713987922
2075.25,35.552984273934
2075.5,35.5329971490757
2075.75,35.5130100242175
2076,35.5
2076.25,35.5
2076.5,35.5
2076.75,35.5
2077,35.5
2077.25,35.5
2077.5,35.5
2077.75,35.5
2078,35.5
2078.25,35.5
2078.5,35.5
2078.75,35.5
2079,35.5
2079.25,35.5
2079.5,35.5
2079.75,35.5
2080,35.5
2080.25,35.5
2080.5,35.5
2080.75,35.5
2081,35.4966402010974
2081.25,35.4866466386683
2081.5,35.4766530762392
2081.75,35.4666595138101
2082,35.456665951381
2082.25,35.4466723889519
2082.5,35.4366788265228
2082.75,35.4266852640937
2083,35.4166917016646
2083.25,35.4066981392355
2083.5,35.3967045768064
2083.75,35.3867110143772
2084,35.3767174519481
2084.25,35.366723889519
2084.5,35.3567303270899
2084.75,35.3467367646608
2085,35.3367432022317
2085.25,35.3267496398026
2085.5,35.3167560773735
2085.75,35.3067625149444
2086,35.2806137150915
2086.25,35.2206523405168
2086.5,35.1606909659422
2086.75,35.1007295913675
2087,35.0407682167929
2087.25,34.9808068422182
2087.5,34.9208454676435
2087.75,34.8608840930689
2088,34.8009227184942
2088.25,34.7409613439196
2088.5,34.6809999693449
2088.75,34.6210385947702
2089,34.5610772201956
2089.25,34.5011158456209
2089.5,34.4411544710463
2089.75,34.3811930964716
2090,34.3212317218969
2090.25,34.2612703473223
2090.5,34.2013089727476
2090.75,34.141347598173
2091,34.1
2091.25,34.1
2091.5,34.1
2091.75,34.1
2092,34.1
2092.25,34.1
2092.5,34.1
2092.75,34.1
2093,34.1
2093.25,34.1
2093.5,34.1
2093.75,34.1
2094,34.1
2094.25,34.1
2094.5,34.1
2094.75,34.1
2095,34.1
2095.25,34.1
2095.5,34.1
2095.75,34.1
2096,34.0672910088594
2096.25,33.9573618221392
2096.5,33.8474326354189
2096.75,33.7375034486987
2097,33.6275742619785
2097.25,33.5176450752583
2097.5,33.4077158885381
2097.75,33.2977867018178
2098,33.1878575150976
2098.25,33.0779283283774
2098.5,32.9679991416572
2098.75,32.8580699549371
2099,32.7481407682169
2099.25,32.6382115814966
2099.5,32.5282823947764
2099.75,32.4183532080562
2100,32.308424021336
2100.25,32.1984948346158
2100.5,32.0885656478955
2100.75,31.9786364611753
2101,31.9184911560038
2101.25,31.983449311793
2101.5,32.0484074675822
2101.75,32.1133656233715
2102,32.1783237791607
2102.25,32.2432819349499
2102.5,32.3082400907391
2102.75,32.3731982465283
2103,32.4381564023175
2103.25,32.5031145581067
2103.5,32.568072713896
2103.75,32.6330308696852
2104,32.6979890254744
2104.25,32.7629471812636
2104.5,32.8279053370528
2104.75,32.892863492842
2105,32.9578216486312
2105.25,33.0227798044204
2105.5,33.0877379602096
2105.75,33.1526961159989
2106,33.1932098954661
2106.25,33.1682259893933
2106.5,33.1432420833206
2106.75,33.1182581772478
2107,33.093274271175
2107.25,33.0682903651022
2107.5,33.0433064590295
2107.75,33.0183225529567
2108,32.9933386468839
2108.25,32.9683547408111
2108.5,32.9433708347384
2108.75,32.9183869286656
2109,32.8934030225928
2109.25,32.86841911652
2109.5,32.8434352104473
2109.75,32.8184513043745
2110,32.7934673983017
2110.25,32.7684834922289
2110.5,32.7434995861562
2110.75,32.7185156800834
2111,32.7711504858834
2111.25,33.0459734526839
2111.5,33.3207964194843
2111.75,33.5956193862848
2112,33.8704423530853
2112.25,34.145265319886
2112.5,34.4200882866865
2112.75,34.694911253487
2113,34.9697342202875
2113.25,35.2445571870879
2113.5,35.5193801538887
2113.75,35.7942031206891
2114,36.0690260874896
2114.25,36.3438490542901
2114.5,36.6186720210906
2114.75,36.8934949878911
2115,37.1683179546918
2115.25,37.4431409214923
2115.5,37.7179638882928
2115.75,37.9927868550932
2116,38.2196683118236
2116.25,38.2996168112566
2116.5,38.3795653106894
2116.75,38.4595138101223
2117,38.5394623095552
2117.25,38.619410808988
2117.5,38.699359308421
2117.75,38.7793078078538
2118,38.8592563072867
2118.25,38.9392048067196
2118.5,39.0191533061524
2118.75,39.0991018055854
2119,39.1790503050182
2119.25,39.2589988044511
2119.5,39.338947303884
2119.75,39.4188958033168
2120,39.4988443027497
2120.25,39.5787928021826
2120.5,39.6587413016155
2120.75,39.7386898010484
2121,39.7534042487969
2121.25,39.5535330002147
2121.5,39.3536617516324
2121.75,39.1537905030502
2122,38.953919254468
2122.25,38.7540480058858
2122.5,38.5541767573037
2122.75,38.3543055087213
2123,38.1544342601392
2123.25,37.954563011557
2123.5,37.7546917629748
2123.75,37.5548205143927
2124,37.3549492658103
2124.25,37.1550780172281
2124.5,36.955206768646
2124.75,36.7553355200638
2125,36.5554642714816
2125.25,36.3555930228995
2125.5,36.1557217743171
2125.75,35.955850525735
2126,35.8
2126.25,35.8
2126.5,35.8
2126.75,35.8
2127,35.8
2127.25,35.8
2127.5,35.8
2127.75,35.8
2128,35.8
2128.25,35.8
2128.5,35.8
2128.75,35.8
2129,35.8
2129.25,35.8
2129.5,35.8
2129.75,35.8
2130,35.8
2130.25,35.8
2130.5,35.8
2130.75,35.8
2131,35.7906747187395
2131.25,35.7457036878085
2131.5,35.7007326568775
2131.75,35.6557616259465
2132,35.6107905950155
2132.25,35.5658195640845
2132.5,35.5208485331535
2132.75,35.4758775022225
2133,35.4309064712915
2133.25,35.3859354403605
2133.5,35.3409644094295
2133.75,35.2959933784985
2134,35.2510223475675
2134.25,35.2060513166365
2134.5,35.1610802857055
2134.75,35.1161092547745
2135,35.0711382238435
2135.25,35.0261671929126
2135.5,34.9811961619816
2135.75,34.9362251310506
2136,34.887367033506
2136.25,34.8224088777168
2136.5,34.7574507219276
2136.75,34.6924925661384
2137,34.6275344103492
2137.25,34.5625762545599
2137.5,34.4976180987707
2137.75,34.4326599429815
2138,34.3677017871923
2138.25,34.3027436314031
2138.5,34.2377854756139
2138.75,34.1728273198246
2139,34.1078691640354
2139.25,34.0429110082462
2139.5,33.977952852457
2139.75,33.9129946966678
2140,33.8480365408786
2140.25,33.7830783850894
2140.5,33.7181202293002
2140.75,33.653162073511
2141,33.6027221728334
2141.25,33.6177125164771
2141.5,33.6327028601208
2141.75,33.6476932037644
2142,33.6626835474081
2142.25,33.6776738910518
2142.5,33.6926642346954
2142.75,33.7076545783391
2143,33.7226449219828
2143.25,33.7376352656264
2143.5,33.7526256092701
2143.75,33.7676159529138
2144,33.7826062965574
2144.25,33.7975966402011
2144.5,33.8125869838448
2144.75,33.8275773274884
2145,33.8425676711321
2145.25,33.8575580147758
2145.5,33.8725483584194
2145.75,33.8875387020631
2146,33.8940988933509
2146.25,33.859121424849
2146.5,33.8241439563471
2146.75,33.7891664878453
2147,33.7541890193434
2147.25,33.7192115508415
2147.5,33.6842340823396
2147.75,33.6492566138377
2148,33.6142791453358
2148.25,33.579301676834
2148.5,33.5443242083321
2148.75,33.5093467398302
2149,33.4743692713283
2149.25,33.4393918028264
2149.5,33.4044143343245
2149.75,33.3694368658226
2150,33.3344593973208
2150.25,33.2994819288189
2150.5,33.264504460317
2150.75,33.2295269918151
2151,33.2155727905337
2151.25,33.3155084148248
2151.5,33.4154440391158
2151.75,33.515379663407
2152,33.6153152876981
2152.25,33.7152509119892
2152.5,33.8151865362803
2152.75,33.9151221605714
2153,34.0150577848625
2153.25,34.1149934091536
2153.5,34.2149290334447
2153.75,34.3148646577358
2154,34.4148002820269
2154.25,34.514735906318
2154.5,34.6146715306091
2154.75,34.7146071549002
2155,34.8145427791913
2155.25,34.9144784034824
2155.5,35.0144140277735
2155.75,35.1143496520646
2156,35.2049998467245
2156.25,35.2399773152264
2156.5,35.2749547837283
2156.75,35.3099322522301
2157,35.344909720732
2157.25,35.3798871892339
2157.5,35.4148646577358
2157.75,35.4498421262377
2158,35.4848195947396
2158.25,35.5197970632415
2158.5,35.5547745317434
2158.75,35.5897520002452
2159,35.6247294687471
2159.25,35.659706937249
2159.5,35.6946844057509
2159.75,35.7296618742528
2160,35.7646393427547
2160.25,35.7996168112565
2160.5,35.8345942797584
2160.75,35.8695717482603
2161,35.9006498881089
2161.25,35.9056466693234
2161.5,35.910643450538
2161.75,35.9156402317525
2162,35.9206370129671
2162.25,35.9256337941817
2162.5,35.9306305753962
2162.75,35.9356273566108
2163,35.9406241378253
2163.25,35.9456209190399
2163.5,35.9506177002544
2163.75,35.955614481469
2164,35.9606112626835
2164.25,35.9656080438981
2164.5,35.9706048251127
2164.75,35.9756016063272
2165,35.9805983875418
2165.25,35.9855951687563
2165.5,35.9905919499709
2165.75,35.9955887311854
2166,35.9941448760002
2166.25,35.9441770638546
2166.5,35.894209251709
2166.75,35.8442414395635
2167,35.7942736274179
2167.25,35.7443058152724
2167.5,35.6943380031268
2167.75,35.6443701909813
2168,35.5944023788357
2168.25,35.5444345666902
2168.5,35.4944667545446
2168.75,35.4444989423991
2169,35.3945311302535
2169.25,35.344563318108
2169.5,35.2945955059624
2169.75,35.2446276938169
2170,35.1946598816713
2170.25,35.1446920695258
2170.5,35.0947242573802
2170.75,35.0447564452347
2171,34.9911406762515
2171.25,34.9061953956041
2171.5,34.8212501149566
2171.75,34.7363048343092
2172,34.6513595536618
2172.25,34.5664142730144
2172.5,34.4814689923669
2172.75,34.3965237117194
2173,34.311578431072
2173.25,34.2266331504246
2173.5,34.1416878697772
2173.75,34.0567425891297
2174,33.9717973084823
2174.25,33.8868520278348
2174.5,33.8019067471874
2174.75,33.71696146654
2175,33.6320161858926
2175.25,33.5470709052451
2175.5,33.4621256245976
2175.75,33.3771803439502
2176,33.3036540878575
2176.25,33.3436283375739
2176.5,33.3836025872904
2176.75,33.4235768370068
2177,33.4635510867233
2177.25,33.5035253364397
2177.5,33.5434995861561
2177.75,33.5834738358726
2178,33.623448085589
2178.25,33.6634223353055
2178.5,33.7033965850219
2178.75,33.7433708347383
2179,33.7833450844548
2179.25,33.8233193341712
2179.5,33.8632935838877
2179.75,33.9032678336041
2180,33.9432420833205
2180.25,33.983216333037
2180.5,34.0231905827535
2180.75,34.0631648324699
2181,34.0960761472671
2181.25,34.0461083351216
2181.5,33.996140522976
2181.75,33.9461727108305
2182,33.8962048986849
2182.25,33.8462370865394
2182.5,33.7962692743938
2182.75,33.7463014622483
2183,33.6963336501027
2183.25,33.6463658379571
2183.5,33.5963980258116
2183.75,33.5464302136661
2184,33.4964624015205
2184.25,33.446494589375
2184.5,33.3965267772294
2184.75,33.3465589650838
2185,33.2965911529383
2185.25,33.2466233407928
2185.5,33.1966555286472
2185.75,33.1466877165016
2186,33.1
2186.25,33.1
2186.5,33.1
2186.75,33.1
2187,33.1
2187.25,33.1
2187.5,33.1
2187.75,33.1
2188,33.1
2188.25,33.1
2188.5,33.1
2188.75,33.1
2189,33.1
2189.25,33.1
2189.5,33.1
2189.75,33.1
2190,33.1
2190.25,33.1
2190.5,33.1
2190.75,33.1
2191,33.1
2191.25,33.1
2191.5,33.1
2191.75,33.1
2192,33.1
2192.25,33.1
2192.5,33.1
2192.75,33.1
2193,33.1
2193.25,33.1
2193.5,33.1
2193.75,33.1
2194,33.1
2194.25,33.1
2194.5,33.1
2194.75,33.1
2195,33.1
2195.25,33.1
2195.5,33.1
2195.75,33.1
2196,33.1
2196.25,33.1
2196.5,33.1
2196.75,33.1
2197,33.1
2197.25,33.1
2197.5,33.1
2197.75,33.1
2198,33.1
2198.25,33.1
2198.5,33.1
2198.75,33.1
2199,33.1
2199.25,33.1
2199.5,33.1
2199.75,33.1
2200,33.1
2200.25,33.1
2200.5,33.1
2200.75,33.1
2201,33.1
2201.25,33.1
2201.5,33.1
2201.75,33.1
2202,33.1
2202.25,33.1
2202.5,33.1
2202.75,33.1
2203,33.1
2203.25,33.1
2203.5,33.1
2203.75,33.1
2204,33.1
2204.25,33.1
2204.5,33.1
2204.75,33.1
2205,33.1
2205.25,33.1
2205.5,33.1
2205.75,33.1
2206,33.1
2206.25,33.1
2206.5,33.1
2206.75,33.1
2207,33.1
2207.25,33.1
2207.5,33.1
2207.75,33.1
2208,33.1
2208.25,33.1
2208.5,33.1
2208.75,33.1
2209,33.1
2209.25,33.1
2209.5,33.1
2209.75,33.1
2210,33.1
2210.25,33.1
2210.5,33.1
2210.75,33.1
2211,33.1
2211.25,33.1
2211.5,33.1
2211.75,33.1
2212,33.1
2212.25,33.0750498145366
2212.5,33.0500659084639
2212.75,33.0250820023911
2213,33.0000980963183
2213.25,32.9751141902456
2213.5,32.9501302841728
2213.75,32.9251463781
2214,32.9001624720272
2214.25,32.8751785659545
2214.5,32.8501946598817
2214.75,32.8252107538089
2215,32.8002268477361
2215.25,32.7752429416634
2215.5,32.7502590355906
2215.75,32.7252751295178
2216,32.700291223445
2216.25,32.6753073173722
2216.5,32.6503234112995
2216.75,32.6253395052267
2217,32.6003555991539
2217.25,32.6738849207565
2217.5,32.7488366389749
2217.75,32.8237883571932
2218,32.8987400754115
2218.25,32.9736917936298
2218.5,33.0486435118481
2218.75,33.1235952300665
2219,33.1985469482848
2219.25,33.2734986665032
2219.5,33.3484503847215
2219.75,33.4234021029398
2220,33.4983538211582
2220.25,33.5733055393765
2220.5,33.6482572575948
2220.75,33.7232089758131
2221,33.7981606940314
2221.25,33.8731124122498
2221.5,33.9480641304681
2221.75,34.0230158486864
2222,34.0979675669047
2222.25,34.0708322859508
2222.5,34.0408515986635
2222.75,34.0108709113761
2223,33.9808902240888
2223.25,33.9509095368015
2223.5,33.9209288495141
2223.75,33.8909481622268
2224,33.8609674749395
2224.25,33.8309867876521
2224.5,33.8010061003648
2224.75,33.7710254130775
2225,33.7410447257902
2225.25,33.7110640385028
2225.5,33.6810833512155
2225.75,33.6511026639282
2226,33.6211219766408
2226.25,33.5911412893535
2226.5,33.5611606020661
2226.75,33.5311799147788
2227,33.5011992274915
2227.25,33.5479690996597
2227.5,33.5979369118053
2227.75,33.6479047239508
2228,33.6978725360964
2228.25,33.7478403482419
2228.5,33.7978081603875
2228.75,33.847775972533
2229,33.8977437846785
2229.25,33.9477115968241
2229.5,33.9976794089697
2229.75,34.0476472211152
2230,34.0976150332608
2230.25,34.1475828454063
2230.5,34.1975506575519
2230.75,34.2475184696974
2231,34.297486281843
2231.25,34.333217865792
2231.5,34.3681953342938
2231.75,34.4031728027958
2232,34.4381502712976
2232.25,34.4731277397995
2232.5,34.5081052083014
2232.75,34.5430826768033
2233,34.5780601453051
2233.25,34.6130376138071
2233.5,34.6480150823089
2233.75,34.6829925508108
2234,34.7179700193127
2234.25,34.7529474878146
2234.5,34.7879249563165
2234.75,34.8229024248184
2235,34.8578798933202
2235.25,34.8928573618221
2235.5,34.927834830324
2235.75,34.9628122988259
2236,34.9977897673278
2236.25,35.0234051684498
2236.5,35.0483890745225
2236.75,35.0733729805953
2237,35.0983568866681
2237.25,35.1233407927409
2237.5,35.1483246988136
2237.75,35.1733086048864
2238,35.1982925109592
2238.25,35.223276417032
2238.5,35.2482603231048
2238.75,35.2732442291775
2239,35.2982281352503
2239.25,35.3232120413231
2239.5,35.3481959473958
2239.75,35.3731798534686
2240,35.3981637595414
2240.25,35.4231476656142
2240.5,35.4481315716869
2240.75,35.4731154777597
2241,35.4980993838325
2241.25,35.5184666319242
2241.5,35.5384537567824
2241.75,35.5584408816407
2242,35.5784280064989
2242.25,35.5984151313571
2242.5,35.6184022562153
2242.75,35.6383893810735
2243,35.6583765059318
2243.25,35.67836363079
2243.5,35.6983507556482
2243.75,35.7183378805064
2244,35.7383250053646
2244.25,35.7583121302229
2244.5,35.7782992550811
2244.75,35.7982863799393
2245,35.8182735047975
2245.25,35.8382606296557
2245.5,35.858247754514
2245.75,35.8782348793722
2246,35.8982220042304
2246.25,35.8817908709114
2246.5,35.8618037460532
2246.75,35.8418166211949
2247,35.8218294963367
2247.25,35.8018423714785
2247.5,35.7818552466203
2247.75,35.7618681217621
2248,35.7418809969038
2248.25,35.7218938720456
2248.5,35.7019067471874
2248.75,35.6819196223292
2249,35.661932497471
2249.25,35.6419453726127
2249.5,35.6219582477545
2249.75,35.6019711228963
2250,35.5819839980381
2250.25,35.5619968731799
2250.5,35.5420097483216
2250.75,35.5220226234634
2251,35.5020354986052
2251.25,35.517951626253
2251.5,35.5379387511112
2251.75,35.5579258759695
2252,35.5779130008277
2252.25,35.5979001256859
2252.5,35.6178872505441
2252.75,35.6378743754024
2253,35.6578615002606
2253.25,35.6778486251188
2253.5,35.697835749977
2253.75,35.7178228748352
2254,35.7378099996934
2254.25,35.7577971245517
2254.5,35.7777842494099
2254.75,35.7977713742681
2255,35.8177584991263
2255.25,35.8377456239845
2255.5,35.8577327488428
2255.75,35.877719873701
2256,35.8977069985592
2256.25,35.9147451028479
2256.5,35.9314010402297
2256.75,35.9480569776116
2257,35.9647129149934
2257.25,35.9813688523753
2257.5,35.9980247897571
2257.75,36.014680727139
2258,36.0313366645208
2258.25,36.0479926019027
2258.5,36.0646485392845
2258.75,36.0813044766664
2259,36.0979604140482
2259.25,36.11461635143
2259.5,36.1312722888119
2259.75,36.1479282261938
2260,36.1645841635756
2260.25,36.1812401009575
2260.5,36.1978960383393
2260.75,36.2145519757212
2261,36.231207913103
2261.25,36.2478638504849
2261.5,36.2645197878667
2261.75,36.2811757252486
2262,36.2978316626304
2262.25,36.2739223199779
2262.5,36.2439416326906
2262.75,36.2139609454033
2263,36.183980258116
2263.25,36.1539995708286
2263.5,36.1240188835413
2263.75,36.0940381962539
2264,36.0640575089666
2264.25,36.0340768216793
2264.5,36.004096134392
2264.75,35.9741154471046
2265,35.9441347598173
2265.25,35.91415407253
2265.5,35.8841733852426
2265.75,35.8541926979553
2266,35.824212010668
2266.25,35.7942313233807
2266.5,35.7642506360933
2266.75,35.734269948806
2267,35.7042892615187
2267.25,35.5608381104196
2267.5,35.3984427209466
2267.75,35.2360473314736
2268,35.0736519420006
2268.25,34.9112565525276
2268.5,34.7488611630544
2268.75,34.5864657735814
2269,34.4240703841084
2269.25,34.2616749946354
2269.5,34.0992796051624
2269.75,33.9368842156894
2270,33.7744888262162
2270.25,33.6120934367432
2270.5,33.4496980472702
2270.75,33.2873026577972
2271,33.1249072683242
2271.25,33.1211520186383
2271.5,33.1461359247111
2271.75,33.1711198307838
2272,33.1961037368566
2272.25,33.2210876429294
2272.5,33.2460715490022
2272.75,33.271055455075
2273,33.2960393611477
2273.25,33.3210232672205
2273.5,33.3460071732933
2273.75,33.3709910793661
2274,33.3959749854388
2274.25,33.4209588915116
2274.5,33.4459427975844
2274.75,33.4709267036571
2275,33.4959106097299
2275.25,33.5208945158027
2275.5,33.5458784218755
2275.75,33.5708623279482
2276,33.595846234021
2276.25,33.5875019159437
2276.5,33.5725115723001
2276.75,33.5575212286564
2277,33.5425308850127
2277.25,33.5275405413691
2277.5,33.5125501977254
2277.75,33.4975598540817
2278,33.4825695104381
2278.25,33.4675791667944
2278.5,33.4525888231507
2278.75,33.4375984795071
2279,33.4226081358634
2279.25,33.4076177922197
2279.5,33.3926274485761
2279.75,33.3776371049324
2280,33.3626467612887
2280.25,33.3476564176451
2280.5,33.3326660740014
2280.75,33.3176757303577
2281,33.3026853867141
2281.25,33.3246099138592
2281.5,33.3545906011465
2281.75,33.3845712884338
2282,33.4145519757212
2282.25,33.4445326630085
2282.5,33.4745133502958
2282.75,33.5044940375831
2283,33.5344747248705
2283.25,33.5644554121578
2283.5,33.5944360994451
2283.75,33.6244167867325
2284,33.6543974740198
2284.25,33.6843781613071
2284.5,33.7143588485945
2284.75,33.7443395358818
2285,33.7743202231691
2285.25,33.8043009104564
2285.5,33.8342815977438
2285.75,33.8642622850311
2286,33.8942429723184
2286.25,33.8677017871923
2286.5,33.8277275374759
2286.75,33.7877532877594
2287,33.747779038043
2287.25,33.7078047883265
2287.5,33.6678305386101
2287.75,33.6278562888937
2288,33.5878820391772
2288.25,33.5479077894608
2288.5,33.5079335397443
2288.75,33.4679592900279
2289,33.4279850403115
2289.25,33.388010790595
2289.5,33.3480365408786
2289.75,33.3080622911621
2290,33.2680880414457
2290.25,33.2281137917293
2290.5,33.1881395420128
2290.75,33.1481652922964
2291,33.1081910425799
2291.25,33.0165690812667
2291.5,32.911636675761
2291.75,32.8067042702554
2292,32.7017718647498
2292.25,32.596839459244
2292.5,32.4919070537384
2292.75,32.3869746482328
2293,32.2820422427271
2293.25,32.1771098372215
2293.5,32.0721774317157
2293.75,31.9672450262101
2294,31.8623126207045
2294.25,31.7573802151988
2294.5,31.6524478096932
2294.75,31.5475154041876
2295,31.4425829986818
2295.25,31.3376505931762
2295.5,31.2327181876706
2295.75,31.1277857821649
2296,31.0228533766593
2296.25,31.0260568345544
2296.5,31.0593687093181
2296.75,31.0926805840818
2297,31.1259924588455
2297.25,31.1593043336092
2297.5,31.1926162083729
2297.75,31.2259280831366
2298,31.2592399579003
2298.25,31.292551832664
2298.5,31.3258637074277
2298.75,31.3591755821914
2299,31.3924874569551
2299.25,31.4257993317188
2299.5,31.4591112064825
2299.75,31.4924230812462
2300,31.5257349560099
2300.25,31.5590468307736
2300.5,31.5923587055373
2300.75,31.625670580301
2301,31.6589824550647
2301.25,31.6922943298284
2301.5,31.7256062045921
2301.75,31.7589180793558
2302,31.7922299541195
2302.25,31.792337451335
2302.5,31.7823438889059
2302.75,31.7723503264768
2303,31.7623567640477
2303.25,31.7523632016186
2303.5,31.7423696391895
2303.75,31.7323760767604
2304,31.7223825143313
2304.25,31.7123889519021
2304.5,31.702395389473
2304.75,31.6924018270439
2305,31.6824082646148
2305.25,31.6724147021857
2305.5,31.6624211397566
2305.75,31.6524275773275
2306,31.6424340148984
2306.25,31.6324404524693
2306.5,31.6224468900402
2306.75,31.6124533276111
2307,31.6024597651819
2307.25,31.509594433034
2307.5,31.3896716838847
2307.75,31.2697489347354
2308,31.149826185586
2308.25,31.0299034364367
2308.5,30.9099806872874
2308.75,30.7900579381381
2309,30.6701351889888
2309.25,30.5502124398393
2309.5,30.43028969069
2309.75,30.3103669415407
2310,30.1904441923914
2310.25,30.0705214432421
2310.5,29.9505986940928
2310.75,29.8306759449434
2311,29.7107531957941
2311.25,29.5908304466448
2311.5,29.4709076974955
2311.75,29.3509849483462
2312,29.2310621991968
2312.25,29.1814873854266
2312.5,29.1565034793538
2312.75,29.131519573281
2313,29.1065356672083
2313.25,29.0815517611355
2313.5,29.0565678550627
2313.75,29.0315839489899
2314,29.0066000429171
2314.25,28.9816161368444
2314.5,28.9566322307716
2314.75,28.9316483246988
2315,28.906664418626
2315.25,28.8816805125533
2315.5,28.8566966064805
2315.75,28.8317127004077
2316,28.8067287943349
2316.25,28.7817448882622
2316.5,28.7567609821894
2316.75,28.7317770761166
2317,28.7067931700439
2317.25,28.7136430520217
2317.5,28.7323809815763
2317.75,28.7511189111309
2318,28.7698568406854
2318.25,28.78859477024
2318.5,28.8073326997946
2318.75,28.8260706293492
2319,28.8448085589038
2319.25,28.8635464884583
2319.5,28.8822844180129
2319.75,28.9010223475675
2320,28.9197602771221
2320.25,28.9384982066767
2320.5,28.9572361362313
2320.75,28.9759740657859
2321,28.9947119953404
2321.25,29.1578124521014
2321.5,29.3776708255416
2321.75,29.5975291989822
2322,29.8173875724228
