1521,1134.77252901086
1521.25,1134.71527343405
1521.5,1134.74976536388
1521.75,1135.20240149121
1522,1136.0016748761
1522.25,1136.42152258584
1522.5,1135.67491297954
1522.75,1132.97481441635
1523,1127.73616839951
1523.25,1121.01306999578
1523.5,1114.65577998925
1523.75,1110.51983781255
1524,1110.45101327176
1524.25,1115.02878162371
1524.5,1122.32666253414
1524.75,1130.12364199877
1525,1136.19870601332
1525.25,1138.63653453701
1525.5,1137.75807197058
1525.75,1134.877631367
1526,1131.3140232239
1526.25,1128.38138699022
1526.5,1126.85681402829
1526.75,1126.48917562454
1527,1126.91124776996
1527.25,1127.75580645554
1527.5,1128.67240088307
1527.75,1129.461934953
1528,1130.00557857138
1528.25,1130.18523792145
1528.5,1129.88341725459
1528.75,1129.0744243173
1529,1127.92241120154
1529.25,1126.6150450192
1529.5,1125.33999288218
1529.75,1124.27491977412
1530,1123.49681619139
1530.25,1123.02443526544
1530.5,1122.87582099353
1530.75,1123.06899824763
1531,1123.61829007381
1531.25,1124.52992710737
1531.5,1125.80907042827
1531.75,1127.46088111647
1532,1129.47168276322
1532.25,1131.64339254723
1532.5,1133.67355123607
1532.75,1135.25851206322
1533,1136.09555961887
1533.25,1136.07129711819
1533.5,1135.49079867561
1533.75,1134.71515706915
1534,1134.10546507683
1534.25,1133.99710681395
1534.5,1134.41852833703
1534.75,1135.19624821237
1535,1136.15323977286
1535.25,1137.1125195879
1535.5,1137.92957272299
1535.75,1138.55001092608
1536,1138.93495709161
1536.25,1139.04553411402
1536.5,1138.85059478376
1536.75,1138.44672496252
1537,1138.03540384013
1537.25,1137.82121691007
1537.5,1138.00874900795
1537.75,1138.70732653439
1538,1139.66678991179
1538.25,1140.55219363678
1538.5,1141.02859220602
1538.75,1140.7741539226
1539,1139.82032947853
1539.25,1138.58318762975
1539.5,1137.49819226583
1539.75,1137.00080727629
1540,1137.40863173251
1540.25,1138.40843968922
1540.5,1139.47684004831
1540.75,1140.09029787262
1541,1139.73350309588
1541.25,1138.3142619251
1541.5,1136.35865920076
1541.75,1134.44180597998
1542,1133.13881331984
1542.25,1132.933659692
1542.5,1133.62696611297
1542.75,1134.70918124117
1543,1135.66920534409
1543.25,1135.99864082029
1543.5,1135.47615683107
1543.75,1134.4176860419
1544,1133.198152293
1544.25,1132.19247942464
1544.5,1131.73455822205
1544.75,1131.76238123259
1545,1131.99241080301
1545.25,1132.1386792189
1545.5,1131.91562158308
1545.75,1131.13301702587
1546,1129.81847539317
1546.25,1128.02988831811
1546.5,1125.8251474338
1546.75,1123.28090072953
1547,1120.69430358861
1547.25,1118.50595340296
1547.5,1117.15889180474
1547.75,1117.09507475119
1548,1118.37014387667
1548.25,1120.08444246136
1548.5,1121.19322290686
1548.75,1120.65173761481
1549,1117.55923912854
1549.25,1112.52461300305
1549.5,1107.05793879654
1549.75,1102.68136105026
1550,1100.91232582061
1550.25,1102.44527000983
1550.5,1106.21687459886
1550.75,1110.93769169401
1551,1115.31827340155
1551.25,1118.23369136675
1551.5,1119.73042912219
1551.75,1120.36308293033
1552,1120.68830480214
1552.25,1121.25417836628
1552.5,1122.14402032331
1552.75,1122.74777961347
1553,1122.39881067806
1553.25,1120.43046795839
1553.5,1116.36747877604
1553.75,1110.89183517281
1554,1105.11831877733
1554.25,1100.1624634329
1554.5,1097.12589689395
1554.75,1096.51376209822
1555,1098.02237081784
1555.25,1101.29042092694
1555.5,1105.95661029964
1555.75,1111.64674846786
1556,1117.93379712142
1556.25,1124.37717428672
1556.5,1130.53629798266
1556.75,1135.98678226965
1557,1140.58046349731
1557.25,1144.40059545705
1557.5,1147.53757893246
1557.75,1150.08181062482
1558,1152.02461895604
1558.25,1153.00133081963
1558.5,1152.56733604424
1558.75,1150.27802445855
1559,1145.71084281194
1559.25,1139.14382832237
1559.5,1131.68351745541
1559.75,1124.48431107352
1560,1118.70061003917
1560.25,1115.31492536191
1560.5,1114.20399532495
1560.75,1114.8067463783
1561,1116.56101496655
1561.25,1118.91226909944
1561.5,1121.65868907216
1561.75,1125.09198300047
1562,1129.54065372988
1562.25,1135.33320410594
1562.5,1142.63207601078
1562.75,1150.70112572325
1563,1158.50166566457
1563.25,1164.99477935756
1563.5,1169.15302928828
1563.75,1170.53790964741
1564,1169.57057477375
1564.25,1166.74024359967
1564.5,1162.5361350575
1564.75,1157.44697624833
1565,1151.95611997558
1565.25,1146.5436080721
1565.5,1141.68943380416
1565.75,1137.87358199241
1566,1135.42673337928
1566.25,1134.14964155882
1566.5,1133.72554284543
1566.75,1133.83767355352
1567,1134.18267686624
1567.25,1134.78374934615
1567.5,1136.00108123876
1567.75,1138.21035836729
1568,1141.78726655496
1568.25,1146.92861052973
1568.5,1153.00458141362
1568.75,1159.14676367248
1569,1164.4867187787
1569.25,1168.16581685361
1569.5,1169.7454754504
1569.75,1169.35629968288
1570,1167.169397247
1570.25,1163.35587583871
1570.5,1158.10681401093
1570.75,1151.80833015597
1571,1144.95673240414
1571.25,1138.04957519212
1571.5,1131.58438862978
1571.75,1125.96462543899
1572,1121.28659842475
1572.25,1117.58404278778
1572.5,1114.89069372881
1572.75,1113.24481449243
1573,1112.77156608624
1573.25,1113.67438499479
1573.5,1116.15950538407
1573.75,1120.43303824541
1574,1126.4373893648
1574.25,1133.29385958054
1574.5,1139.96439188094
1574.75,1145.41092925426
1575,1148.65642794814
1575.25,1149.62219721949
1575.5,1148.91371530424
1575.75,1147.1536383168
1576,1144.96462194483
1576.25,1142.86203388457
1576.5,1140.95231834061
1576.75,1139.24450954607
1577,1137.74764173405
1577.25,1136.46922750184
1577.5,1135.36853275908
1577.75,1134.34781677573
1578,1133.30604989367
1578.25,1132.14220245474
1578.5,1130.80641459478
1578.75,1129.53581531312
1579,1128.66752145137
1579.25,1128.53875208487
1579.5,1129.47892717646
1579.75,1131.42858668727
1580,1133.7670440564
1580.25,1135.82988347206
1580.5,1136.95268912244
1580.75,1136.60721778449
1581,1135.14022810299
1581.25,1133.24455911228
1581.5,1131.61390619672
1581.75,1130.935899509
1582,1131.41414617854
1582.25,1132.42334206816
1582.5,1133.25681824396
1582.75,1133.20790577201
1583,1131.67851134883
1583.25,1128.94862469052
1583.5,1125.72347381558
1583.75,1122.71107318862
1584,1120.61707132308
1584.25,1119.83105655818
1584.5,1120.11207403167
1584.75,1121.14433599295
1585,1122.61205469142
1585.25,1124.21925861761
1585.5,1125.83889509537
1585.75,1127.42940209762
1586,1128.94988100707
1586.25,1130.35940046825
1586.5,1131.61357591328
1586.75,1132.66157339298
1587,1133.45185265154
1587.25,1133.93287343313
1587.5,1134.06048490425
1587.75,1133.85608913535
1588,1133.37537283415
1588.25,1132.67432231489
1588.5,1131.80896893476
1588.75,1130.84395356153
1589,1129.86268389699
1589.25,1128.95103978132
1589.5,1128.19490105471
1589.75,1127.67161971869
1590,1127.3641746207
1590.25,1127.19684659949
1590.5,1127.09303195479
1590.75,1126.97615607467
1591,1126.77924922323
1591.25,1126.45877317173
1591.5,1125.97469553864
1591.75,1125.28698394244
1592,1124.35626473567
1592.25,1123.15099938747
1592.5,1121.64478977965
1592.75,1119.81132739207
1593,1117.6244646369
1593.25,1115.1183415925
1593.5,1112.47754383099
1593.75,1109.90973664739
1594,1107.62258533671
1594.25,1105.8202030015
1594.5,1104.66850616294
1594.75,1104.31016374007
1595,1104.88751531941
1595.25,1106.54062214881
1595.5,1109.16039942721
1595.75,1112.16753592515
1596,1114.93055220737
1596.25,1116.81796883861
1596.5,1117.31682994165
1596.75,1116.69441770841
1597,1115.53348541218
1597.25,1114.41767211535
1597.5,1113.92338374221
1597.75,1114.28545072062
1598,1115.25649757287
1598.25,1116.55273716399
1598.5,1117.89038235898
1598.75,1119.03959532704
1599,1120.05143726876
1599.25,1121.06810053582
1599.5,1122.23182504587
1599.75,1123.67780706623
1600,1125.32312164581
1600.25,1126.83007096208
1600.5,1127.84652773074
1600.75,1128.02036466749
1601,1127.13568235915
1601.25,1125.61260597217
1601.5,1124.05672967648
1601.75,1123.07366939328
1602,1123.25281867769
1602.25,1124.67042885604
1602.5,1126.79713991564
1602.75,1129.06871636183
1603,1130.9209227
1603.25,1131.89659600197
1603.5,1132.04448059168
1603.75,1131.56259464515
1604,1130.64897796241
1604.25,1129.50202140955
1604.5,1128.33223835244
1604.75,1127.36506014044
1605,1126.82683584304
1605.25,1126.94391452973
1605.5,1127.85981088199
1605.75,1129.27085530862
1606,1130.72315367858
1606.25,1131.76270056885
1606.5,1131.94423588924
1606.75,1131.17773501547
1607,1129.84366465789
1607.25,1128.35486010243
1607.5,1127.12415663502
1607.75,1126.49545465137
1608,1126.39703981942
1608.25,1126.60220056803
1608.5,1126.88396098551
1608.75,1127.01882401859
1609,1126.96081520964
1609.25,1126.92253430376
1609.5,1127.13699241242
1609.75,1127.83720064708
1610,1129.1939394611
1610.25,1130.98372142047
1610.5,1132.82912246669
1610.75,1134.35236597522
1611,1135.1807996488
1611.25,1135.24186094429
1611.5,1134.92393752941
1611.75,1134.65458312501
1612,1134.8613514519
1612.25,1135.89387168312
1612.5,1137.51979907997
1612.75,1139.24355504722
1613,1140.56826720175
1613.25,1140.99997188859
1613.5,1140.37416019179
1613.75,1139.15441439376
1614,1137.87486598254
1614.25,1137.06964644621
1614.5,1137.22605107311
1614.75,1138.33544708143
1615,1140.09088480216
1615.25,1142.18133017335
1615.5,1144.29594146762
1615.75,1146.21814995528
1616,1147.97738170876
1616.25,1149.64268361417
1616.5,1151.28310255761
1616.75,1152.96084595745
1617,1154.62199223528
1617.25,1156.1155998361
1617.5,1157.28774830697
1617.75,1157.98451719494
1618,1158.09296436472
1618.25,1157.6845113081
1618.5,1156.88240519574
1618.75,1155.8098959716
1619,1154.59037059789
1619.25,1153.35570798504
1619.5,1152.25110771083
1619.75,1151.42293390218
1620,1151.01755068598
1620.25,1151.15946741176
1620.5,1151.75444624666
1620.75,1152.5822613798
1621,1153.4211733979
1621.25,1154.04950999507
1621.5,1154.32373637447
1621.75,1154.32918646228
1622,1154.19287917978
1622.25,1154.04183344823
1622.5,1153.99739321359
1622.75,1154.04333186816
1623,1154.02182000243
1623.25,1153.76854657098
1623.5,1153.1192005284
1623.75,1151.95940316214
1624,1150.46821436046
1624.25,1148.931539423
1624.5,1147.63543759774
1624.75,1146.86420897396
1625,1146.71073717336
1625.25,1146.9071548438
1625.5,1147.14564275954
1625.75,1147.11838169483
1626,1146.54972056165
1626.25,1145.52951283476
1626.5,1144.37947001953
1626.75,1143.42499421315
1627,1142.99144173932
1627.25,1143.30917560306
1627.5,1144.31360153352
1627.75,1145.88304556338
1628,1147.89583372532
1628.25,1150.22675978213
1628.5,1152.67413776016
1628.75,1154.96235777446
1629,1156.81278902036
1629.25,1157.94680069315
1629.5,1158.14598958339
1629.75,1157.50123810028
1630,1156.20243488452
1630.25,1154.43951315064
1630.5,1152.40263176199
1630.75,1150.301717893
1631,1148.38158815809
1631.25,1146.8906185185
1631.5,1146.07718493545
1631.75,1146.16047250646
1632,1147.02811296519
1632.25,1148.3574746642
1632.5,1149.82258161887
1632.75,1151.0975182288
1633,1151.96636972259
1633.25,1152.55068075029
1633.5,1153.03649140437
1633.75,1153.6098417773
1634,1154.44645918624
1634.25,1155.46745799202
1634.5,1156.32926901008
1634.75,1156.67599521262
1635,1156.15173957186
1635.25,1154.50833063074
1635.5,1152.13812897414
1635.75,1149.66929590226
1636,1147.73036028039
1636.25,1146.94643025281
1636.5,1147.50818030813
1636.75,1148.75127827667
1637,1149.91156555145
1637.25,1150.22488352546
1637.5,1148.99892542448
1637.75,1146.40604590486
1638,1143.19072291369
1638.25,1140.10763224365
1638.5,1137.91141361262
1638.75,1137.12923787275
1639,1137.52145670355
1639.25,1138.68700470751
1639.5,1140.22481648716
1639.75,1141.74163042317
1640,1143.01933653029
1640.25,1144.0126013043
1640.5,1144.68341996081
1640.75,1144.99378771543
1641,1144.9437231081
1641.25,1144.71471341459
1641.5,1144.54232232112
1641.75,1144.66212275795
1642,1145.30466818984
1642.25,1146.45206620536
1642.5,1147.72892873167
1642.75,1148.73212885347
1643,1149.05853965548
1643.25,1148.37214930085
1643.5,1146.86388016402
1643.75,1144.9734906827
1644,1143.14221144366
1644.25,1141.81060853503
1644.5,1141.24802135257
1644.75,1141.32565362792
1645,1141.85825075511
1645.25,1142.6605581282
1645.5,1143.5515575249
1645.75,1144.40946353654
1646,1145.15605199058
1646.25,1145.71410769931
1646.5,1146.00641849953
1646.75,1145.99278913954
1647,1145.7622943079
1647.25,1145.43221027261
1647.5,1145.11981330166
1647.75,1144.94017616295
1648,1144.94716388684
1648.25,1145.12694234227
1648.5,1145.46217147664
1648.75,1145.93551123737
1649,1146.49767660652
1649.25,1146.91647114244
1649.5,1146.89470936506
1649.75,1146.13512795928
1650,1144.34514509894
1650.25,1141.60207195625
1650.5,1138.61459976098
1650.75,1136.15313278372
1651,1134.98807529505
1651.25,1135.79050726611
1651.5,1138.26627683477
1651.75,1141.57804054947
1652,1144.88238697043
1652.25,1147.33709080117
1652.5,1148.44166863741
1652.75,1148.50809539699
1653,1147.96646616846
1653.25,1147.24687604035
1653.5,1146.75815948333
1653.75,1146.57738556014
1654,1146.51906672621
1654.25,1146.39053452511
1654.5,1145.99912050058
1654.75,1145.19975467085
1655,1144.03690669311
1655.25,1142.60221852688
1655.5,1140.9873321317
1655.75,1139.28367241539
1656,1137.57503833654
1656.25,1135.93576815749
1656.5,1134.43961078473
1656.75,1133.16031512473
1657,1132.16328010513
1657.25,1131.46243793785
1657.5,1131.05212947469
1657.75,1130.92665728461
1658,1131.07896622562
1658.25,1131.4157861947
1658.5,1131.70740724111
1658.75,1131.71204837689
1659,1131.1879286141
1659.25,1129.94751395749
1659.5,1128.2021617601
1659.75,1126.3412232322
1660,1124.75487237715
1660.25,1123.83041993474
1660.5,1123.68751243565
1660.75,1123.96371318736
1661,1124.24612698152
1661.25,1124.12185860978
1661.5,1123.25887352118
1661.75,1121.9593190076
1662,1120.82455344579
1662.25,1120.45769875768
1662.5,1121.45716262043
1662.75,1124.01036459055
1663,1127.58048520933
1663.25,1131.55696482391
1663.5,1135.32924378144
1663.75,1138.34851326657
1664,1140.51991657738
1664.25,1141.95111457543
1664.5,1142.75070331359
1664.75,1143.02766464561
1665,1142.93429411364
1665.25,1142.70525552266
1665.5,1142.5844360678
1665.75,1142.81572294418
1666,1143.60906395578
1666.25,1144.80591972874
1666.5,1146.02183285846
1666.75,1146.86907758741
1667,1146.96009786863
1667.25,1146.06606775245
1667.5,1144.41129221012
1667.75,1142.30040920291
1668,1140.03805669212
1668.25,1137.92243715608
1668.5,1136.120202955
1668.75,1134.67500174952
1669,1133.62575721834
1669.25,1133.01139304018
1669.5,1132.83353646905
1669.75,1132.93045519992
1670,1133.09570326638
1670.25,1133.12283357139
1670.5,1132.81122275351
1670.75,1132.14325594403
1671,1131.31661581765
1671.25,1130.54132009053
1671.5,1130.02738647884
1671.75,1129.92013722702
1672,1130.02110714367
1672.25,1130.01808121238
1672.5,1129.59877165694
1672.75,1128.45822990244
1673,1126.60225212404
1673.25,1124.45566561365
1673.5,1122.47290279891
1673.75,1121.10839610743
1674,1120.71585888019
1674.25,1121.05140919415
1674.5,1121.65160959932
1674.75,1122.05268520747
1675,1121.80108832013
1675.25,1120.87618793412
1675.5,1119.84106803827
1675.75,1119.30004648296
1676,1119.85744111856
1676.25,1121.92905896206
1676.5,1124.90448167908
1676.75,1127.82577338405
1677,1129.73472087565
1677.25,1129.697292606
1677.5,1127.62722543618
1677.75,1124.48893408376
1678,1121.31218348265
1678.25,1119.12673856677
1678.5,1118.73946581854
1678.75,1119.74395387047
1679,1121.32297915892
1679.25,1122.65899064755
1679.5,1122.9501465196
1679.75,1121.93299743415
1680,1120.00431414023
1680.25,1117.60126038936
1680.5,1115.16099993304
1680.75,1113.08842856603
1681,1111.6290964749
1681.25,1110.97945358196
1681.5,1111.335936026
1681.75,1112.87978668565
1682,1115.38814030231
1682.25,1118.20109857978
1682.5,1120.63697231478
1682.75,1122.01407474218
1683,1121.89505191991
1683.25,1120.75748686565
1683.5,1119.29308215864
1683.75,1118.19354037812
1684,1118.1155440371
1684.25,1119.02575024596
1684.5,1120.25941318268
1684.75,1121.12852043247
1685,1120.94512087644
1685.25,1119.32847858143
1685.5,1116.91876615272
1685.75,1114.56794984646
1686,1113.12799591879
1686.25,1113.39813124375
1686.5,1115.31558088361
1686.75,1118.11463943575
1687,1121.00909199661
1687.25,1123.21313939316
1687.5,1124.23550223181
1687.75,1124.39604192324
1688,1124.1530596319
1688.25,1123.96485652219
1688.5,1124.25671869314
1688.75,1125.02096208115
1689,1125.9452949881
1689.25,1126.71108244996
1689.5,1126.99989877706
1689.75,1126.60956329923
1690,1125.64710779642
1690.25,1124.27041047675
1690.5,1122.63734954835
1690.75,1120.90804089767
1691,1119.27238955979
1691.25,1117.94147904803
1691.5,1117.12684534041
1691.75,1117.03966407443
1692,1117.70568134307
1692.25,1118.66310062
1692.5,1119.37095310766
1692.75,1119.28827000849
1693,1117.94312798554
1693.25,1115.64475344515
1693.5,1113.1963139774
1693.75,1111.40877056349
1694,1111.09104850646
1694.25,1112.61046374953
1694.5,1115.34406384656
1694.75,1118.53413139191
1695,1121.42294897996
1695.25,1123.33857051064
1695.5,1124.3451546977
1695.75,1124.88150265766
1696,1125.38938356423
1696.25,1126.30788232059
1696.5,1127.7980549054
1696.75,1129.50447092578
1697,1131.01551064136
1697.25,1131.91955431175
1697.5,1131.86636121463
1697.75,1131.01860946581
1698,1129.79430899796
1698.25,1128.61333183581
1698.5,1127.89429400203
1698.75,1127.87717541874
1699,1128.43966535658
1699.25,1129.41560233561
1699.5,1130.63882487591
1699.75,1131.95249430773
1700,1133.288872183
1700.25,1134.62970371493
1700.5,1135.95726390837
1700.75,1137.25365393995
1701,1138.46332392258
1701.25,1139.44632342049
1701.5,1140.0512204164
1701.75,1140.12658289303
1702,1139.5419967155
1702.25,1138.42644258773
1702.5,1137.08369397146
1702.75,1135.82079087121
1703,1134.94468859767
1703.25,1134.61388599084
1703.5,1134.53312168715
1703.75,1134.32074117745
1704,1133.59508995256
1704.25,1132.00299289345
1704.5,1129.7139356011
1704.75,1127.35564725287
1705,1125.57138307569
1705.25,1125.00439689514
1705.5,1126.06049179878
1705.75,1128.2466665763
1706,1130.8572910172
1706.25,1133.18673491096
1706.5,1134.55517895917
1706.75,1134.82808647199
1707,1134.39061332009
1707.25,1133.64860456951
1707.5,1133.00790528627
1707.75,1132.75662446521
1708,1132.68645366702
1708.25,1132.45827108923
1708.5,1131.73295425749
1708.75,1130.18315414676
1709,1127.82747438114
1709.25,1125.0782296271
1709.5,1122.36910977816
1709.75,1120.13380472786
1710,1118.71822012399
1710.25,1118.03017738607
1710.5,1117.84111214928
1710.75,1117.9224161916
1711,1118.05213132627
1711.25,1118.20780210344
1711.5,1118.59637993692
1711.75,1119.43748369874
1712,1120.95073226095
1712.25,1123.2423714589
1712.5,1125.9291229352
1712.75,1128.4956148839
1713,1130.42647347367
1713.25,1131.22781127525
1713.5,1130.92258201466
1713.75,1130.06348842941
1714,1129.22730172282
1714.25,1128.99079309816
1714.5,1129.77013562656
1714.75,1131.27128490225
1715,1133.00393307437
1715.25,1134.47776564431
1715.5,1135.21516372135
1715.75,1135.11132380325
1716,1134.48559107572
1716.25,1133.68032657957
1716.5,1133.03789135566
1716.75,1132.86820595406
1717,1133.31130570509
1717.25,1134.45180256067
1717.5,1136.37427777967
1717.75,1139.15581046036
1718,1142.54133130247
1718.25,1145.81928566618
1718.5,1148.24495850914
1718.75,1149.07363478904
1719,1147.72971590976
1719.25,1144.78583515334
1719.5,1141.29202039512
1719.75,1138.29985918909
1720,1136.85677795368
1720.25,1137.39489764241
1720.5,1139.08589822714
1720.75,1140.94707382957
1721,1141.99571857142
1721.25,1141.3358655811
1721.5,1139.02344685899
1721.75,1135.70274254766
1722,1132.02674280317
1722.25,1128.64830865898
1722.5,1126.10231702049
1722.75,1124.58779644794
1723,1124.2444145211
1723.25,1125.21183881974
1723.5,1127.59544441645
1723.75,1130.98489206617
1724,1134.57151228559
1724.25,1137.53631190053
1724.5,1139.06054219362
1724.75,1138.70157248147
1725,1137.15168874461
1725.25,1135.31639374788
1725.5,1134.10119025613
1725.75,1134.36639139867
1726,1136.10024774304
1726.25,1138.50286164681
1726.5,1140.74598257524
1726.75,1142.0013599988
1727,1141.68237140322
1727.25,1140.16085867
1727.5,1138.04628458729
1727.75,1135.94811194326
1728,1134.46615188928
1728.25,1133.89201278271
1728.5,1134.15188786586
1728.75,1135.1507721796
1729,1136.79366076478
1729.25,1138.94641916992
1729.5,1141.25989987977
1729.75,1143.31149112067
1730,1144.67851758743
1730.25,1144.9456673875
1730.5,1144.09931393417
1730.75,1142.72640856505
1731,1141.46307307434
1731.25,1140.94542925624
1731.5,1141.70584519729
1731.75,1143.42272702627
1732,1145.35475180298
1732.25,1146.75768154872
1732.5,1146.88920513836
1732.75,1145.40086460877
1733,1142.8158574932
1733.25,1139.77423205388
1733.5,1136.91603655305
1733.75,1134.84635322771
1734,1133.67675827334
1734.25,1133.15356004435
1734.5,1133.01447868659
1734.75,1132.9972630075
1735,1132.9381984818
1735.25,1132.99250950212
1735.5,1133.37983238797
1735.75,1134.31980345885
1736,1136.01364857703
1736.25,1138.30759495924
1736.5,1140.72718409659
1736.75,1142.78643184423
1737,1143.9993540573
1737.25,1144.03445712784
1737.5,1143.18012220678
1737.75,1141.88017876656
1738,1140.57845627981
1738.25,1139.70880138049
1738.5,1139.36491765985
1738.75,1139.22454213078
1739,1138.94007148623
1739.25,1138.16390241917
1739.5,1136.63273542127
1739.75,1134.59415117411
1740,1132.48716427535
1740.25,1130.75112650064
1740.5,1129.82122558563
1740.75,1129.83745741987
1741,1130.454093663
1741.25,1131.28014714328
1741.5,1131.92463068899
1741.75,1132.05744925373
1742,1131.81169848527
1742.25,1131.53334114463
1742.5,1131.5694621869
1742.75,1132.26463477694
1743,1133.6954780175
1743.25,1135.4365106599
1743.5,1137.00703867356
1743.75,1137.92636802794
1744,1137.77727353953
1744.25,1136.72330312539
1744.5,1135.23950339479
1744.75,1133.8038914222
1745,1132.89344040976
1745.25,1132.70773568458
1745.5,1132.79735719507
1745.75,1132.6202047163
1746,1131.63417802334
1746.25,1129.35536203616
1746.5,1126.01584820496
1746.75,1122.32919635203
1747,1119.01791559398
1747.25,1116.80410882727
1747.5,1116.1285351201
1747.75,1116.65949632626
1748,1117.93389091327
1748.25,1119.48861734865
1748.5,1120.88878422302
1748.75,1122.03652539586
1749,1123.05580232165
1749.25,1124.07447600444
1749.5,1125.21998241837
1749.75,1126.50033724906
1750,1127.6410355855
1750.25,1128.3267228478
1750.5,1128.24204445608
1750.75,1127.11990837983
1751,1125.22948000658
1751.25,1123.17447645155
1751.5,1121.56369933057
1751.75,1121.00499611983
1752,1121.78559838569
1752.25,1123.40806603271
1752.5,1125.25713749724
1752.75,1126.71755121561
1753,1127.24495037604
1753.25,1127.07153979067
1753.5,1126.90877165165
1753.75,1127.47516252067
1754,1129.48778989269
1754.25,1133.2356201599
1754.5,1137.98350660871
1754.75,1142.84637774896
1755,1146.93916209046
1755.25,1149.45689704296
1755.5,1150.55125639462
1755.75,1151.00336312097
1756,1151.60539605002
1756.25,1153.1494382162
1756.5,1156.04608341378
1756.75,1159.45784858419
1757,1162.29242034749
1757.25,1163.45748532376
1757.5,1161.90157578822
1757.75,1157.74350056084
1758,1152.41705813031
1758.25,1147.42595864861
1758.5,1144.27391226771
1758.75,1144.23560404038
1759,1146.91119145103
1759.25,1151.15733256714
1759.5,1155.82732640576
1759.75,1159.77737972828
1760,1162.30943248627
1760.25,1163.64686086427
1760.5,1164.1271285046
1760.75,1164.08769904958
1761,1163.85761156983
1761.25,1163.63545050894
1761.5,1163.51707806465
1761.75,1163.59557784184
1762,1163.96403344541
1762.25,1164.65524500586
1762.5,1165.4091887732
1762.75,1165.87705677049
1763,1165.71002117994
1763.25,1164.56180245176
1763.5,1162.32052500963
1763.75,1159.29439058292
1764,1155.83529383728
1764.25,1152.29512943837
1764.5,1149.02662163891
1764.75,1146.39399934427
1765,1144.76990499438
1765.25,1144.52717335478
1765.5,1146.03863831945
1765.75,1149.43100547857
1766,1153.89112450827
1766.25,1158.38154343553
1766.5,1161.86481028736
1766.75,1163.33048438967
1767,1162.64631498999
1767.25,1160.73032360077
1767.5,1158.56230532962
1767.75,1157.12205528417
1768,1157.24519987606
1768.25,1158.62890416015
1768.5,1160.43005268038
1768.75,1161.80226783616
1769,1161.90014493917
1769.25,1160.30129195677
1769.5,1157.66600258679
1769.75,1154.82533131394
1770,1152.61033262291
1770.25,1151.82241878947
1770.5,1152.59249586205
1770.75,1154.38716268812
1771,1156.644615745
1771.25,1158.80305151004
1771.5,1160.37626618091
1771.75,1161.29251416455
1772,1161.6213479952
1772.25,1161.43244003101
1772.5,1160.79608030615
1772.75,1159.85064477863
1773,1158.86330711565
1773.25,1158.11557059305
1773.5,1157.88893848662
1773.75,1158.43075370108
1774,1159.50755469684
1774.25,1160.53068220782
1774.5,1160.90316213499
1774.75,1160.0280203793
1775,1157.53616974942
1775.25,1154.01592406183
1775.5,1150.30698153837
1775.75,1147.24904144873
1776,1145.67126677093
1776.25,1145.8152297356
1776.5,1147.03648911025
1776.75,1148.61720876216
1777,1149.83955255859
1777.25,1150.06876077584
1777.5,1149.37025048744
1777.75,1148.16047531653
1778,1146.85851870402
1778.25,1145.88311475708
1778.5,1145.5206337855
1778.75,1145.72648001097
1779,1146.40517338262
1779.25,1147.46123384957
1779.5,1148.7891628454
1779.75,1150.11813643247
1780,1151.04168518121
1780.25,1151.14933007271
1780.5,1150.03059208805
1780.75,1147.43898227646
1781,1143.81675662301
1781.25,1139.78695903942
1781.5,1135.97263417718
1781.75,1132.98939180685
1782,1131.1340334478
1782.25,1130.27111688384
1782.5,1130.23441688827
1782.75,1130.85770823439
1783,1131.97067190557
1783.25,1133.37697812584
1783.5,1134.87011491333
1783.75,1136.24354659273
1784,1137.29276347986
1784.25,1137.94358966693
1784.5,1138.32908016929
1784.75,1138.60073990475
1785,1138.9100737911
1785.25,1139.3955525343
1785.5,1140.09147168552
1785.75,1140.98217875862
1786,1142.05170682442
1786.25,1143.28396103162
1786.5,1144.64150578028
1786.75,1146.0418576552
1787,1147.3968168356
1787.25,1148.61818350067
1787.5,1149.62422939547
1787.75,1150.41383219195
1788,1151.04054439223
1788.25,1151.55895762775
1788.5,1152.02366357115
1788.75,1152.48959694398
1789,1153.01286737741
1789.25,1153.64983582739
1789.5,1154.45686324986
1789.75,1155.48808653241
1790,1156.72999911358
1790.25,1158.09078177492
1790.5,1159.47424302949
1790.75,1160.78419139036
1791,1161.9356057584
1791.25,1162.91996116472
1791.5,1163.76078284201
1791.75,1164.48170503189
1792,1165.10616908038
1792.25,1165.60400541801
1792.5,1165.81848504817
1792.75,1165.57462362907
1793,1164.69743681896
1793.25,1163.02635059901
1793.5,1160.70310039424
1793.75,1158.15638316003
1794,1155.82623397956
1794.25,1154.152687936
1794.5,1153.49244319499
1794.75,1153.6987083495
1795,1154.43655990955
1795.25,1155.37074929054
1795.5,1156.16716491342
1795.75,1156.63202485905
1796,1156.84558112463
1796.25,1156.91977980518
1796.5,1156.96656699573
1796.75,1157.091232934
1797,1157.30837276227
1797.25,1157.56705175885
1797.5,1157.81487963043
1797.75,1157.99946608372
1798,1158.0632988549
1798.25,1157.92813376164
1798.5,1157.5104819079
1798.75,1156.72685439733
1799,1155.4970553135
1799.25,1153.90091152616
1799.5,1152.24680867625
1799.75,1150.86068096135
1800,1150.06846257903
1800.25,1150.14907767836
1800.5,1150.95848127264
1800.75,1152.12884949786
1801,1153.29032249492
1801.25,1154.07331586254
1801.5,1154.25554833966
1801.75,1154.00432483486
1802,1153.55061866988
1802.25,1153.12540316644
1802.5,1152.95252621694
1802.75,1153.10913053707
1803,1153.53460719114
1803.25,1154.16301474549
1803.5,1154.92841176649
1803.75,1155.76954130822
1804,1156.649562839
1804.25,1157.53956520333
1804.5,1158.41064142968
1804.75,1159.23374804713
1805,1159.9685800202
1805.25,1160.55533545441
1805.5,1160.93227170578
1805.75,1161.03764613031
1806,1160.81998390568
1806.25,1160.35182532564
1806.5,1159.78798609997
1806.75,1159.28475867583
1807,1158.99843539089
1807.25,1159.02305254256
1807.5,1159.2125831096
1807.75,1159.36314440468
1808,1159.27085374048
1808.25,1158.73681799031
1808.5,1157.78639018482
1808.75,1156.75506380231
1809,1156.00106904025
1809.25,1155.88263609613
1809.5,1156.69544398998
1809.75,1158.17268478164
1810,1159.75009168386
1810.25,1160.86069579206
1810.5,1160.93785925656
1810.75,1159.70651079594
1811,1157.71775046942
1811.25,1155.6680001092
1811.5,1154.25368154745
1811.75,1154.14419953287
1812,1155.29861417586
1812.25,1156.91239965754
1812.5,1158.14334737738
1812.75,1158.14924873485
1813,1156.28345688388
1813.25,1153.10927944281
1813.5,1149.65222206918
1813.75,1146.93871416652
1814,1145.99120179916
1814.25,1147.20058674842
1814.5,1149.64119321267
1814.75,1152.22270820104
1815,1153.85481872263
1815.25,1153.54019503815
1815.5,1151.47253093293
1815.75,1148.66965058734
1816,1146.16584931763
1816.25,1144.99541774168
1816.5,1145.84426186044
1816.75,1148.10298035682
1817,1150.86119448915
1817.25,1153.20852551576
1817.5,1154.25684932844
1817.75,1153.7931303575
1818,1152.3848905193
1818.25,1150.64313959341
1818.5,1149.17888735942
1818.75,1148.5330817086
1819,1148.77364101775
1819.25,1149.77280437502
1819.5,1151.40218843155
1819.75,1153.53320976695
1820,1156.00826366732
1820.25,1158.61058767147
1820.5,1161.11621556997
1820.75,1163.3011811534
1821,1164.96175394611
1821.25,1166.17374477543
1821.5,1167.21685426536
1821.75,1168.37541455981
1822,1169.9337578027
1822.25,1172.05151757215
1822.5,1174.33341249864
1822.75,1176.22985883973
1823,1177.19126662727
1823.25,1176.67280618295
1823.5,1174.54869929284
1823.75,1171.43388974079
1824,1168.01903497468
1824.25,1164.99479244237
1824.5,1163.0198682761
1824.75,1162.2274426413
1825,1162.32042032886
1825.25,1162.98904406037
1825.5,1163.9235565574
1825.75,1164.83340252728
1826,1165.52559291922
1826.25,1165.83805039761
1826.5,1165.60870997258
1826.75,1164.67767875565
1827,1163.11356255554
1827.25,1161.41138646528
1827.5,1160.11282963935
1827.75,1159.7595712322
1828,1160.84540069855
1828.25,1163.16040074023
1828.5,1165.95944452875
1828.75,1168.48400835204
1829,1169.97556849806
1829.25,1169.87516326445
1829.5,1168.51155885248
1829.75,1166.46027540644
1830,1164.29684292547
1830.25,1162.59429011849
1830.5,1161.70569112061
1830.75,1161.59545645305
1831,1162.18828605532
1831.25,1163.40887986691
1831.5,1165.17097311111
1831.75,1167.24371530369
1832,1169.29414400994
1832.25,1170.98715027059
1832.5,1171.98762512635
1832.75,1172.08436081733
1833,1171.59769185752
1833.25,1170.99046473936
1833.5,1170.72552764346
1833.75,1171.26154112038
1834,1172.7014338573
1834.25,1174.52643212552
1834.5,1176.15512579835
1834.75,1177.00610474907
1835,1176.54076737775
1835.25,1174.8492456724
1835.5,1172.49970260297
1835.75,1170.07225785002
1836,1168.14703109415
1836.25,1167.19846689084
1836.5,1167.12371029184
1836.75,1167.62375477739
1837,1168.39943245399
1837.25,1169.15230736992
1837.5,1169.69945348067
1837.75,1170.09847094087
1838,1170.43699683226
1838.25,1170.8026682366
1838.5,1171.2760597365
1838.75,1171.80723736193
1839,1172.2313620432
1839.25,1172.37966877187
1839.5,1172.0833925395
1839.75,1171.2050254443
1840,1169.7954319532
1840.25,1167.97569952742
1840.5,1165.86703506925
1840.75,1163.59067021599
1841,1161.27502980497
1841.25,1159.06567078403
1841.5,1157.11064591476
1841.75,1155.55800795872
1842,1154.54958253135
1842.25,1154.09706976188
1842.5,1154.08893047529
1842.75,1154.40877686326
1843,1154.9402211175
1843.25,1155.56104877219
1843.5,1156.11761287837
1843.75,1156.44571462193
1844,1156.38114742292
1844.25,1155.76181811675
1844.5,1154.61760149624
1844.75,1153.3210529137
1845,1152.28019442691
1845.25,1151.90304809363
1845.5,1152.54623676331
1845.75,1153.94718562174
1846,1155.4332951192
1846.25,1156.32464231557
1846.5,1155.94133041212
1846.75,1153.86101666808
1847,1150.55127919822
1847.25,1146.67176783938
1847.5,1142.88213242837
1847.75,1139.83186332854
1848,1137.82802385001
1848.25,1136.76105551722
1848.5,1136.49622228739
1848.75,1136.89878811778
1849,1137.83620286654
1849.25,1139.1892472557
1849.5,1140.84372681531
1849.75,1142.68545628132
1850,1144.60027967195
1850.25,1146.47608569087
1850.5,1148.20410986731
1850.75,1149.67589743164
1851,1150.78299361423
1851.25,1151.43573105197
1851.5,1151.7152502767
1851.75,1151.79382758591
1852,1151.84459298063
1852.25,1152.04054953678
1852.5,1152.47677964707
1852.75,1153.0380269256
1853,1153.57389701387
1853.25,1153.93399555338
1853.5,1153.97156224532
1853.75,1153.61435403654
1854,1152.85993141294
1854.25,1151.70854491673
1854.5,1150.16044509007
1854.75,1148.24976045945
1855,1146.1888655218
1855.25,1144.24854936758
1855.5,1142.69963499677
1855.75,1141.80960591149
1856,1141.60558730653
1856.25,1141.71713184293
1856.5,1141.73649153108
1856.75,1141.25591838137
1857,1139.92804765128
1857.25,1137.94696212811
1857.5,1135.79241433006
1857.75,1133.94673096403
1858,1132.89143646023
1858.25,1132.87579032978
1858.5,1133.59634611454
1858.75,1134.66921721329
1859,1135.71051702478
1859.25,1136.35181265001
1859.5,1136.41911058178
1859.75,1135.87126197956
1860,1134.66968960422
1860.25,1132.77593790963
1860.5,1130.30799574413
1860.75,1127.84712071492
1861,1126.05991714049
1861.25,1125.61298933931
1861.5,1127.11925957665
1861.75,1130.28154524618
1862,1134.04304076676
1862.25,1137.32366340831
1862.5,1139.0434280415
1862.75,1138.54742834569
1863,1136.58014522136
1863.25,1134.17360856655
1863.5,1132.35984827926
1863.75,1132.13010378693
1864,1133.57686756012
1864.25,1135.91526180725
1864.5,1138.32389438173
1864.75,1139.98137313699
1865,1140.27583574825
1865.25,1139.48205079171
1865.5,1138.10926630516
1865.75,1136.66673178879
1866,1135.65720694426
1866.25,1135.36019023894
1866.5,1135.78091435315
1866.75,1136.90778568963
1867,1138.72921065108
1867.25,1141.18979363403
1867.5,1143.98014686481
1867.75,1146.69955592392
1868,1148.9471865179
1868.25,1150.32599487395
1868.5,1150.68737463522
1868.75,1150.28038774026
1869,1149.38981920062
1869.25,1148.30045402782
1869.5,1147.28359948541
1869.75,1146.4813230824
1870,1145.96372618948
1870.25,1145.80013305078
1870.5,1146.05977417159
1870.75,1146.74986578311
1871,1147.70843659986
1871.25,1148.7449291725
1871.5,1149.66878605164
1871.75,1150.29985178356
1872,1150.65303137118
1872.25,1150.91650528721
1872.5,1151.28447983805
1872.75,1151.95116133009
1873,1153.04428952096
1873.25,1154.37832206053
1873.5,1155.67550126173
1873.75,1156.65805662676
1874,1157.05155502493
1874.25,1156.77604985953
1874.5,1156.04978501855
1874.75,1155.1162774954
1875,1154.21904428348
1875.25,1153.58901997002
1875.5,1153.33143855747
1875.75,1153.47924348184
1876,1154.06451365577
1876.25,1155.1192730362
1876.5,1156.58773289503
1876.75,1158.14812631608
1877,1159.42851967151
1877.25,1160.0569793335
1877.5,1159.67669607133
1877.75,1158.32621021094
1878,1156.46774512536
1878.25,1154.58432379448
1878.5,1153.15896919823
1878.75,1152.59950481491
1879,1152.81407965134
1879.25,1153.50709725388
1879.5,1154.38236165181
1879.75,1155.14404732239
1880,1155.55696511363
1880.25,1155.51333054619
1880.5,1154.92143874749
1880.75,1153.68958484492
1881,1151.74679998569
1881.25,1149.33050959913
1881.5,1146.91458478827
1881.75,1144.97892384699
1882,1144.00342506918
1882.25,1144.28264641142
1882.5,1145.34618516152
1882.75,1146.52631201175
1883,1147.15529743647
1883.25,1146.57925818406
1883.5,1144.64179871444
1883.75,1141.81012501642
1884,1138.59091643759
1884.25,1135.49085232555
1884.5,1132.96395694633
1884.75,1131.10556137126
1885,1129.86142031274
1885.25,1129.17679211254
1885.5,1128.99451590022
1885.75,1129.04648047156
1886,1128.69281592714
1886.25,1127.25579769932
1886.5,1124.05770122047
1886.75,1118.56343666952
1887,1111.40126152421
1887.25,1103.76686594463
1887.5,1096.85976489941
1887.75,1091.87230236576
1888,1089.32679449441
1888.25,1088.5389717219
1888.5,1088.69829828339
1888.75,1088.99423841405
1889,1088.743592074
1889.25,1087.94007364699
1889.5,1086.80145305813
1889.75,1085.54564407886
1890,1084.38295070681
1890.25,1083.38360813686
1890.5,1082.49482489199
1890.75,1081.65962614055
1891,1080.82136635961
1891.25,1079.98528981933
1891.5,1079.29102296242
1891.75,1078.89581475652
1892,1078.95691416928
1892.25,1079.59898007067
1892.5,1080.76253435851
1892.75,1082.32349411307
1893,1084.15770644222
1893.25,1086.1414438993
1893.5,1088.15817495374
1893.75,1090.09736527755
1894,1091.84866374733
1894.25,1093.30175726164
1894.5,1094.35200990488
1894.75,1094.90644415258
1895,1094.87351465816
1895.25,1094.16167607499
1895.5,1092.73962117221
1895.75,1090.94704120234
1896,1089.26474957668
1896.25,1088.17383417771
1896.5,1088.13765731908
1896.75,1089.17484259445
1897,1090.83766213651
1897.25,1092.65633690955
1897.5,1094.16124039788
1897.75,1094.98265136971
1898,1095.02303143676
1898.25,1094.23076231634
1898.5,1092.5542257258
1898.75,1089.96806519246
1899,1086.67258653002
1899.25,1082.98306442983
1899.5,1079.21568783541
1899.75,1075.68077403774
1900,1072.44010439126
1900.25,1069.22035790304
1900.5,1065.72454247624
1900.75,1061.65571578481
1901,1056.84864283495
1901.25,1051.55571575716
1901.5,1046.11191012901
1901.75,1040.85220152806
1902,1036.06902242647
1902.25,1031.76891242146
1902.5,1027.84064242283
1902.75,1024.17261707978
1903,1020.6611028052
1903.25,1017.29268618846
1903.5,1014.11171949339
1903.75,1011.16349529089
1904,1008.49613587232
1904.25,1006.20403633006
1904.5,1004.41933714779
1904.75,1003.27528083515
1905,1002.89420603171
1905.25,1003.18728922132
1905.5,1003.87446261288
1905.75,1004.66875038303
1906,1005.28565903026
1906.25,1005.49138293961
1906.5,1005.09948217293
1906.75,1003.92533371463
1907,1001.80244212151
1907.25,998.969732738876
1907.5,996.065256698115
1907.75,993.743933605918
1908,992.637890363753
1908.25,992.839993661988
1908.5,993.895366560127
1908.75,995.3246425989
1909,996.669432237551
1909.25,997.907336022638
1909.5,999.427586914357
1909.75,1001.63551820901
1910,1004.9035501085
1910.25,1008.96696296754
1910.5,1012.98412988914
1910.75,1016.09259465553
1911,1017.47941558761
1911.25,1017.34231266976
1911.5,1016.82320654216
1911.75,1017.10022089935
1912,1019.30972591266
1912.25,1023.40863327806
1912.5,1028.03805261598
1912.75,1031.76996897194
1913,1033.20373123158
1913.25,1032.09526951205
1913.5,1029.75896713326
1913.75,1027.61919318765
1914,1027.0933908964
1914.25,1028.79426049331
1914.5,1031.78916291274
1914.75,1034.97034016339
1915,1037.23139569536
1915.25,1038.11720977707
1915.5,1038.86557157042
1915.75,1040.98580233598
1916,1045.9872233343
1916.25,1054.7278164732
1916.5,1065.44579595303
1916.75,1075.72081156967
1917,1083.13251311495
1917.25,1085.64976162822
1917.5,1083.99048531427
1917.75,1080.05659092191
1918,1075.75461221547
1918.25,1072.94337308869
1918.5,1072.26331220665
1918.75,1073.0651737273
1919,1074.63771561668
1919.25,1076.27050751101
1919.5,1077.47153640241
1919.75,1078.26111195159
1920,1078.73291301131
1920.25,1078.98061843437
1920.5,1079.09957928377
1920.75,1079.19481488093
1921,1079.37481135492
1921.25,1079.74805929125
1921.5,1080.42411179574
1921.75,1081.53106429588
1922,1083.21277205396
1922.25,1085.61359173937
1922.5,1088.87573265915
1922.75,1092.86050760833
1923,1096.87197247554
1923.25,1100.14849216602
1923.5,1101.92843158498
1923.75,1101.62570434148
1924,1099.63231870752
1924.25,1096.67892056765
1924.5,1093.49648425471
1924.75,1090.79878169416
1925,1088.86902960278
1925.25,1087.5395590143
1925.5,1086.62142974664
1925.75,1085.9255903295
1926,1085.16040487938
1926.25,1083.74190937186
1926.5,1081.03441201676
1926.75,1076.40222102395
1927,1069.38221312811
1927.25,1060.91544494758
1927.5,1052.62651464554
1927.75,1046.14459196748
1928,1043.0477071546
1928.25,1043.5563391191
1928.5,1046.42430439508
1928.75,1050.33241691132
1929,1053.96544256754
1929.25,1056.32825765007
1929.5,1056.97662767172
1929.75,1055.52073419579
1930,1051.57089782804
1930.25,1045.05192873953
1930.5,1036.87263598339
1930.75,1028.13375846816
1931,1019.93603510239
1931.25,1013.2195554048
1931.5,1007.98462170972
1931.75,1003.8908111576
1932,1000.59722514991
1932.25,997.796346869627
1932.5,995.428605230782
1932.75,993.546043673326
1933,992.201242587892
1933.25,991.442260313061
1933.5,991.283569225277
1933.75,991.724523497532
1934,992.764404589144
1934.25,994.37112337175
1934.5,996.302159582905
1934.75,998.228450903406
1935,999.820668224153
1935.25,1000.81196437709
1935.5,1001.319464301
1935.75,1001.6060527189
1936,1001.93489411949
1936.25,1002.51495981299
1936.5,1003.22220461003
1936.75,1003.80617329452
1937,1004.01616810486
1937.25,1003.67440269156
1937.5,1003.06239263278
1937.75,1002.64004174334
1938,1002.86764949813
1938.25,1004.1416346559
1938.5,1006.43536421396
1938.75,1009.55022297888
1939,1013.28709805266
1939.25,1017.43507968071
1939.5,1021.70212434391
1939.75,1025.76206440351
1940,1029.28861383253
1940.25,1032.01105631421
1940.5,1034.11646987372
1940.75,1036.01711513814
1941,1038.12682130672
1941.25,1040.8278148979
1941.5,1044.1068533458
1941.75,1047.68154948673
1942,1051.26435714224
1942.25,1054.56205860523
1942.5,1057.14506545418
1942.75,1058.44404301178
1943,1057.88330983723
1943.25,1054.89316186893
1943.5,1049.45755375061
1943.75,1042.55479044059
1944,1035.26688139965
1944.25,1028.67580437306
1944.5,1023.63589709157
1944.75,1020.22826576078
1945,1018.36999364642
1945.25,1017.97816401421
1945.5,1018.93167243266
1945.75,1020.92574132576
1946,1023.60044047169
1946.25,1026.59582900458
1946.5,1029.49992565638
1946.75,1031.58896654193
1947,1032.02359535134
1947.25,1029.96426644897
1947.5,1024.75233564227
1947.75,1017.25869144352
1948,1009.12310135135
1948.25,1001.99115073291
1948.5,997.382594035136
1948.75,995.219682062925
1949,994.326217982764
1949.25,993.504395400265
1949.5,991.63005039484
1949.75,988.51389485205
1950,984.609433258153
1950.25,980.382814136855
1950.5,976.281806024187
1950.75,972.543663474847
1951,969.271308075207
1951.25,966.565488201589
1951.5,964.500509823565
1951.75,962.924174007876
1952,961.569181849579
1952.25,960.16732781356
1952.5,958.513133979651
1952.75,956.750070142468
1953,955.14223896152
1953.25,953.953842561225
1953.5,953.307208796487
1953.75,952.837220669212
1954,952.074157473668
1954.25,950.548822646688
1954.5,947.866123023749
1954.75,943.781021697073
1955,938.066610726215
1955.25,930.521424130801
1955.5,921.774054394711
1955.75,913.447466707977
1956,907.223267499799
1956.25,904.59759544595
1956.5,905.117171280267
1956.75,907.16266800945
1957,909.099230555097
1957.25,909.893406001885
1957.5,910.458547379054
1957.75,912.101223161841
1958,916.089680542819
1958.25,922.46913195395
1958.5,929.83510323105
1958.75,936.699057435333
1959,941.762757183903
1959.25,945.23362394418
1959.5,948.034802414636
1959.75,951.093781349833
1960,954.962543349646
1960.25,958.807576504338
1960.5,961.475899973902
1960.75,961.81951467701
1961,959.492636434115
1961.25,955.828289142483
1961.5,952.370381311506
1961.75,950.626121788645
1962,950.440102012802
1962.25,949.349762951685
1962.5,944.722586288108
1962.75,934.150697086341
1963,919.006343840894
1963.25,903.801985190363
1963.5,893.145358879578
1963.75,890.90365898356
1964,895.592516142436
1964.25,903.375712789125
1964.5,910.418551384187
1964.75,914.4621638451
1965,916.402036096927
1965.25,917.509521347806
1965.5,918.989732110441
1965.75,921.0684643608
1966,923.223644561748
1966.25,924.914305353892
1966.5,925.60325624719
1966.75,924.771896020452
1967,921.907332962079
1967.25,916.502329069413
1967.5,908.881738721434
1967.75,901.073015836392
1968,895.311878735278
1968.25,893.704169718099
1968.5,896.058820425516
1968.75,900.216284803072
1969,903.953318033811
1969.25,905.692533963812
1969.5,906.574308741671
1969.75,908.453768884949
1970,913.154804645202
1970.25,921.013043668525
1970.5,930.255545295661
1970.75,938.949328218485
1971,945.353940974052
1971.25,949.563729488555
1971.5,952.689718378332
1971.75,955.853737124777
1972,959.845329878425
1972.25,963.951459083132
1972.5,967.034568835309
1972.75,967.958097424517
1973,966.185431312665
1973.25,962.789447121595
1973.5,959.110112518549
1973.75,956.481883651616
1974,955.651908749569
1974.25,956.267177568064
1974.5,957.853750855478
1974.75,959.947383354329
1975,962.392717156826
1975.25,965.400238293985
1975.5,969.201620473588
1975.75,974.00293183874
1976,979.625925528552
1976.25,985.595903616059
1976.5,991.430507418171
1976.75,996.673671698198
1977,1001.12678881011
1977.25,1004.73700321688
1977.5,1007.45311866426
1977.75,1009.22553775235
1978,1010.01889646824
1978.25,1009.80529624608
1978.5,1008.55690441822
1978.75,1006.27007437082
1979,1003.18124438793
1979.25,999.66423782775
1979.5,996.094495728575
1979.75,992.82195892225
1980,989.913313057729
1980.25,987.258570352487
1980.5,984.745059622855
1980.75,982.304616743861
1981,980.329657579749
1981.25,979.484819692228
1981.5,980.438278657592
1981.75,983.744532635685
1982,989.011468197104
1982.25,995.377134339443
1982.5,1001.97619189383
1982.75,1008.02739958553
1983,1013.29813998659
1983.25,1017.77580150655
1983.5,1021.44836223914
1983.75,1024.2474929301
1984,1025.72342867072
1984.25,1025.26814066681
1984.5,1022.27308861413
1984.75,1016.27314856037
1985,1008.09666328341
1985.25,999.257637082097
1985.5,991.276354730696
1985.75,985.563416183086
1986,982.200765924433
1986.25,980.387009245526
1986.5,979.304808769876
1986.75,978.21568031001
1987,977.196844106201
1987.25,976.807496133681
1987.5,977.613091110108
1987.75,980.108252507578
1988,984.235353092907
1988.25,989.677524157695
1988.5,996.116400881724
1988.75,1003.16805852736
1989,1010.06151715379
1989.25,1015.88425448299
1989.5,1019.72353782347
1989.75,1020.85292292092
1990,1019.60584303526
1990.25,1016.69004541026
1990.5,1012.81370474773
1990.75,1008.6296577582
1991,1004.3863117048
1991.25,1000.15257373506
1991.5,995.996541469798
1991.75,992.028338016616
1992,988.717218499975
1992.25,986.71457330736
1992.5,986.673217072665
1992.75,989.108323293126
1993,993.43389668944
1993.25,998.535533081349
1993.5,1003.29549053249
1993.75,1006.7494401852
1994,1008.97171517623
1994.25,1010.46738854909
1994.5,1011.7429217786
1994.75,1013.24528323283
1995,1014.99771350283
1995.25,1016.83960866258
1995.5,1018.60962004006
1995.75,1020.1692101239
1996,1021.56963753798
1996.25,1022.95629869225
1996.5,1024.47526707214
1996.75,1026.23730718358
1997,1027.97239808575
1997.25,1029.17824763497
1997.5,1029.34925220602
1997.75,1028.01938685184
1998,1025.34489001848
1998.25,1021.97686903123
1998.5,1018.58011114948
1998.75,1015.81722560431
1999,1014.29336599218
1999.25,1014.55181644684
1999.5,1017.13279879182
1999.75,1022.55137257958
2000,1030.36519944979
2000.25,1038.90014010651
2000.5,1046.400917432
2000.75,1051.1298673755
2001,1052.4835315537
2001.25,1051.66249481339
2001.5,1050.02803523108
2001.75,1048.94072308475
2002,1049.23326121776
2002.25,1050.27443541364
2002.5,1051.18133191171
2002.75,1051.07103695132
2003,1049.26174217019
2003.25,1046.07153633453
2003.5,1042.12867496063
2003.75,1038.06150872423
2004,1034.44675364718
2004.25,1031.37003907663
2004.5,1028.64531362261
2004.75,1026.08365358627
2005,1023.5338025335
2005.25,1021.46603607822
2005.5,1020.86055444738
2005.75,1022.7126291754
2006,1027.9631366661
2006.25,1036.14709421789
2006.5,1045.30188919711
2006.75,1053.39213666398
2007,1058.41297464974
2007.25,1059.73529547688
2007.5,1058.63500552197
2007.75,1056.52791401126
2008,1054.82872454389
2008.25,1054.4387467047
2008.5,1054.93112289482
2008.75,1055.66706230833
2009,1056.00777413932
2009.25,1055.43397889884
2009.5,1054.02040760849
2009.75,1052.02599184888
2010,1049.70971946986
2010.25,1047.32468775169
2010.5,1045.06399146779
2010.75,1043.08569206954
2011,1041.54741215153
2011.25,1040.61079450778
2011.5,1040.52662228761
2011.75,1041.63301040223
2012,1044.27173219595
2012.25,1048.77250354666
2012.5,1054.79360887007
2012.75,1060.98146992425
2013,1065.89875390785
2013.25,1068.10978823121
2013.5,1066.84900397713
2013.75,1063.04470587265
2014,1057.88874681328
2014.25,1052.57297969455
2014.5,1048.12550112363
2014.75,1044.64398696229
2015,1041.89794024035
2015.25,1039.65649304081
2015.5,1037.70733112028
2015.75,1036.04673216662
2016,1034.80225539533
2016.25,1034.10350470873
2016.5,1034.07083259588
2016.75,1034.63049202384
2017,1035.52448125173
2017.25,1036.48751776066
2017.5,1037.25922791152
2017.75,1037.78946712052
2018,1038.31296877575
2018.25,1039.08473839969
2018.5,1040.35885233907
2018.75,1042.25960667117
2019,1044.6493281702
2019.25,1047.35881320645
2019.5,1050.21885841682
2019.75,1053.0610157383
2020,1055.71924541649
2020.25,1058.02798665177
2020.5,1059.82167864454
2020.75,1060.93025741916
2021,1061.15744493866
2021.25,1060.29750293924
2021.5,1058.14468039355
2021.75,1054.55159624429
2022,1050.13076376035
2022.25,1046.02656143339
2022.5,1043.39430415589
2022.75,1043.36233320218
2023,1046.05866920025
2023.25,1050.33914080793
2023.5,1054.97724165615
2023.75,1058.75051602921
2024,1061.00171307469
2024.25,1062.21418717004
2024.5,1063.00853260354
2024.75,1064.00534365189
2025,1065.6552322086
2025.25,1067.73719306795
2025.5,1069.86436951431
2025.75,1071.64990483208
2026,1072.72364530306
2026.25,1072.86173089934
2026.5,1071.91601722134
2026.75,1069.73899734922
2027,1066.1977060795
2027.25,1061.56566808922
2027.5,1056.56746493848
2027.75,1051.95116355693
2028,1048.4639413107
2028.25,1046.63254076691
2028.5,1046.47524092856
2028.75,1047.93886656979
2029,1050.97024246477
2029.25,1055.38820315249
2029.5,1060.48746317988
2029.75,1065.42859548574
2030,1069.37217294614
2030.25,1071.59507484656
2030.5,1072.2671035639
2030.75,1071.97170354993
2031,1071.29457615441
2031.25,1070.80966794809
2031.5,1070.83071469248
2031.75,1071.41675787757
2032,1072.6161876808
2032.25,1074.47598643877
2032.5,1076.81965639852
2032.75,1079.00467130377
2033,1080.33020762748
2033.25,1080.0954418426
2033.5,1077.78891166853
2033.75,1073.83911150424
2034,1068.96564054261
2034.25,1063.88818541816
2034.5,1059.31321801921
2034.75,1055.75581361703
2035,1053.58688432071
2035.25,1053.17381266778
2035.5,1054.87645049233
2035.75,1058.6794764501
2036,1064.02631125055
2036.25,1070.31822285045
2036.5,1076.95655105557
2036.75,1083.37817183806
2037,1089.112820396
2037.25,1093.70521114564
2037.5,1096.7000585032
2037.75,1097.70084372816
2038,1096.69324509502
2038.25,1093.81577912112
2038.5,1089.20736547529
2038.75,1083.02688666003
2039,1076.01409211491
2039.25,1069.56653913956
2039.5,1065.117210731
2039.75,1064.09831644525
2040,1067.11763049265
2040.25,1072.39238991026
2040.5,1077.70901747702
2040.75,1080.85393597182
2041,1080.05838755577
2041.25,1076.33963354472
2041.5,1071.79127354123
2041.75,1068.5092173734
2042,1068.51108451543
2042.25,1072.23303665366
2042.5,1078.64275478195
2042.75,1086.65226387879
2043,1095.17433855196
2043.25,1103.20693624445
2043.5,1109.91056212182
2043.75,1114.46399993061
2044,1116.04603341734
2044.25,1114.06629591305
2044.5,1109.2439143687
2044.75,1102.75918122861
2045,1095.79290380326
2045.25,1089.51476213196
2045.5,1084.70991013825
2045.75,1081.69013250498
2046,1080.73807700413
2046.25,1082.13635344314
2046.5,1085.86155762265
2046.75,1090.84407243351
2047,1095.79088686222
2047.25,1099.40898989527
2047.5,1100.56822105859
2047.75,1099.68316142368
2048,1098.02117849639
2048.25,1096.85859386012
2048.5,1097.46009135402
2048.75,1100.34565749152
2049,1104.85347665869
2049.25,1110.21678677592
2049.5,1115.66882576364
2049.75,1120.45587327765
2050,1123.88734339026
2050.25,1125.29172873287
2050.5,1123.99752599395
2050.75,1119.3727943772
2051,1111.8244379861
2051.25,1102.87530732473
2051.5,1094.10326049394
2051.75,1087.08615559455
2052,1083.07480480481
2052.25,1081.9498972091
2052.5,1083.2333800777
2052.75,1086.44719942502
2053,1091.10017638554
2053.25,1096.53062303848
2053.5,1101.95768488052
2053.75,1106.59806598334
2054,1109.67442559442
2054.25,1110.93314775769
2054.5,1111.04607417887
2054.75,1110.77960599115
2055,1110.90014432769
2055.25,1112.05507045824
2055.5,1114.13756026088
2055.75,1116.74626842861
2056,1119.47917438291
2056.25,1121.93305877709
2056.5,1123.65935811744
2056.75,1124.15132285158
2057,1122.89838610752
2057.25,1119.3899810133
2057.5,1113.34396099714
2057.75,1105.63832986371
2058,1097.51851643732
2058.25,1090.23009560974
2058.5,1085.00044674709
2058.75,1082.50585862411
2059,1082.78592731837
2059.25,1085.84482099487
2059.5,1091.68644665048
2059.75,1099.93498429918
2060,1109.07541516312
2060.25,1117.37998210893
2060.5,1123.12092800323
2060.75,1124.78773900644
2061,1122.87367886561
2061.25,1118.95366508025
2061.5,1114.6131567245
2061.75,1111.43220385858
2062,1110.24149354878
2062.25,1110.36229580607
2062.5,1110.93467000819
2062.75,1111.09867553291
2063,1110.10410623145
2063.25,1108.04163333157
2063.5,1105.39082623816
2063.75,1102.63336147817
2064,1100.24591481305
2064.25,1098.42846909121
2064.5,1096.96504791297
2064.75,1095.60536143899
2065,1094.09911982997
2065.25,1092.33336151997
2065.5,1090.85139550267
2065.75,1090.39234806496
2066,1091.69537967634
2066.25,1095.44581720982
2066.5,1101.39962592711
2066.75,1108.52818945
2067,1115.77827436314
2067.25,1122.09787583514
2067.5,1126.72078625373
2067.75,1129.53136572074
2068,1130.50403764649
2068.25,1129.61322544131
2068.5,1126.88165638106
2068.75,1122.81555038643
2069,1118.19960211565
2069.25,1113.82185200584
2069.5,1110.46919516976
2069.75,1108.66223934308
2070,1108.31550368481
2070.25,1109.25961240531
2070.5,1111.32518971491
2070.75,1114.31907161544
2071,1117.84029894613
2071.25,1121.38060154873
2071.5,1124.43081284547
2071.75,1126.48693732568
2072,1127.44205071095
2072.25,1127.86059294138
2072.5,1128.37182295317
2072.75,1129.60499968251
2073,1132.05648491222
2073.25,1135.23079383819
2073.5,1138.1840873105
2073.75,1139.97032844904
2074,1139.65022103789
2074.25,1136.91807786722
2074.5,1132.61132352071
2074.75,1127.68728457281
2075,1123.10328759801
2075.25,1119.75280608326
2075.5,1117.90785043116
2075.75,1117.49027986317
2076,1118.41802715667
2076.25,1120.60834199757
2076.5,1123.875634923
2076.75,1127.82268904336
2077,1132.02622557723
2077.25,1136.06296574317
2077.5,1139.53301162608
2077.75,1142.24062019376
2078,1144.09544464416
2078.25,1145.0080175544
2078.5,1144.88946571249
2078.75,1143.7752078185
2079,1141.97715333429
2079.25,1139.84449583772
2079.5,1137.72642890664
2079.75,1135.95361584298
2080,1134.60134144593
2080.25,1133.55892596706
2080.5,1132.71148150322
2080.75,1131.944139105
2081,1131.20191765999
2081.25,1130.62243886358
2081.5,1130.38196734472
2081.75,1130.65676773235
2082,1131.61121285859
2082.25,1133.18643578109
2082.5,1135.12513163137
2082.75,1137.16308569089
2083,1139.0360833173
2083.25,1140.48850242821
2083.5,1141.29698028061
2083.75,1141.24572327756
2084,1140.11893782212
2084.25,1137.71274989775
2084.5,1134.14809378335
2084.75,1129.90162812856
2085,1125.46813040628
2085.25,1121.34237808944
2085.5,1117.97563752802
2085.75,1115.59032472097
2086,1114.33388219952
2086.25,1114.35370912344
2086.5,1115.78845848731
2086.75,1118.48241121068
2087,1121.92193464551
2087.25,1125.57178930845
2087.5,1128.89673571614
2087.75,1131.43805546998
2088,1133.07680253799
2088.25,1133.78830274462
2088.5,1133.54788549459
2088.75,1132.33700649957
2089,1130.31829315087
2089.25,1127.86121633141
2089.5,1125.34653587441
2089.75,1123.15501161313
2090,1121.61724685849
2090.25,1120.80644162309
2090.5,1120.71344895442
2090.75,1121.32908508683
2091,1122.6407718563
2091.25,1124.52173565884
2091.5,1126.70638706624
2091.75,1128.92075926286
2092,1130.89088543309
2092.25,1132.40424176834
2092.5,1133.54506707711
2092.75,1134.48707740149
2093,1135.40400717633
2093.25,1136.46341332503
2093.5,1137.61057464413
2093.75,1138.51195680075
2094,1138.81635861772
2094.25,1138.17257891785
2094.5,1136.33296998037
2094.75,1133.66525104477
2095,1130.76355481929
2095.25,1128.22236559073
2095.5,1126.63173041236
2095.75,1126.28207376341
2096,1126.97911586627
2096.25,1128.48441699155
2096.5,1130.55953740984
2096.75,1132.98419189333
2097,1135.66829957732
2097.25,1138.5786199808
2097.5,1141.68214977559
2097.75,1144.94419169896
2098,1148.1820682958
2098.25,1150.95216344184
2098.5,1152.78427093475
2098.75,1153.20818457217
2099,1151.81827108936
2099.25,1148.8540166931
2099.5,1144.92592730378
2099.75,1140.64894626464
2100,1136.63794756731
2100.25,1133.40900680483
2100.5,1131.18242616324
2100.75,1130.1233954333
2101,1130.39710440572
2101.25,1132.15034216658
2101.5,1135.19086715292
2101.75,1139.02847507856
2102,1143.1628174898
2102.25,1147.09354686588
2102.5,1150.38111398296
2102.75,1152.8112773364
2103,1154.22197534504
2103.25,1154.45114642776
2103.5,1153.34564115071
2103.75,1151.03279212793
2104,1147.97014254508
2104.25,1144.63417657386
2104.5,1141.50137838601
2104.75,1139.01328205557
2105,1137.37024997946
2105.25,1136.67090829836
2105.5,1137.01352477986
2105.75,1138.49524959567
2106,1141.08759577263
2106.25,1144.52306641178
2106.5,1148.50738855404
2106.75,1152.74628924034
2107,1156.94757095539
2107.25,1160.84005050437
2107.5,1164.16475714779
2107.75,1166.66287097223
2108,1168.07561857464
2108.25,1168.2277234402
2108.5,1167.19970378143
2108.75,1165.12089509922
2109,1162.12063289445
2109.25,1158.33442058413
2109.5,1154.11436189821
2109.75,1150.08121289499
2110,1146.87245954951
2110.25,1145.12558783679
2110.5,1145.38389565085
2110.75,1147.4422972148
2111,1150.73867267369
2111.25,1154.70869956403
2111.5,1158.78862944966
2111.75,1162.54013598476
2112,1165.80657954928
2112.25,1168.46972350265
2112.5,1170.41133120433
2112.75,1171.51905105052
2113,1171.78177706378
2113.25,1171.27369107082
2113.5,1170.07163890908
2113.75,1168.25246641603
2114,1165.91054981563
2114.25,1163.24055170296
2114.5,1160.47273667864
2114.75,1157.83741170136
2115,1155.56462690764
2115.25,1153.83616204531
2115.5,1152.72898488373
2115.75,1152.30631815011
2116,1152.6313845717
2116.25,1153.76570258875
2116.5,1155.74379046613
2116.75,1158.57858731307
2117,1162.28242925547
2117.25,1166.86765241925
2117.5,1172.21461568536
2117.75,1177.63249688055
2118,1182.27598829268
2118.25,1185.29977962403
2118.5,1185.86801318233
2118.75,1183.84316908836
2119,1180.25318930947
2119.25,1176.23664605268
2119.5,1172.93211152503
2119.75,1171.42542901811
2120,1171.88045568849
2120.25,1173.67646217221
2120.5,1176.16769463669
2120.75,1178.70839924937
2121,1180.7490096268
2121.25,1182.30371976533
2121.5,1183.59148356668
2121.75,1184.8315446082
2122,1186.24284891067
2122.25,1187.92806738453
2122.5,1189.69757664718
2122.75,1191.31655054486
2123,1192.55016292381
2123.25,1193.16568474992
2123.5,1193.00561536157
2123.75,1192.00668389356
2124,1190.11157740854
2124.25,1187.26298296916
2124.5,1183.42891661673
2124.75,1178.89999986839
2125,1174.18918670002
2125.25,1169.81383019486
2125.5,1166.29128343607
2125.75,1164.03005924558
2126,1162.8461860311
2126.25,1162.35506367787
2126.5,1162.171932033
2126.75,1161.91253852423
2127,1161.26510318099
2127.25,1160.06497536018
2127.5,1158.1653339685
2127.75,1155.41935791266
2128,1151.69954643933
2128.25,1147.18422212927
2128.5,1142.29599414943
2128.75,1137.46428959455
2129,1133.11853555942
2129.25,1129.54722543417
2129.5,1126.42192390771
2129.75,1123.24543369935
2130,1119.52055334158
2130.25,1114.7691102345
2130.5,1109.11027324261
2130.75,1103.365581967
2131,1098.39678363658
2131.25,1095.06562548018
2131.5,1094.00711732353
2131.75,1094.86385946047
2132,1097.0070093233
2132.25,1099.80771763622
2132.5,1102.64073223563
2132.75,1104.93681096332
2133,1106.17097467857
2133.25,1105.81945107572
2133.5,1103.36074202058
2133.75,1098.85351832052
2134,1093.70270877453
2134.25,1089.50371207931
2134.5,1087.8519269315
2134.75,1089.92382558804
2135,1093.48378901236
2135.25,1094.63386294508
2135.5,1089.46493937318
2135.75,1074.29165966866
2136,1053.26521454874
2136.25,1040.24453129507
2136.5,1049.69191104985
2136.75,1096.06129258981
2137,1179.02869147037
2137.25,1253.0657335981
2137.5,1264.03042884339
2137.75,1157.78078707648
2138,893.695412994854
2138.25,902.02536632057
2138.5,910.355319646287
2138.75,918.685272972003
2139,927.01522629772
2139.25,935.345179623436
2139.5,943.675132949153
2139.75,952.00508627487
2140,960.335039600586
2140.25,968.664992926303
2140.5,976.994946252019
2140.75,985.324899577736
2141,993.654852903452
2141.25,1001.98480622917
2141.5,1010.31475955489
2141.75,1018.6447128806
2142,1026.97466620632
2142.25,1035.30461953204
2142.5,1043.63457285775
2142.75,1051.96452618347
2143,1060.29447950918
2143.25,1068.6244328349
2143.5,1076.95438616062
2143.75,1085.28433948633
2144,1093.61429281205
2144.25,1101.94424613777
2144.5,1110.27419946348
2144.75,1118.6041527892
2145,1117.06278297821
2145.25,1114.88548840372
2145.5,1113.2154794979
2145.75,1113.08659080977
2146,1114.51527488071
2146.25,1116.96505993572
2146.5,1119.89396153497
2146.75,1122.76241861968
2147,1125.25607199261
2147.25,1127.46542533029
2147.5,1129.52326072933
2147.75,1131.56236028631
2148,1133.66222313148
2148.25,1135.49604616873
2148.5,1136.54990829122
2148.75,1136.30889286681
2149,1134.26234732199
2149.25,1130.35774370155
2149.5,1125.40277914017
2149.75,1120.29998605046
2150,1115.951896845
2150.25,1113.19239385612
2150.5,1112.19932723639
2150.75,1112.78623792176
2151,1114.76276751709
2151.25,1117.93732019672
2151.5,1121.98540240272
2151.75,1126.33300456597
2152,1130.37861301469
2152.25,1133.52071407717
2152.5,1135.23448980704
2152.75,1135.57230319688
2153,1134.84931831525
2153.25,1133.38202945795
2153.5,1131.48636899017
2153.75,1129.41561139023
2154,1127.30410940357
2154.25,1125.27293113281
2154.5,1123.44314468057
2154.75,1121.93050440548
2155,1120.80136471681
2155.25,1120.09524400117
2155.5,1119.85139348052
2155.75,1120.10896114718
2156,1120.89304305961
2156.25,1122.20056155027
2156.5,1124.02507526623
2156.75,1126.36014285459
2157,1129.17444454915
2157.25,1132.22612757615
2157.5,1135.16742934415
2157.75,1137.64978368414
2158,1139.32596290855
2158.25,1140.00993519752
2158.5,1139.82832694269
2158.75,1138.94363007247
2159,1137.51833651531
2159.25,1135.71068440651
2159.5,1133.6341411375
2159.75,1131.37536693608
2160,1129.02065993556
2160.25,1126.65647718665
2160.5,1124.44478824009
2160.75,1122.74363768731
2161,1121.94248289381
2161.25,1122.4307812251
2161.5,1124.55273566355
2161.75,1128.06889890105
2162,1132.33400468718
2162.25,1136.69457756283
2162.5,1140.49747654008
2162.75,1143.2483760122
2163,1144.86528141472
2163.25,1145.33224863537
2163.5,1144.63333356189
2163.75,1142.76697649341
2164,1139.95872392495
2164.25,1136.61522766655
2164.5,1133.14817576327
2164.75,1129.96925619174
2165,1127.43081055966
2165.25,1125.65522165351
2165.5,1124.70918148773
2165.75,1124.65938207676
2166,1125.56053406383
2166.25,1127.1792438721
2166.5,1128.98687415585
2166.75,1130.4413780202
2167,1131.00070857022
2167.25,1130.25403291143
2167.5,1128.33032716653
2167.75,1125.49736385501
2168,1122.02291560718
2168.25,1118.17094523365
2168.5,1114.10237869991
2168.75,1109.86573828046
2169,1105.50385861371
2169.25,1101.05957433814
2169.5,1096.58091367052
2169.75,1092.1375263893
2170,1087.80468804286
2170.25,1083.6576741924
2170.5,1079.77220178788
2170.75,1076.23106700584
2171,1073.12276911857
2171.25,1070.5359695236
2171.5,1068.5585755396
2171.75,1067.19137744401
2172,1066.26814650452
2172.25,1065.60376470773
2172.5,1065.01311404022
2172.75,1064.34823324897
2173,1063.61958152421
2173.25,1062.87983071805
2173.5,1062.18165306368
2173.75,1061.5681520411
2174,1060.98986149985
2174.25,1060.34540677034
2174.5,1059.53283989194
2174.75,1058.45406519481
2175,1057.11304648599
2175.25,1055.62389499817
2175.5,1054.10619479449
2175.75,1052.67983053034
2176,1051.50720762039
2176.25,1050.83684629916
2176.5,1050.92767245748
2176.75,1052.03861062442
2177,1054.3058237174
2177.25,1057.40688813749
2177.5,1060.91231884594
2177.75,1064.39263080403
2178,1067.4435850535
2178.25,1069.83889238595
2178.5,1071.42876346614
2178.75,1072.06370524579
2179,1071.61250933661
2179.25,1070.27320139155
2179.5,1068.52911315267
2179.75,1066.87301891199
2180,1065.79667861274
2180.25,1065.68739329577
2180.5,1066.73874445153
2180.75,1069.12328306968
2181,1073.01356013567
2181.25,1078.4050270505
2181.5,1084.59084410804
2181.75,1090.6901124929
2182,1095.82193338974
2182.25,1099.19066657402
2182.5,1100.84808703077
2182.75,1101.33137902436
2183,1101.183460361
2183.25,1100.94390645896
2183.5,1100.9358581702
2183.75,1101.13751147329
2184,1101.49625440076
2184.25,1101.95947498512
2184.5,1102.48431000009
2184.75,1103.07767159966
2185,1103.76231691881
2185.25,1104.56100978252
2185.5,1105.49976412545
2185.75,1106.67563404447
2186,1108.25471060717
2186.25,1110.40593424979
2186.5,1113.29817915531
2186.75,1116.98635751599
2187,1121.17768874885
2187.25,1125.51331858673
2187.5,1129.63439276243
2187.75,1133.19376944964
2188,1135.99509806553
2188.25,1137.94674490554
2188.5,1138.95918802904
2188.75,1138.94295184251
2189,1137.8505946223
2189.25,1135.7542159319
2189.5,1132.74702360812
2189.75,1128.92222548775
2190,1124.41854216882
2190.25,1120.17976337406
2190.5,1117.83971550929
2190.75,1119.05455966931
2191,1125.48028104031
2191.25,1137.23957735582
2191.5,1149.19089630838
2191.75,1148.38348563692
2192,1147.57607496546
2192.25,1146.768664294
2192.5,1145.96125362254
2192.75,1145.15384295109
2193,1144.34643227963
2193.25,1143.53902160817
2193.5,1142.73161093671
2193.75,1141.92420026525
2194,1141.11678959379
2194.25,1140.30937892233
2194.5,1139.50196825087
2194.75,1138.69455757942
2195,1137.88714690796
2195.25,1137.0797362365
2195.5,1136.27232556504
2195.75,1135.46491489358
2196,1134.65750422212
2196.25,1133.85009355066
2196.5,1133.0426828792
2196.75,1132.23527220775
2197,1131.42786153629
2197.25,1130.62045086483
2197.5,1129.81304019337
2197.75,1129.00562952191
2198,1128.19821885045
2198.25,1124.82271252043
2198.5,1122.62373443695
2198.75,1120.30083926577
2199,1116.56667160204
2199.25,1110.97973544838
2199.5,1104.44561845107
2199.75,1097.99009878021
2200,1092.6389546059
2200.25,1089.27741840644
2200.5,1087.9072609319
2200.75,1088.18780243562
2201,1089.77761281455
2201.25,1092.33242644047
2201.5,1095.43732809226
2201.75,1098.6035962362
2202,1101.33904209122
2202.25,1103.15171948024
2202.5,1103.7492337081
2202.75,1103.39974910608
2203,1102.46913121172
2203.25,1101.32324556258
2203.5,1100.29901441052
2203.75,1099.44204976105
2204,1098.62945458557
2204.25,1097.73628020114
2204.5,1096.63976294666
2204.75,1095.38176310061
2205,1094.28071499075
2205.25,1093.68153502667
2205.5,1093.92913961798
2205.75,1095.2916337806
2206,1097.64060212207
2206.25,1100.72005135996
2206.5,1104.27392739949
2206.75,1108.05341215867
2207,1111.94897623349
2207.25,1115.97678655732
2207.5,1120.15751862038
2207.75,1124.51167643216
2208,1128.90547269622
2208.25,1132.76675891432
2208.5,1135.44606239431
2208.75,1136.29391044404
2209,1134.72697582718
2209.25,1131.07949596392
2209.5,1126.3568703362
2209.75,1121.57984771984
2210,1117.7690891725
2210.25,1115.69113577506
2210.5,1115.30081008822
2210.75,1116.39120791468
2211,1118.75542505714
2211.25,1122.17497139768
2211.5,1126.26032557095
2211.75,1130.491486832
2212,1134.34516555471
2212.25,1137.29832995287
2212.5,1139.02127613619
2212.75,1139.72083374623
2213,1139.69615182558
2213.25,1139.24637941685
2213.5,1138.65445971282
2213.75,1137.93561919235
2214,1136.88527829653
2214.25,1135.29235069468
2214.5,1132.94575114601
2214.75,1129.79053132848
2215,1126.36084730493
2215.25,1123.32976786091
2215.5,1121.37036178202
2215.75,1121.12723288912
2216,1122.55021237196
2216.25,1124.87133547296
2216.5,1127.28956627235
2216.75,1129.00386886019
2217,1129.43972141007
2217.25,1128.91913122747
2217.5,1127.98588109201
2217.75,1127.18375378331
2218,1127.03455932916
2218.25,1127.52390058524
2218.5,1128.08346242659
2218.75,1128.11941364208
2219,1127.03792302056
2219.25,1124.45059674692
2219.5,1120.84276021735
2219.75,1116.93197230567
2220,1113.43579375113
2220.25,1111.05627260196
2220.5,1110.08613407856
2220.75,1110.37727737292
2221,1111.75977748536
2221.25,1114.06370897288
2221.5,1117.0829947715
2221.75,1120.47683081723
2222,1123.87303457729
2222.25,1126.8994235189
2222.5,1129.19821462942
2222.75,1130.65734051862
2223,1131.37066302095
2223.25,1131.43840829807
2223.5,1130.96080287605
2223.75,1130.04055999592
2224,1128.7888150499
2224.25,1127.31848472567
2224.5,1125.74248571092
2224.75,1124.17829582619
2225,1122.83420487924
2225.25,1122.002112909
2225.5,1121.97703765281
2225.75,1123.05399298317
2226,1125.39457810662
2226.25,1128.67507046488
2226.5,1132.46142470935
2226.75,1136.31959549145
2227,1139.82644937717
2227.25,1142.76856978927
2227.5,1145.12161360022
2227.75,1146.86800701343
2228,1147.99017623229
2228.25,1148.45458219874
2228.5,1148.16142893047
2228.75,1146.99373494291
2229,1144.83451872082
2229.25,1141.57436351467
2229.5,1137.40546353534
2229.75,1132.91622946118
2230,1128.72200041977
2230.25,1125.43811553873
2230.5,1123.60422946293
2230.75,1123.24143184837
2231,1124.15344409263
2231.25,1126.14324650108
2231.5,1129.01264045487
2231.75,1132.48757411234
2232,1136.17338200633
2232.25,1139.66465954073
2232.5,1142.55600211944
2232.75,1144.48919708727
2233,1145.44188636423
2233.25,1145.53733057293
2233.5,1144.89937827795
2233.75,1143.65213475581
2234,1141.95414678558
2234.25,1140.03275100294
2234.5,1138.12345924993
2234.75,1136.46178336855
2235,1135.27183871756
2235.25,1134.64389118605
2235.5,1134.58119939239
2235.75,1135.08554222215
2236,1136.15866594108
2236.25,1137.77584687797
2236.5,1139.83813458312
2236.75,1142.23366534953
2237,1144.85057547019
2237.25,1147.57629642618
2237.5,1150.28663661687
2237.75,1152.84787201878
2238,1155.12599708889
2238.25,1156.98700628423
2238.5,1158.30385820013
2238.75,1158.97805261756
2239,1158.91839995761
2239.25,1158.03371064513
2239.5,1156.23856521037
2239.75,1153.72821120155
2240,1151.09892499395
2240.25,1148.97779058808
2240.5,1147.99189198442
2240.75,1148.68712354327
2241,1150.86859981088
2241.25,1153.94504554407
2241.5,1157.32143554648
2241.75,1160.40308240908
2242,1162.76341308118
2242.25,1164.41558244986
2242.5,1165.44375347744
2242.75,1165.9320891262
2243,1165.95962336634
2243.25,1165.48960416865
2243.5,1164.37069226554
2243.75,1162.44665915767
2244,1159.56127634569
2244.25,1155.62111815781
2244.5,1150.94161185597
2244.75,1146.00183096826
2245,1141.28128293542
2245.25,1137.25914263954
2245.5,1134.34757227528
2245.75,1132.81089838055
2246,1132.89370193756
2246.25,1134.84056392854
2246.5,1138.83305093941
2246.75,1144.27992548668
2247,1150.07155825329
2247.25,1155.08874487421
2247.5,1158.21267126413
2247.75,1158.74363731289
2248,1157.19825744429
2248.25,1154.31254465736
2248.5,1150.82251195118
2248.75,1147.44655130018
2249,1144.44837026649
2249.25,1141.60772601355
2249.5,1138.68089434233
2249.75,1135.42415105377
2250,1131.72663856259
2250.25,1128.24128036474
2250.5,1125.89338787266
2250.75,1125.60860833108
2251,1128.29615297008
2251.25,1133.9256797172
2251.5,1141.03672418891
2251.75,1148.0488110959
2252,1153.38146514886
2252.25,1155.7048831515
2252.5,1155.36193063772
2252.75,1153.38011963549
2253,1150.78901919206
2253.25,1148.6156118314
2253.5,1147.43665591644
2253.75,1146.86877689291
2254,1146.40529845612
2254.25,1145.53954430138
2254.5,1143.80971409523
2254.75,1141.37458160691
2255,1138.84587439504
2255.25,1136.84562665574
2255.5,1135.9958593172
2255.75,1136.68901692727
2256,1138.50342950625
2256.25,1140.83704979867
2256.5,1143.08783054908
2256.75,1144.67119258105
2257,1145.41151632226
2257.25,1145.54617873172
2257.5,1145.33083225739
2257.75,1145.02112934723
2258,1144.80119488748
2258.25,1144.49139537741
2258.5,1143.7967487842
2258.75,1142.42222653148
2259,1140.07833584848
2259.25,1136.79171679965
2259.5,1133.07002178943
2259.75,1129.46124705071
2260,1126.51338881638
2260.25,1124.72752162665
2260.5,1124.23027536539
2260.75,1124.96898143561
2261,1126.88984840856
2261.25,1129.93641252526
2261.5,1133.79034304074
2261.75,1137.65483631363
2262,1140.68209691806
2262.25,1142.02432942815
2262.5,1140.97441206745
2262.75,1138.02406347931
2263,1134.27161594908
2263.25,1130.82010549645
2263.5,1128.77047000151
2263.75,1128.70513310502
2264,1130.01116305895
2264.25,1131.90775158766
2264.5,1133.61409041549
2264.75,1134.40562713709
2265,1134.19841624458
2265.25,1133.31554684311
2265.5,1132.08661615954
2265.75,1130.84115354052
2266,1129.86970241752
2266.25,1129.35858654773
2266.5,1129.47690009656
2266.75,1130.39373722939
2267,1132.25550590788
2267.25,1134.88530924945
2267.5,1137.86537831972
2267.75,1140.77219355788
2268,1143.18229598598
2268.25,1144.78492679596
2268.5,1145.61575302831
2268.75,1145.77678662695
2269,1145.37003953581
2269.25,1144.49568623634
2269.5,1143.21473470954
2269.75,1141.55067248569
2270,1139.52547903279
2270.25,1137.16113381885
2270.5,1134.55385574076
2270.75,1132.15932284589
2271,1130.54185862964
2271.25,1130.26580975701
2271.5,1131.88214254205
2271.75,1135.38449165148
2272,1140.02022904045
2272.25,1144.98454782648
2272.5,1149.47264112705
2272.75,1152.74130040585
2273,1154.41886398931
2273.25,1154.27229028643
2273.5,1152.06877478303
2273.75,1147.57970786102
2274,1141.01789472613
2274.25,1133.41996724136
2274.5,1125.91270042884
2274.75,1119.62286931064
2275,1115.60709696118
2275.25,1114.11206582113
2275.5,1114.86455144573
2275.75,1117.58278191436
2276,1121.98479549811
2276.25,1127.7465814794
2276.5,1134.44940764092
2276.75,1141.6615839386
2277,1148.95142032844
2277.25,1155.87076482798
2277.5,1161.80879950493
2277.75,1166.06195596324
2278,1167.92558584298
2278.25,1166.69546481332
2278.5,1162.11650782233
2278.75,1155.23499836714
2279,1147.33156695184
2279.25,1139.68684408054
2279.5,1133.56055449907
2279.75,1129.56544609929
2280,1127.55881270765
2280.25,1127.35518340638
2280.5,1128.76908727768
2280.75,1131.60736218776
2281,1135.63481955988
2281.25,1140.6019881886
2281.5,1146.25938509496
2281.75,1152.35455422513
2282,1158.50509054672
2282.25,1164.15096191336
2282.5,1168.71933452025
2282.75,1171.63737456264
2283,1172.40651375784
2283.25,1171.11238506635
2283.5,1168.11695666808
2283.75,1163.7838427823
2284,1158.47668894633
2284.25,1152.61027454424
2284.5,1146.75459177775
2284.75,1141.50897301248
2285,1137.47275061408
2285.25,1135.22942624226
2285.5,1134.91221428492
2285.75,1136.15022074951
2286,1138.54591368245
2286.25,1141.70176113016
2286.5,1145.2538148725
2286.75,1149.01284851617
2287,1152.84627639254
2287.25,1156.62154215238
2287.5,1160.2043341761
2287.75,1163.36321137007
2288,1165.72070964786
2288.25,1166.88731847979
2288.5,1166.47352733621
2288.75,1164.16079358098
2289,1160.34110038865
2289.25,1155.8157496706
2289.5,1151.39096416831
2289.75,1147.87295034271
2290,1145.86180299836
2290.25,1145.23669606074
2290.5,1145.71927538753
2290.75,1147.03118683644
2291,1148.89656353955
2291.25,1151.11172522062
2291.5,1153.55463371025
2291.75,1156.10763820297
2292,1158.65308789337
2292.25,1161.06026886998
2292.5,1163.11877701272
2292.75,1164.58816214437
2293,1165.22791893841
2293.25,1164.79869149847
2293.5,1163.24225513401
2293.75,1160.8774182558
2294,1158.07005314654
2294.25,1155.1860320889
2294.5,1152.58281653843
2294.75,1150.47270904067
2295,1148.94548904059
2295.25,1148.08709314403
2295.5,1147.98345795686
2295.75,1148.6950789117
2296,1150.16380944079
2296.25,1152.29694601322
2296.5,1155.00178113175
2296.75,1158.18239824527
2297,1161.57941768264
2297.25,1164.69553272304
2297.5,1167.01467382514
2297.75,1168.02077144759
2298,1167.28069962305
2298.25,1165.13622556676
2298.5,1162.35173163909
2298.75,1159.69586316993
2299,1157.93722112885
2299.25,1157.56156550035
2299.5,1158.10053875552
2299.75,1158.88480406269
2300,1159.2450245902
2300.25,1158.53249408526
2300.5,1156.79360253232
2300.75,1154.92029436911
2301,1153.85559888538
2301.25,1154.54254537087
2301.5,1157.73100311266
2301.75,1162.69189590822
2302,1168.01263005723
2302.25,1172.27691962214
2302.5,1174.07059217191
2302.75,1172.66997056661
2303,1169.03257005136
2303.25,1164.36690162225
2303.5,1159.88147627532
2303.75,1156.74707104719
2304,1155.14614295922
2304.25,1154.20089225831
2304.5,1152.98137561225
2304.75,1150.55764968884
2305,1146.26378089138
2305.25,1141.14674454284
2305.5,1136.93700421709
2305.75,1135.36680387178
2306,1138.15843189726
2306.25,1145.7162032795
2306.5,1155.82138215542
2306.75,1165.94482713624
2307,1173.55739683311
2307.25,1176.36702885593
2307.5,1174.58888014711
2307.75,1169.94485575853
2308,1164.17743324181
2308.25,1159.02909014855
2308.5,1155.8217334521
2308.75,1154.1600843974
2309,1153.21066166335
2309.25,1152.13998379117
2309.5,1150.12692385705
2309.75,1146.97871691874
2310,1143.41665203837
2310.25,1140.23403898181
2310.5,1138.22418751498
2310.75,1138.07661422287
2311,1139.58701949813
2311.25,1142.09490829244
2311.5,1144.93613381949
2311.75,1147.44799647147
2312,1149.26989747301
2312.25,1150.71297078781
2312.5,1152.17888573521
2312.75,1154.06931163454
2313,1156.72973322676
2313.25,1159.70748905148
2313.5,1161.95655904087
2313.75,1162.41682806916
2314,1160.02818101059
2314.25,1154.18429507091
2314.5,1146.13110747971
2314.75,1137.58708183816
2315,1130.27068188936
2315.25,1125.88254347259
2315.5,1125.19251457205
2315.75,1127.60237420469
2316,1132.40453046664
2316.25,1138.89139145401
2316.5,1146.36278722661
2316.75,1154.166072652
2317,1161.6673396095
2317.25,1168.23272547442
2317.5,1173.23051731238
2317.75,1176.21692837952
2318,1177.07962242291
2318.25,1175.74004807937
2318.5,1172.11965398572
2318.75,1166.18647697763
2319,1158.61304947726
2319.25,1150.61803482401
2319.5,1143.43436651729
2319.75,1138.29497805646
2320,1136.21368159637
2320.25,1137.08010244085
2320.5,1140.42432935709
2320.75,1145.77629092483
2321,1152.6628808762
2321.25,1160.46476658364
2321.5,1168.35448402269
2321.75,1175.48866761007
2322,1181.02395176242
2322.25,1184.19809440733
2322.5,1184.91978670212
2322.75,1183.42882884276
2323,1179.9673569368
2323.25,1174.77751321877
2323.5,1168.23194969166
2323.75,1161.17000100306
2324,1154.53527319473
2324.25,1149.27137230845
2324.5,1146.31134112516
2324.75,1145.97278459294
2325,1147.62978764911
2325.25,1150.57647667631
2325.5,1154.1069780572
2325.75,1157.58569627811
2326,1160.98981122886
2326.25,1164.61248195665
2326.5,1168.74949281574
2326.75,1173.69614983474
2327,1179.43219490696
2327.25,1185.07678222456
2327.5,1189.603720317
2327.75,1191.98681771373
2328,1191.22907770924
2328.25,1187.25230430263
2328.5,1181.05999473701
2328.75,1173.71769182145
2329,1166.29093836496
2329.25,1159.78273086973
2329.5,1154.47645964194
2329.75,1150.19478706108
2330,1146.7528539379
2330.25,1143.96580120171
2330.5,1141.6984416996
2330.75,1140.00636453991
2331,1138.99095319156
2331.25,1138.75359112348
2331.5,1139.38459820043
2331.75,1140.6262237467
2332,1141.81100466844
2332.25,1142.24798305719
2332.5,1141.24620100448
2332.75,1138.29531675098
2333,1133.91855917574
2333.25,1129.00618464262
2333.5,1124.4488871863
2333.75,1121.12761108059
2334,1119.26619028106
2334.25,1118.0261476267
2334.5,1116.47230744544
2334.75,1113.66949406523
2335,1108.91770037348
2335.25,1103.09866390317
2335.5,1097.74621282459
2335.75,1094.39621198022
2336,1094.55600151065
2336.25,1098.4622618816
2336.5,1104.60084002411
2336.75,1111.32991925753
2337,1117.00768290291
2337.25,1120.34912103841
2337.5,1121.48932836774
2337.75,1120.91665402707
2338,1119.11944715257
2338.25,1116.58121291299
2338.5,1113.68987130679
2338.75,1110.74580123835
2339,1108.04615035837
2339.25,1105.88805497813
2339.5,1104.51094144318
2339.75,1103.96226905839
2340,1104.24963209321
2340.25,1105.38062481704
2340.5,1107.35471280227
2340.75,1110.06620593677
2341,1113.33614120133
2341.25,1116.98406544966
2341.5,1120.82950163695
2341.75,1124.68769252639
2342,1128.36469118158
2342.25,1131.66536118172
2342.5,1134.394566106
2342.75,1136.36831155178
2343,1137.50501619571
2343.25,1137.77822716662
2343.5,1137.16202379441
2343.75,1135.63105337237
2344,1133.29046938534
2344.25,1130.54172440441
2344.5,1127.82716831529
2344.75,1125.58915100366
2345,1124.24344963442
2345.25,1123.87723983783
2345.5,1124.35595406731
2345.75,1125.5408656406
2346,1127.29313321063
2346.25,1129.42254733843
2346.5,1131.60677736408
2346.75,1133.502542955
2347,1134.7665637786
2347.25,1135.08825178824
2347.5,1134.57345237676
2347.75,1133.6150292094
2348,1132.61152601921
2348.25,1131.96134329198
2348.5,1131.88216839693
2348.75,1132.0576502952
2349,1132.07326384615
2349.25,1131.51448390913
2349.5,1130.00322973693
2349.75,1127.76738851657
2350,1125.53442965126
2350.25,1124.04674089668
2350.5,1124.04667393858
2350.75,1125.94092075974
2351,1128.97977639578
2351.25,1132.16469095336
2351.5,1134.49711453917
2351.75,1135.02807767674
2352,1133.70485700806
2352.25,1131.25326483057
2352.5,1128.4250053641
2352.75,1125.97178230511
2353,1124.44424334654
2353.25,1123.62176317498
2353.5,1123.09880113001
2353.75,1122.4698165512
2354,1121.34434281803
2354.25,1119.66291127472
2354.5,1117.68855444235
2354.75,1115.69767916408
2355,1113.96669173467
2355.25,1112.71693885934
2355.5,1111.96358053916
2355.75,1111.67352156569
2356,1111.81366673055
2356.25,1112.35177678263
2356.5,1113.27031730703
2356.75,1114.56412995184
2357,1116.2284422234
2357.25,1118.25831171511
2357.5,1120.50505553546
2357.75,1122.41475761678
2358,1123.36260394049
2358.25,1122.72378048804
2358.5,1119.98074939796
2358.75,1115.96120563918
2359,1112.4097346364
2359.25,1111.08856355493
2359.5,1113.75572888021
2359.75,1120.5380415948
2360,1127.46445584457
2360.25,1126.99489501047
2360.5,1126.52533417638
2360.75,1126.05577334228
2361,1125.58621250818
2361.25,1125.11665167409
2361.5,1124.64709083999
2361.75,1124.1775300059
2362,1123.7079691718
2362.25,1123.2384083377
2362.5,1122.76884750361
2362.75,1122.29928666951
2363,1121.82972583541
2363.25,1121.36016500132
2363.5,1120.89060416722
2363.75,1120.42104333312
2364,1119.95148249903
2364.25,1119.48192166493
2364.5,1119.01236083083
2364.75,1118.54279999674
2365,1118.07323916264
2365.25,1117.60367832854
2365.5,1117.13411749445
2365.75,1116.66455666035
2366,1116.19499582625
2366.25,1115.72543499216
2366.5,1115.25587415806
2366.75,1116.04222808651
2367,1118.80228623931
2367.25,1122.25573634296
2367.5,1125.22347419124
2367.75,1127.33958712213
2368,1128.62981171124
2368.25,1129.12239507866
2368.5,1128.84612141883
2368.75,1127.87799174891
2369,1126.38076437556
2369.25,1124.5260323422
2369.5,1122.48538869231
2369.75,1120.42777799702
2370,1118.50030159668
2370.25,1116.83930628461
2370.5,1115.58106366546
2370.75,1114.86118072631
2371,1114.75349898958
2371.25,1115.22081753974
2371.5,1116.21433944075
2371.75,1117.68526775654
2372,1119.55792711274
2372.25,1121.56925676446
2372.5,1123.37642263769
2372.75,1124.63629632736
2373,1125.0096342686
2373.25,1124.36990784537
2373.5,1122.90908568937
2373.75,1120.84526438277
2374,1118.39654050772
2374.25,1115.76522584963
2374.5,1113.05288252589
2374.75,1110.32146813806
2375,1107.63284579313
2375.25,1105.04952669073
2375.5,1102.66349979572
2375.75,1100.60772716042
2376,1099.01819642188
2376.25,1098.03089521716
2376.5,1097.71643810481
2376.75,1097.84189943657
2377,1098.08631927259
2377.25,1098.12872836155
2377.5,1097.66012242429
2377.75,1096.58373191911
2378,1094.98500980127
2378.25,1092.95532777675
2378.5,1090.58616868854
2378.75,1088.00684408761
2379,1085.43946463783
2379.25,1083.12011136679
2379.5,1081.2848653021
2379.75,1080.10950165457
2380,1079.32755385151
2380.25,1078.4756855159
2380.5,1077.0896600866
2380.75,1074.72715464583
2381,1071.5047877411
2381.25,1068.13045297035
2381.5,1065.34043070366
2381.75,1063.87003372801
2382,1064.16326627717
2382.25,1065.9656774047
2382.5,1068.92030474509
2382.75,1072.67018593283
2383,1076.80442020653
2383.25,1080.63632136143
2383.5,1083.39129316999
2383.75,1084.29470169816
2384,1082.64924331369
2384.25,1078.80144042919
2384.5,1073.84710019783
2384.75,1068.89841462483
2385,1065.06068903747
2385.25,1062.86314886279
2385.5,1061.8331927346
2385.75,1061.39792216178
2386,1060.98444221998
2386.25,1060.22621440952
2386.5,1059.51900012075
2386.75,1059.43454413469
2387,1060.54459123233
2387.25,1063.29517191632
2387.5,1067.14936111353
2387.75,1071.10767994601
2388,1074.16795273208
2388.25,1075.36840171319
2388.5,1074.52748239188
2388.75,1072.16915170179
2389,1068.84277062064
2389.25,1065.09718368276
2389.5,1061.41105537689
2389.75,1058.12240454329
2390,1055.55246727035
2390.25,1054.02247964644
2390.5,1053.76076257276
2390.75,1054.59455794325
2391,1056.2429103843
2391.25,1058.42486288092
2391.5,1060.87497458122
2391.75,1063.45903110132
2392,1066.10879934984
2392.25,1068.75654592667
2392.5,1071.32864507838
2392.75,1073.62934426033
2393,1075.34777365006
2393.25,1076.16857451012
2393.5,1075.77815044856
2393.75,1074.09249847598
2394,1071.48259605737
2394.25,1068.37298434195
2394.5,1065.18820447895
2394.75,1062.32234141179
2395,1060.02299784185
2395.25,1058.49379265677
2395.5,1057.93833625961
2395.75,1058.52582319023
2396,1060.04235990903
2396.25,1062.03473751665
2396.5,1064.04609633919
2396.75,1065.63286541356
2397,1066.74966329458
2397.25,1067.80871274256
2397.5,1069.24748026357
2397.75,1071.50189451064
2398,1074.61938654751
2398.25,1077.74770158861
2398.5,1079.90758428741
2398.75,1080.11977929735
2399,1077.67249817904
2399.25,1073.28845381692
2399.5,1068.16923581173
2399.75,1063.51676792368
2400,1060.4703106669
2400.25,1059.16447355244
2400.5,1058.92470430342
2400.75,1059.05346006713
2401,1058.86020509255
2401.25,1058.07040241859
2401.5,1057.05178030713
2401.75,1056.22702066014
2402,1056.01867986833
2402.25,1056.67729043574
2402.5,1057.94047983602
2402.75,1059.45070703659
2403,1060.85043100485
2403.25,1061.80167466751
2403.5,1062.08076222401
2403.75,1061.50540861111
2404,1059.89338604629
2404.25,1057.09909221182
2404.5,1053.46316880531
2404.75,1049.67129132941
2405,1046.41647258021
2405.25,1044.37994739012
2405.5,1043.77092919248
2405.75,1044.17714315817
2406,1045.14393217383
2406.25,1046.21777762809
2406.5,1047.14630926387
2406.75,1048.10764137297
2407,1049.33540050072
2407.25,1051.06320966749
2407.5,1053.39405358609
2407.75,1055.95460788142
2408,1058.26302528865
2408.25,1059.83745854296
2408.5,1060.26493522116
2408.75,1059.59968201188
2409,1058.09000902621
2409.25,1055.98485768131
2409.5,1053.53412850559
2409.75,1051.00284149398
2410,1048.66806155046
2410.25,1046.80718779898
2410.5,1045.69470834676
2410.75,1045.46629810643
2411,1046.06088555009
2411.25,1047.40245780849
2411.5,1049.41494329716
2411.75,1052.00664244757
2412,1055.04927879985
2412.25,1058.409350655
2412.5,1061.95335631408
2412.75,1065.42244587502
2413,1068.03645561871
2413.25,1068.87971683287
2413.5,1067.03656051971
2413.75,1061.84528335048
2414,1054.93739905216
2414.25,1049.161214562
2414.5,1047.37621939481
2414.75,1052.31368306795
2415,1063.37931525446
2415.25,1076.42959064643
2415.5,1087.14796948157
2415.75,1091.24619065783
2416,1087.04558347812
2416.25,1077.54880148319
2416.5,1066.24602179252
2416.75,1056.62742152553
2417,1051.54876345549
2417.25,1050.58847481393
2417.5,1052.26979612934
2417.75,1055.11546110361
2418,1057.72145767464
2418.25,1059.46402483251
2418.5,1060.19086697632
2418.75,1059.75622899675
2419,1058.03020268909
2419.25,1055.31044709003
2419.5,1052.36048464372
2419.75,1049.96736160392
2420,1048.91505043243
2420.25,1049.53536562057
2420.5,1051.23511631482
2420.75,1053.30799056728
2421,1055.04768457957
2421.25,1055.95574704437
2421.5,1056.28200342843
2421.75,1056.44460602158
2422,1056.86170711368
2422.25,1057.89113245899
2422.5,1059.46596916695
2422.75,1061.3368936625
2423,1063.25387936236
2423.25,1064.96832178098
2423.5,1066.25401225917
2423.75,1066.90257227069
2424,1066.70611734423
2424.25,1065.46269559071
2424.5,1063.33178226243
2424.75,1061.03623406227
2425,1059.34774294376
2425.25,1059.03792207995
2425.5,1060.56370197487
2425.75,1063.35228038569
2426,1066.62056009849
2426.25,1069.58544389934
2426.5,1071.59793161769
2426.75,1072.90633680384
2427,1074.12718954383
2427.25,1075.87814159525
2427.5,1078.72757714431
2427.75,1082.34316659696
2428,1085.60472437474
2428.25,1087.36549577185
2428.5,1086.48474368258
2428.75,1082.60069398756
2429,1076.89257664628
2429.25,1070.7206650047
2429.5,1065.44523240882
2429.75,1062.14153461936
2430,1060.32102355187
2430.25,1058.96160435758
2430.5,1057.04072660739
2430.75,1053.63713589704
2431,1049.15183222091
2431.25,1044.91302521706
2431.5,1042.268078496
2431.75,1042.52873367823
2432,1045.71050030921
2432.25,1050.19455725556
2432.5,1054.25770095644
2432.75,1056.18141259889
2433,1054.85313248353
2433.25,1050.35880541301
2433.5,1042.92514595046
2433.75,1032.77887027276
2434,1020.38108478588
2434.25,1007.07749072576
2434.5,994.422436566085
2434.75,983.970270780649
2435,976.998088034355
2435.25,973.224509693217
2435.5,971.824026118802
2435.75,971.970561444766
2436,972.96110022868
2436.25,974.655378509135
2436.5,977.073901713397
2436.75,980.237153333175
2437,984.029264470624
2437.25,987.888452637174
2437.5,991.161926031287
2437.75,993.197360517701
2438,993.560904965714
2438.25,992.384452875004
2438.5,989.890267561653
2438.75,986.30072237076
2439,981.870822782457
2439.25,976.933589618735
2439.5,971.833457202862
2439.75,966.915263450627
2440,962.58562908838
2440.25,959.378850654893
2440.5,957.845026422396
2440.75,958.524638399236
2441,961.463613996413
2441.25,965.985293591134
2441.5,971.355729239744
2441.75,976.864035899647
2442,982.275455148688
2442.25,987.803000356648
2442.5,993.677070125704
2442.75,1000.09677344327
2443,1006.84054721421
2443.25,1013.3856947587
2443.5,1019.20297819733
2443.75,1023.76112970607
2444,1026.50318978893
2444.25,1026.85457217581
2444.5,1024.24034574643
2444.75,1018.16093778714
2445,1009.4467355707
2445.25,1000.06643905125
2445.5,992.025485976898
2445.75,987.275539014444
2446,986.349479561032
2446.25,988.252294403922
2446.5,991.913335019208
2446.75,996.289047147169
2447,1000.91560576118
2447.25,1005.8857624845
2447.5,1011.31473027672
2447.75,1017.3137970971
2448,1023.91879494442
2448.25,1031.09751594145
2448.5,1038.81531540587
2448.75,1047.02483914914
2449,1055.36269857524
2449.25,1063.13570526918
2449.5,1069.63520665874
2449.75,1074.15657683459
2450,1076.27921587211
2450.25,1076.04906478657
2450.5,1073.55543671993
2450.75,1068.88764591032
2451,1062.28711758845
2451.25,1054.56882675191
2451.5,1046.6829071534
2451.75,1039.57949254555
2452,1034.14672094624
2452.25,1030.7216724641
2452.5,1029.35275653963
2452.75,1030.08584565302
2453,1032.93723288799
2453.25,1037.46579437217
2453.5,1042.87054793594
2453.75,1048.34079639305
2454,1053.09557928646
2454.25,1057.15375547346
2454.5,1061.40422221297
2454.75,1066.77968849392
2455,1074.20311938711
2455.25,1083.56478780729
2455.5,1092.8235702103
2455.75,1099.72646028965
2456,1102.02045173891
2456.25,1098.15165980164
2456.5,1089.57343167419
2456.75,1078.54751974882
2457,1067.33568709596
2457.25,1058.10579754628
2457.5,1051.42464011467
2457.75,1046.51782753411
2458,1042.56956476775
2458.25,1038.77426714355
2458.5,1035.0238997898
2458.75,1032.34351580377
2459,1031.86196530346
2459.25,1034.70620890146
2459.5,1041.23993858399
2459.75,1049.89720751316
2460,1058.81179312059
2460.25,1066.11747688321
2460.5,1070.49543506181
2460.75,1072.68980377236
2461,1073.9306147902
2461.25,1075.44789989064
2461.5,1078.26741859631
2461.75,1081.67148076588
2462,1084.05911191391
2462.25,1083.82245685962
2462.5,1079.41026263063
2462.75,1070.92206529464
2463,1060.32902589443
2463.25,1049.7032932391
2463.5,1041.11602333918
2463.75,1035.90168225311
2464,1033.3530762711
2464.25,1032.41222912691
2464.5,1032.02116455428
2464.75,1031.39713622434
2465,1031.01407514663
2465.25,1031.70437728294
2465.5,1034.30046554166
2465.75,1039.43974827928
2466,1046.44104481003
2466.25,1054.07699130273
2466.5,1061.11847435412
2466.75,1066.43142800714
2467,1069.90543518036
2467.25,1072.05384616189
2467.5,1073.39887815859
2467.75,1074.44236403467
2468,1075.03937957324
2468.25,1074.28056876331
2468.5,1071.212449961
2468.75,1064.88296715724
2469,1055.10386011979
2469.25,1043.70752389833
2469.5,1032.8566818567
2469.75,1024.71405735881
2470,1021.05526935295
2470.25,1021.40257855516
2470.5,1024.46506885058
2470.75,1028.95072724144
2471,1033.68787403243
2471.25,1038.45341718035
2471.5,1043.47376876588
2471.75,1048.97803839302
2472,1055.16677429636
2472.25,1061.90042467306
2472.5,1068.81612257539
2472.75,1075.54710012923
2473,1081.71987859819
2473.25,1086.76945393592
2473.5,1089.91603861251
2473.75,1090.36846343849
2474,1087.33664952186
2474.25,1080.61361995658
2474.5,1071.53460428676
2474.75,1061.68687235385
2475,1052.65769399937
2475.25,1045.84875888128
2475.5,1041.2366919014
2475.75,1038.13784270199
2476,1035.86495552272
2476.25,1033.77303450896
2476.5,1031.89088854792
2476.75,1030.78808669251
2477,1031.04944474684
2477.25,1033.24137262489
2477.5,1037.371241827
2477.75,1042.79964622108
2478,1048.85110894793
2478.25,1054.85435727784
2478.5,1060.42455432984
2478.75,1065.64169954952
2479,1070.62831992314
2479.25,1075.50666410505
2479.5,1080.06891389464
2479.75,1083.13848322262
2480,1083.36196036905
2480.25,1079.38593361404
2480.5,1070.20158861106
2480.75,1057.31265231189
2481,1043.33571673406
