1521,35.3119140835458
1521.25,35.3368952264646
1521.5,35.3618763693833
1521.75,35.386857512302
1522,35.4118386552207
1522.25,35.4368197981394
1522.5,35.4618009410582
1522.75,35.4867820839769
1523,35.5023526453791
1523.25,35.5073488739629
1523.5,35.5123451025466
1523.75,35.5173413311303
1524,35.5223375597141
1524.25,35.5273337882978
1524.5,35.5323300168816
1524.75,35.5373262454653
1525,35.5423224740491
1525.25,35.5473187026328
1525.5,35.5523149312166
1525.75,35.5573111598003
1526,35.562307388384
1526.25,35.5673036169678
1526.5,35.5722998455515
1526.75,35.5772960741353
1527,35.582292302719
1527.25,35.5872885313028
1527.5,35.5922847598865
1527.75,35.5972809884702
1528,35.6091088682159
1528.25,35.6290937825509
1528.5,35.6490786968859
1528.75,35.6690636112209
1529,35.6890485255558
1529.25,35.7090334398908
1529.5,35.7290183542258
1529.75,35.7490032685608
1530,35.7689881828957
1530.25,35.7889730972307
1530.5,35.8089580115657
1530.75,35.8289429259006
1531,35.8489278402356
1531.25,35.8689127545706
1531.5,35.8888976689056
1531.75,35.9088825832405
1532,35.9288674975755
1532.25,35.9488524119105
1532.5,35.9688373262455
1532.75,35.9888222405804
1533,36.0352286196616
1533.25,36.1151682770016
1533.5,36.1951079343414
1533.75,36.2750475916814
1534,36.3549872490212
1534.25,36.4349269063611
1534.5,36.514866563701
1534.75,36.5948062210409
1535,36.6747458783808
1535.25,36.7546855357207
1535.5,36.8346251930606
1535.75,36.9145648504005
1536,36.9945045077404
1536.25,37.0744441650803
1536.5,37.1543838224202
1536.75,37.2343234797601
1537,37.3142631371
1537.25,37.3942027944398
1537.5,37.4741424517798
1537.75,37.5540821091196
1538,37.7084443805898
1538.25,37.9632520383606
1538.5,38.2180596961316
1538.75,38.4728673539024
1539,38.7276750116735
1539.25,38.9824826694445
1539.5,39.2372903272153
1539.75,39.4920979849863
1540,39.7469056427571
1540.25,40.0017133005281
1540.5,40.2565209582989
1540.75,40.5113286160699
1541,40.7661362738407
1541.25,41.0209439316117
1541.5,41.2757515893825
1541.75,41.5305592471535
1542,41.7853669049243
1542.25,42.0401745626953
1542.5,42.2949822204661
1542.75,42.5497898782371
1543,42.6466757659566
1543.25,42.5167738227794
1543.5,42.386871879602
1543.75,42.2569699364247
1544,42.1270679932473
1544.25,41.9971660500701
1544.5,41.8672641068927
1544.75,41.7373621637154
1545,41.607460220538
1545.25,41.4775582773608
1545.5,41.3476563341834
1545.75,41.2177543910061
1546,41.0878524478287
1546.25,40.9579505046514
1546.5,40.8280485614741
1546.75,40.6981466182967
1547,40.5682446751194
1547.25,40.4383427319421
1547.5,40.3084407887648
1547.75,40.1785388455874
1548,40.121730541288
1548.25,40.1766890557092
1548.5,40.2316475701304
1548.75,40.2866060845516
1549,40.3415645989727
1549.25,40.3965231133939
1549.5,40.4514816278151
1549.75,40.5064401422363
1550,40.5613986566575
1550.25,40.6163571710786
1550.5,40.6713156854998
1550.75,40.726274199921
1551,40.7812327143422
1551.25,40.8361912287633
1551.5,40.8911497431845
1551.75,40.9461082576057
1552,41.0010667720269
1552.25,41.056025286448
1552.5,41.1109838008692
1552.75,41.1659423152904
1553,41.1809992457167
1553.25,41.1310369598793
1553.5,41.0810746740419
1553.75,41.0311123882044
1554,40.981150102367
1554.25,40.9311878165296
1554.5,40.8812255306922
1554.75,40.8312632448547
1555,40.7813009590173
1555.25,40.7313386731798
1555.5,40.6813763873424
1555.75,40.631414101505
1556,40.5814518156676
1556.25,40.5314895298301
1556.5,40.4815272439927
1556.75,40.4315649581552
1557,40.3816026723178
1557.25,40.3316403864804
1557.5,40.2816781006429
1557.75,40.2317158148055
1558,40.2383175891671
1558.25,40.3432383894256
1558.5,40.4481591896843
1558.75,40.5530799899429
1559,40.6580007902015
1559.25,40.7629215904601
1559.5,40.8678423907187
1559.75,40.9727631909774
1560,41.0776839912359
1560.25,41.1826047914946
1560.5,41.2875255917532
1560.75,41.3924463920118
1561,41.4973671922704
1561.25,41.602287992529
1561.5,41.7072087927876
1561.75,41.8121295930462
1562,41.9170503933048
1562.25,42.0219711935635
1562.5,42.126891993822
1562.75,42.2318127940807
1563,42.2160374986529
1563.25,41.9762185266334
1563.5,41.7363995546136
1563.75,41.496580582594
1564,41.2567616105742
1564.25,41.0169426385547
1564.5,40.7771236665349
1564.75,40.5373046945153
1565,40.2974857224955
1565.25,40.057666750476
1565.5,39.8178477784562
1565.75,39.5780288064366
1566,39.3382098344168
1566.25,39.0983908623971
1566.5,38.8585718903775
1566.75,38.6187529183577
1567,38.3789339463381
1567.25,38.1391149743184
1567.5,37.8992960022988
1567.75,37.659477030279
1568,37.4363959627887
1568.25,37.2465392766064
1568.5,37.0566825904242
1568.75,36.8668259042419
1569,36.6769692180598
1569.25,36.4871125318774
1569.5,36.2972558456953
1569.75,36.1073991595129
1570,35.9175424733306
1570.25,35.7276857871485
1570.5,35.5378291009661
1570.75,35.347972414784
1571,35.1581157286016
1571.25,34.9682590424195
1571.5,34.7784023562372
1571.75,34.588545670055
1572,34.3986889838727
1572.25,34.2088322976905
1572.5,34.0189756115082
1572.75,33.829118925326
1573,33.7015983621278
1573.25,33.7065945907115
1573.5,33.7115908192953
1573.75,33.716587047879
1574,33.7215832764628
1574.25,33.7265795050465
1574.5,33.7315757336303
1574.75,33.736571962214
1575,33.7415681907977
1575.25,33.7465644193815
1575.5,33.7515606479652
1575.75,33.756556876549
1576,33.7615531051327
1576.25,33.7665493337165
1576.5,33.7715455623002
1576.75,33.7765417908839
1577,33.7815380194677
1577.25,33.7865342480514
1577.5,33.7915304766352
1577.75,33.7965267052189
1578,33.8152293380267
1578.25,33.8651916238641
1578.5,33.9151539097015
1578.75,33.9651161955389
1579,34.0150784813764
1579.25,34.0650407672138
1579.5,34.1150030530513
1579.75,34.1649653388887
1580,34.2149276247261
1580.25,34.2648899105636
1580.5,34.314852196401
1580.75,34.3648144822384
1581,34.4147767680759
1581.25,34.4647390539133
1581.5,34.5147013397507
1581.75,34.5646636255882
1582,34.6146259114256
1582.25,34.664588197263
1582.5,34.7145504831004
1582.75,34.7645127689379
1583,34.8144750547753
1583.25,34.8644373406128
1583.5,34.9143996264502
1583.75,34.9643619122876
1584,35.0143241981251
1584.25,35.0642864839625
1584.5,35.1142487698
1584.75,35.1642110556374
1585,35.2141733414748
1585.25,35.2641356273122
1585.5,35.3140979131497
1585.75,35.3640601989871
1586,35.4140224848245
1586.25,35.463984770662
1586.5,35.5139470564994
1586.75,35.5639093423369
1587,35.6138716281743
1587.25,35.6638339140117
1587.5,35.7137961998491
1587.75,35.7637584856866
1588,35.8041162314572
1588.25,35.8191049172084
1588.5,35.8340936029597
1588.75,35.8490822887109
1589,35.8640709744621
1589.25,35.8790596602134
1589.5,35.8940483459646
1589.75,35.9090370317158
1590,35.9240257174671
1590.25,35.9390144032183
1590.5,35.9540030889695
1590.75,35.9689917747207
1591,35.983980460472
1591.25,35.9989691462232
1591.5,36.0139578319744
1591.75,36.0289465177257
1592,36.0439352034769
1592.25,36.0589238892281
1592.5,36.0739125749794
1592.75,36.0889012607306
1593,36.1090765417909
1593.25,36.1440501418771
1593.5,36.1790237419633
1593.75,36.2139973420495
1594,36.2489709421357
1594.25,36.2839445422219
1594.5,36.3189181423081
1594.75,36.3538917423943
1595,36.3888653424805
1595.25,36.4238389425667
1595.5,36.4588125426529
1595.75,36.4937861427391
1596,36.5287597428253
1596.25,36.5637333429115
1596.5,36.5987069429977
1596.75,36.6336805430839
1597,36.6686541431702
1597.25,36.7036277432563
1597.5,36.7386013433426
1597.75,36.7735749434287
1598,36.8024424410043
1598.25,36.8124348981718
1598.5,36.8224273553393
1598.75,36.8324198125067
1599,36.8424122696742
1599.25,36.8524047268417
1599.5,36.8623971840092
1599.75,36.8723896411767
1600,36.8823820983442
1600.25,36.8923745555117
1600.5,36.9023670126791
1600.75,36.9123594698466
1601,36.9223519270141
1601.25,36.9323443841816
1601.5,36.9423368413491
1601.75,36.9523292985166
1602,36.9623217556841
1602.25,36.9723142128516
1602.5,36.982306670019
1602.75,36.9922991271865
1603,37.0171868826551
1603.25,37.0921303114112
1603.5,37.1670737401674
1603.75,37.2420171689235
1604,37.3169605976797
1604.25,37.3919040264358
1604.5,37.466847455192
1604.75,37.5417908839481
1605,37.6167343127043
1605.25,37.6916777414604
1605.5,37.7666211702166
1605.75,37.8415645989727
1606,37.9165080277289
1606.25,37.991451456485
1606.5,38.0663948852412
1606.75,38.1413383139973
1607,38.2162817427535
1607.25,38.2912251715097
1607.5,38.3661686002658
1607.75,38.441112029022
1608,38.4882259976294
1608.25,38.4332674832082
1608.5,38.3783089687871
1608.75,38.3233504543659
1609,38.2683919399447
1609.25,38.2134334255235
1609.5,38.1584749111023
1609.75,38.1035163966811
1610,38.04855788226
1610.25,37.9935993678388
1610.5,37.9386408534176
1610.75,37.8836823389964
1611,37.8287238245752
1611.25,37.7737653101541
1611.5,37.7188067957329
1611.75,37.6638482813117
1612,37.6088897668905
1612.25,37.5539312524694
1612.5,37.4989727380482
1612.75,37.444014223627
1613,37.4169139039546
1613.25,37.5018497898782
1613.5,37.5867856758019
1613.75,37.6717215617256
1614,37.7566574476491
1614.25,37.8415933335728
1614.5,37.9265292194964
1614.75,38.0114651054201
1615,38.0964009913437
1615.25,38.1813368772674
1615.5,38.266272763191
1615.75,38.3512086491146
1616,38.4361445350382
1616.25,38.5210804209619
1616.5,38.6060163068855
1616.75,38.6909521928092
1617,38.7758880787328
1617.25,38.8608239646564
1617.5,38.9457598505801
1617.75,39.0306957365037
1618,39.0963219711936
1618.25,39.0763370568586
1618.5,39.0563521425236
1618.75,39.0363672281886
1619,39.0163823138537
1619.25,38.9963973995187
1619.5,38.9764124851837
1619.75,38.9564275708488
1620,38.9364426565138
1620.25,38.9164577421788
1620.5,38.8964728278438
1620.75,38.8764879135088
1621,38.8565029991739
1621.25,38.8365180848389
1621.5,38.8165331705039
1621.75,38.796548256169
1622,38.776563341834
1622.25,38.756578427499
1622.5,38.736593513164
1622.75,38.7166085988291
1623,38.6805861858411
1623.25,38.5656729284149
1623.5,38.4507596709889
1623.75,38.3358464135627
1624,38.2209331561366
1624.25,38.1060198987105
1624.5,37.9911066412844
1624.75,37.8761933838584
1625,37.7612801264322
1625.25,37.6463668690062
1625.5,37.53145361158
1625.75,37.416540354154
1626,37.3016270967278
1626.25,37.1867138393018
1626.5,37.0718005818756
1626.75,36.9568873244496
1627,36.8419740670235
1627.25,36.7270608095973
1627.5,36.6121475521713
1627.75,36.4972342947451
1628,36.3769404834597
1628.25,36.2270536259473
1628.5,36.0771667684351
1628.75,35.9272799109227
1629,35.7773930534105
1629.25,35.6275061958981
1629.5,35.4776193383859
1629.75,35.3277324808735
1630,35.1778456233613
1630.25,35.0279587658489
1630.5,34.8780719083366
1630.75,34.7281850508243
1631,34.578298193312
1631.25,34.4284113357997
1631.5,34.2785244782874
1631.75,34.1286376207751
1632,33.9787507632628
1632.25,33.8288639057505
1632.5,33.6789770482382
1632.75,33.5290901907259
1633,33.4103983333932
1633.25,33.4853417621493
1633.5,33.5602851909055
1633.75,33.6352286196616
1634,33.7101720484178
1634.25,33.785115477174
1634.5,33.8600589059301
1634.75,33.9350023346863
1635,34.0099457634424
1635.25,34.0848891921986
1635.5,34.1598326209547
1635.75,34.2347760497109
1636,34.309719478467
1636.25,34.3846629072232
1636.5,34.4596063359793
1636.75,34.5345497647355
1637,34.6094931934916
1637.25,34.6844366222478
1637.5,34.759380051004
1637.75,34.8343234797601
1638,34.9210049926368
1638.25,35.090876764484
1638.5,35.2607485363314
1638.75,35.4306203081786
1639,35.6004920800259
1639.25,35.7703638518731
1639.5,35.9402356237204
1639.75,36.1101073955676
1640,36.279979167415
1640.25,36.4498509392622
1640.5,36.6197227111095
1640.75,36.7895944829569
1641,36.9594662548041
1641.25,37.1293380266514
1641.5,37.2992097984986
1641.75,37.4690815703459
1642,37.6389533421931
1642.25,37.8088251140405
1642.5,37.9786968858877
1642.75,38.148568657735
1643,38.3048812901835
1643.25,38.3498473474372
1643.5,38.3948134046909
1643.75,38.4397794619446
1644,38.4847455191983
1644.25,38.529711576452
1644.5,38.5746776337057
1644.75,38.6196436909594
1645,38.6646097482131
1645.25,38.7095758054667
1645.5,38.7545418627205
1645.75,38.7995079199741
1646,38.8444739772278
1646.25,38.8894400344815
1646.5,38.9344060917352
1646.75,38.9793721489889
1647,39.0243382062426
1647.25,39.0693042634963
1647.5,39.11427032075
1647.75,39.1592363780037
1648,39.1901943177328
1648.25,39.0852735174742
1648.5,38.9803527172156
1648.75,38.875431916957
1649,38.7705111166984
1649.25,38.6655903164398
1649.5,38.5606695161812
1649.75,38.4557487159225
1650,38.350827915664
1650.25,38.2459071154053
1650.5,38.1409863151468
1650.75,38.0360655148881
1651,37.9311447146295
1651.25,37.8262239143709
1651.5,37.7213031141122
1651.75,37.6163823138537
1652,37.511461513595
1652.25,37.4065407133365
1652.5,37.3016199130778
1652.75,37.1966991128192
1653,37.1011745267771
1653.25,37.1161632125283
1653.5,37.1311518982795
1653.75,37.1461405840307
1654,37.161129269782
1654.25,37.1761179555332
1654.5,37.1911066412844
1654.75,37.2060953270357
1655,37.2210840127869
1655.25,37.2360726985381
1655.5,37.2510613842894
1655.75,37.2660500700406
1656,37.2810387557918
1656.25,37.2960274415431
1656.5,37.3110161272943
1656.75,37.3260048130455
1657,37.3409934987967
1657.25,37.355982184548
1657.5,37.3709708702992
1657.75,37.3859595560504
1658,37.4018964836033
1658.25,37.4318738551058
1658.5,37.4618512266082
1658.75,37.4918285981107
1659,37.5218059696132
1659.25,37.5517833411156
1659.5,37.5817607126181
1659.75,37.6117380841205
1660,37.641715455623
1660.25,37.6716928271255
1660.5,37.7016701986279
1660.75,37.7316475701304
1661,37.7616249416328
1661.25,37.7916023131353
1661.5,37.8215796846378
1661.75,37.8515570561402
1662,37.8815344276427
1662.25,37.9115117991452
1662.5,37.9414891706476
1662.75,37.9714665421501
1663,38.0072195682626
1663.25,38.157106425775
1663.5,38.3069932832872
1663.75,38.4568801407996
1664,38.6067669983118
1664.25,38.7566538558242
1664.5,38.9065407133365
1664.75,39.0564275708487
1665,39.2063144283611
1665.25,39.3562012858733
1665.5,39.5060881433857
1665.75,39.6559750008979
1666,39.8058618584103
1666.25,39.9557487159225
1666.5,40.1056355734349
1666.75,40.2555224309471
1667,40.4054092884595
1667.25,40.5552961459717
1667.5,40.7051830034841
1667.75,40.8550698609964
1668,40.9957041772925
1668.25,40.8658022341151
1668.5,40.7359002909378
1668.75,40.6059983477604
1669,40.4760964045832
1669.25,40.3461944614058
1669.5,40.2162925182285
1669.75,40.0863905750512
1670,39.9564886318739
1670.25,39.8265866886965
1670.5,39.6966847455192
1670.75,39.5667828023419
1671,39.4368808591645
1671.25,39.3069789159872
1671.5,39.1770769728098
1671.75,39.0471750296326
1672,38.9172730864552
1672.25,38.7873711432779
1672.5,38.6574692001005
1672.75,38.5275672569233
1673,38.3979347006214
1673.25,38.2830214431953
1673.5,38.1681081857692
1673.75,38.0531949283431
1674,37.938281670917
1674.25,37.8233684134909
1674.5,37.7084551560648
1674.75,37.5935418986386
1675,37.4786286412126
1675.25,37.3637153837865
1675.5,37.2488021263604
1675.75,37.1338888689343
1676,37.0189756115082
1676.25,36.9040623540821
1676.5,36.789149096656
1676.75,36.6742358392299
1677,36.5593225818038
1677.25,36.4444093243777
1677.5,36.3294960669517
1677.75,36.2145828095255
1678,36.0996982866994
1678.25,35.9947774864409
1678.5,35.8898566861822
1678.75,35.7849358859236
1679,35.680015085665
1679.25,35.5750942854064
1679.5,35.4701734851478
1679.75,35.3652526848892
1680,35.2603318846306
1680.25,35.155411084372
1680.5,35.0504902841133
1680.75,34.9455694838548
1681,34.8406486835961
1681.25,34.7357278833375
1681.5,34.6308070830789
1681.75,34.5258862828203
1682,34.4209654825617
1682.25,34.316044682303
1682.5,34.2111238820445
1682.75,34.1062030817858
1683,34.0012822815273
1683.25,34.0296110053518
1683.5,34.0595883768543
1683.75,34.0895657483567
1684,34.1195431198592
1684.25,34.1495204913617
1684.5,34.1794978628641
1684.75,34.2094752343666
1685,34.2394526058691
1685.25,34.2694299773715
1685.5,34.299407348874
1685.75,34.3293847203764
1686,34.3593620918789
1686.25,34.3893394633813
1686.5,34.4193168348838
1686.75,34.4492942063863
1687,34.4792715778887
1687.25,34.5092489493912
1687.5,34.5392263208936
1687.75,34.5692036923961
1688,34.5991810638986
1688.25,34.6437376531016
1688.5,34.6887037103552
1688.75,34.7336697676089
1689,34.7786358248626
1689.25,34.8236018821163
1689.5,34.86856793937
1689.75,34.9135339966237
1690,34.9585000538774
1690.25,35.0034661111311
1690.5,35.0484321683847
1690.75,35.0933982256385
1691,35.1383642828921
1691.25,35.1833303401458
1691.5,35.2282963973995
1691.75,35.2732624546532
1692,35.3182285119069
1692.25,35.3631945691606
1692.5,35.4081606264143
1692.75,35.453126683668
1693,35.4980927409217
1693.25,35.461725512733
1693.5,35.4217556840631
1693.75,35.3817858553931
1694,35.3418160267232
1694.25,35.3018461980532
1694.5,35.2618763693833
1694.75,35.2219065407133
1695,35.1819367120434
1695.25,35.1419668833734
1695.5,35.1019970547035
1695.75,35.0620272260335
1696,35.0220573973636
1696.25,34.9820875686936
1696.5,34.9421177400237
1696.75,34.9021479113538
1697,34.8621780826838
1697.25,34.8222082540139
1697.5,34.7822384253439
1697.75,34.742268596674
1698,34.702298768004
1698.25,34.7565065909989
1698.5,34.8164613340038
1698.75,34.8764160770087
1699,34.9363708200137
1699.25,34.9963255630186
1699.5,35.0562803060235
1699.75,35.1162350490284
1700,35.1761897920333
1700.25,35.2361445350382
1700.5,35.2960992780432
1700.75,35.3560540210481
1701,35.416008764053
1701.25,35.4759635070579
1701.5,35.5359182500629
1701.75,35.5958729930678
1702,35.6558277360727
1702.25,35.7157824790776
1702.5,35.7757372220825
1702.75,35.8356919650875
1703,35.8956467080924
1703.25,35.9787687223879
1703.5,36.0637046083115
1703.75,36.1486404942351
1704,36.2335763801587
1704.25,36.3185122660824
1704.5,36.403448152006
1704.75,36.4883840379297
1705,36.5733199238533
1705.25,36.6582558097769
1705.5,36.7431916957006
1705.75,36.8281275816242
1706,36.9130634675479
1706.25,36.9979993534715
1706.5,37.0829352393952
1706.75,37.1678711253188
1707,37.2528070112424
1707.25,37.337742897166
1707.5,37.4226787830897
1707.75,37.5076146690133
1708,37.592550554937
1708.25,37.5453036888043
1708.5,37.4853489457994
1708.75,37.4253942027944
1709,37.3654394597895
1709.25,37.3054847167846
1709.5,37.2455299737797
1709.75,37.1855752307747
1710,37.1256204877699
1710.25,37.0656657447649
1710.5,37.00571100176
1710.75,36.9457562587551
1711,36.8858015157502
1711.25,36.8258467727452
1711.5,36.7658920297403
1711.75,36.7059372867354
1712,36.6459825437304
1712.25,36.5860278007256
1712.5,36.5260730577206
1712.75,36.4661183147157
1713,36.4061635717108
1713.25,36.5389605258432
1713.5,36.6938436119393
1713.75,36.8487266980352
1714,37.0036097841313
1714.25,37.1584928702273
1714.5,37.3133759563234
1714.75,37.4682590424194
1715,37.6231421285155
1715.25,37.7780252146116
1715.5,37.9329083007076
1715.75,38.0877913868037
1716,38.2426744728997
1716.25,38.3975575589958
1716.5,38.5524406450918
1716.75,38.7073237311879
1717,38.8622068172838
1717.25,39.0170899033799
1717.5,39.1719729894759
1717.75,39.326856075572
1718,39.481739161668
1718.25,39.5044071692827
1718.5,39.5094033978665
1718.75,39.5143996264502
1719,39.5193958550339
1719.25,39.5243920836177
1719.5,39.5293883122014
1719.75,39.5343845407852
1720,39.5393807693689
1720.25,39.5443769979527
1720.5,39.5493732265364
1720.75,39.5543694551201
1721,39.5593656837039
1721.25,39.5643619122876
1721.5,39.5693581408714
1721.75,39.5743543694551
1722,39.5793505980389
1722.25,39.5843468266226
1722.5,39.5893430552063
1722.75,39.5943392837901
1723,39.5993355123738
1723.25,39.7516109335154
1723.5,39.9264789339463
1723.75,40.1013469343774
1724,40.2762149348083
1724.25,40.4510829352394
1724.5,40.6259509356704
1724.75,40.8008189361015
1725,40.9756869365324
1725.25,41.1505549369635
1725.5,41.3254229373946
1725.75,41.5002909378255
1726,41.6751589382566
1726.25,41.8500269386875
1726.5,42.0248949391186
1726.75,42.1997629395496
1727,42.3746309399806
1727.25,42.5494989404116
1727.5,42.7243669408427
1727.75,42.8992349412736
1728,43.0741029417047
1728.25,43.1
1728.5,43.1
1728.75,43.1
1729,43.1
1729.25,43.1
1729.5,43.1
1729.75,43.1
1730,43.1
1730.25,43.1
1730.5,43.1
1730.75,43.1
1731,43.1
1731.25,43.1
1731.5,43.1
1731.75,43.1
1732,43.1
1732.25,43.1
1732.5,43.1
1732.75,43.1
1733,43.1
1733.25,43.0163823138537
1733.5,42.9164577421788
1733.75,42.816533170504
1734,42.716608598829
1734.25,42.6166840271542
1734.5,42.5167594554793
1734.75,42.4168348838045
1735,42.3169103121296
1735.25,42.2169857404547
1735.5,42.1170611687799
1735.75,42.0171365971049
1736,41.9172120254301
1736.25,41.8172874537552
1736.5,41.7173628820804
1736.75,41.6174383104055
1737,41.5175137387307
1737.25,41.4175891670558
1737.5,41.3176645953809
1737.75,41.217740023706
1738,41.1178154520312
1738.25,41.0096799683919
1738.5,40.8997629395496
1738.75,40.7898459107072
1739,40.6799288818648
1739.25,40.5700118530225
1739.5,40.4600948241801
1739.75,40.3501777953378
1740,40.2402607664954
1740.25,40.1303437376531
1740.5,40.0204267088107
1740.75,39.9105096799684
1741,39.800592651126
1741.25,39.6906756222837
1741.5,39.5807585934413
1741.75,39.470841564599
1742,39.3609245357566
1742.25,39.2510075069142
1742.5,39.1410904780719
1742.75,39.0311734492295
1743,38.9212564203872
1743.25,38.8879099170288
1743.5,38.8729212312776
1743.75,38.8579325455264
1744,38.8429438597752
1744.25,38.8279551740239
1744.5,38.8129664882727
1744.75,38.7979778025215
1745,38.7829891167702
1745.25,38.768000431019
1745.5,38.7530117452678
1745.75,38.7380230595165
1746,38.7230343737653
1746.25,38.7080456880141
1746.5,38.6930570022628
1746.75,38.6780683165116
1747,38.6630796307604
1747.25,38.6480909450092
1747.5,38.6331022592579
1747.75,38.6181135735067
1748,38.6031248877555
1748.25,38.5406810100212
1748.5,38.465737581265
1748.75,38.3907941525089
1749,38.3158507237527
1749.25,38.2409072949966
1749.5,38.1659638662404
1749.75,38.0910204374843
1750,38.0160770087281
1750.25,37.941133579972
1750.5,37.8661901512158
1750.75,37.7912467224597
1751,37.7163032937036
1751.25,37.6413598649474
1751.5,37.5664164361913
1751.75,37.4914730074351
1752,37.416529578679
1752.25,37.3415861499228
1752.5,37.2666427211666
1752.75,37.1916992924105
1753,37.1167558636543
1753.25,37.1504292230882
1753.5,37.2153801946769
1753.75,37.2803311662656
1754,37.3452821378543
1754.25,37.4102331094429
1754.5,37.4751840810316
1754.75,37.5401350526202
1755,37.6050860242089
1755.25,37.6700369957975
1755.5,37.7349879673862
1755.75,37.7999389389749
1756,37.8648899105636
1756.25,37.9298408821522
1756.5,37.9947918537409
1756.75,38.0597428253296
1757,38.1246937969182
1757.25,38.1896447685069
1757.5,38.2545957400955
1757.75,38.3195467116842
1758,38.3844976832728
1758.25,38.3619625731834
1758.5,38.312000287346
1758.75,38.2620380015086
1759,38.2120757156711
1759.25,38.1621134298337
1759.5,38.1121511439962
1759.75,38.0621888581588
1760,38.0122265723214
1760.25,37.962264286484
1760.5,37.9123020006465
1760.75,37.8623397148091
1761,37.8123774289717
1761.25,37.7624151431342
1761.5,37.7124528572968
1761.75,37.6624905714594
1762,37.6125282856219
1762.25,37.5625659997845
1762.5,37.5126037139471
1762.75,37.4626414281096
1763,37.4126791422722
1763.25,37.3776301138608
1763.5,37.3476527423584
1763.75,37.3176753708559
1764,37.2876979993535
1764.25,37.257720627851
1764.5,37.2277432563486
1764.75,37.1977658848461
1765,37.1677885133436
1765.25,37.1378111418412
1765.5,37.1078337703387
1765.75,37.0778563988362
1766,37.0478790273338
1766.25,37.0179016558313
1766.5,36.9879242843289
1766.75,36.9579469128264
1767,36.9279695413239
1767.25,36.8979921698215
1767.5,36.868014798319
1767.75,36.8380374268166
1768,36.8080600553141
1768.25,36.8036528860314
1768.5,36.8086491146151
1768.75,36.8136453431989
1769,36.8186415717826
1769.25,36.8236378003664
1769.5,36.8286340289501
1769.75,36.8336302575339
1770,36.8386264861176
1770.25,36.8436227147013
1770.5,36.8486189432851
1770.75,36.8536151718688
1771,36.8586114004526
1771.25,36.8636076290363
1771.5,36.8686038576201
1771.75,36.8736000862038
1772,36.8785963147875
1772.25,36.8835925433713
1772.5,36.888588771955
1772.75,36.8935850005388
1773,36.8985812291225
1773.25,36.8391832189936
1773.5,36.7542473330699
1773.75,36.6693114471463
1774,36.5843755612226
1774.25,36.499439675299
1774.5,36.4145037893754
1774.75,36.3295679034518
1775,36.2446320175281
1775.25,36.1596961316045
1775.5,36.0747602456808
1775.75,35.9898243597572
1776,35.9048884738336
1776.25,35.8199525879099
1776.5,35.7350167019863
1776.75,35.6500808160626
1777,35.565144930139
1777.25,35.4802090442153
1777.5,35.3952731582917
1777.75,35.3103372723681
1778,35.2254013864445
1778.25,35.2385223231924
1778.5,35.2934808376136
1778.75,35.3484393520348
1779,35.4033978664559
1779.25,35.4583563808771
1779.5,35.5133148952983
1779.75,35.5682734097195
1780,35.6232319241407
1780.25,35.6781904385618
1780.5,35.733148952983
1780.75,35.7881074674042
1781,35.8430659818254
1781.25,35.8980244962465
1781.5,35.9529830106677
1781.75,36.0079415250889
1782,36.0629000395101
1782.25,36.1178585539312
1782.5,36.1728170683524
1782.75,36.2277755827736
1783,36.2827340971948
1783.25,36.310279803168
1783.5,36.3252684889192
1783.75,36.3402571746705
1784,36.3552458604217
1784.25,36.3702345461729
1784.5,36.3852232319241
1784.75,36.4002119176754
1785,36.4152006034266
1785.25,36.4301892891778
1785.5,36.4451779749291
1785.75,36.4601666606803
1786,36.4751553464315
1786.25,36.4901440321828
1786.5,36.505132717934
1786.75,36.5201214036852
1787,36.5351100894365
1787.25,36.5500987751877
1787.5,36.5650874609389
1787.75,36.5800761466901
1788,36.5950648324414
1788.25,36.5865953090766
1788.5,36.5666103947416
1788.75,36.5466254804066
1789,36.5266405660716
1789.25,36.5066556517366
1789.5,36.4866707374017
1789.75,36.4666858230667
1790,36.4467009087317
1790.25,36.4267159943967
1790.5,36.4067310800618
1790.75,36.3867461657268
1791,36.3667612513918
1791.25,36.3467763370569
1791.5,36.3267914227219
1791.75,36.3068065083869
1792,36.2868215940519
1792.25,36.266836679717
1792.5,36.246851765382
1792.75,36.226866851047
1793,36.206881936712
1793.25,36.2163787220287
1793.5,36.2413598649474
1793.75,36.2663410078661
1794,36.2913221507848
1794.25,36.3163032937035
1794.5,36.3412844366223
1794.75,36.366265579541
1795,36.3912467224597
1795.25,36.4162278653784
1795.5,36.4412090082971
1795.75,36.4661901512158
1796,36.4911712941346
1796.25,36.5161524370533
1796.5,36.541133579972
1796.75,36.5661147228907
1797,36.5910958658094
1797.25,36.6160770087281
1797.5,36.6410581516469
1797.75,36.6660392945656
1798,36.6910204374843
1798.25,36.8376135914659
1798.5,37.0524514205667
1798.75,37.2672892496678
1799,37.4821270787686
1799.25,37.6969649078697
1799.5,37.9118027369708
1799.75,38.1266405660716
1800,38.3414783951727
1800.25,38.5563162242735
1800.5,38.7711540533746
1800.75,38.9859918824755
1801,39.2008297115765
1801.25,39.4156675406774
1801.5,39.6305053697784
1801.75,39.8453431988793
1802,40.0601810279804
1802.25,40.2750188570812
1802.5,40.4898566861823
1802.75,40.7046945152831
1803,40.9195323443842
1803.25,40.9875004489781
1803.5,40.9675155346432
1803.75,40.9475306203082
1804,40.9275457059732
1804.25,40.9075607916382
1804.5,40.8875758773033
1804.75,40.8675909629683
1805,40.8476060486333
1805.25,40.8276211342983
1805.5,40.8076362199634
1805.75,40.7876513056284
1806,40.7676663912934
1806.25,40.7476814769584
1806.5,40.7276965626235
1806.75,40.7077116482885
1807,40.6877267339535
1807.25,40.6677418196185
1807.5,40.6477569052836
1807.75,40.6277719909486
1808,40.6077870766136
1808.25,40.554258108545
1808.5,40.4793146797888
1808.75,40.4043712510327
1809,40.3294278222765
1809.25,40.2544843935204
1809.5,40.1795409647642
1809.75,40.104597536008
1810,40.0296541072519
1810.25,39.9547106784957
1810.5,39.8797672497396
1810.75,39.8048238209834
1811,39.7298803922273
1811.25,39.6549369634711
1811.5,39.579993534715
1811.75,39.5050501059588
1812,39.4301066772027
1812.25,39.3551632484465
1812.5,39.2802198196904
1812.75,39.2052763909342
1813,39.130332962178
1813.25,39.0494414712115
1813.5,38.9645055852878
1813.75,38.8795696993643
1814,38.7946338134406
1814.25,38.709697927517
1814.5,38.6247620415933
1814.75,38.5398261556697
1815,38.454890269746
1815.25,38.3699543838224
1815.5,38.2850184978988
1815.75,38.2000826119752
1816,38.1151467260515
1816.25,38.0302108401279
1816.5,37.9452749542042
1816.75,37.8603390682806
1817,37.775403182357
1817.25,37.6904672964333
1817.5,37.6055314105097
1817.75,37.520595524586
1818,37.4356596386624
1818.25,37.4463776444812
1818.5,37.526317301821
1818.75,37.606256959161
1819,37.6861966165008
1819.25,37.7661362738407
1819.5,37.8460759311806
1819.75,37.9260155885205
1820,38.0059552458605
1820.25,38.0858949032003
1820.5,38.1658345605402
1820.75,38.2457742178801
1821,38.32571387522
1821.25,38.4056535325599
1821.5,38.4855931898998
1821.75,38.5655328472397
1822,38.6454725045796
1822.25,38.7254121619195
1822.5,38.8053518192594
1822.75,38.8852914765992
1823,38.9652311339392
1823.25,39.1355123738373
1823.5,39.3753313458568
1823.75,39.6151503178766
1824,39.8549692898962
1824.25,40.094788261916
1824.5,40.3346072339355
1824.75,40.5744262059553
1825,40.8142451779749
1825.25,41.0540641499947
1825.5,41.2938831220142
1825.75,41.533702094034
1826,41.7735210660536
1826.25,42.0133400380734
1826.5,42.2531590100932
1826.75,42.4929779821127
1827,42.7327969541325
1827.25,42.9726159261521
1827.5,43.2124348981719
1827.75,43.4522538701914
1828,43.6920728422112
1828.25,43.8
1828.5,43.8
1828.75,43.8
1829,43.8
1829.25,43.8
1829.5,43.8
1829.75,43.8
1830,43.8
1830.25,43.8
1830.5,43.8
1830.75,43.8
1831,43.8
1831.25,43.8
1831.5,43.8
1831.75,43.8
1832,43.8
1832.25,43.8
1832.5,43.8
1832.75,43.8
1833,43.8
1833.25,43.8293954958514
1833.5,43.8843540102726
1833.75,43.9393125246938
1834,43.994271039115
1834.25,44.0492295535361
1834.5,44.1041880679573
1834.75,44.1591465823785
1835,44.2141050967997
1835.25,44.2690636112208
1835.5,44.324022125642
1835.75,44.3789806400632
1836,44.4339391544844
1836.25,44.4888976689056
1836.5,44.5438561833268
1836.75,44.598814697748
1837,44.6537732121691
1837.25,44.7087317265903
1837.5,44.7636902410115
1837.75,44.8186487554327
1838,44.8736072698538
1838.25,44.7519772996659
1838.5,44.4671922703926
1838.75,44.1824072411192
1839,43.8976222118459
1839.25,43.6128371825724
1839.5,43.3280521532992
1839.75,43.0432671240257
1840,42.7584820947522
1840.25,42.473697065479
1840.5,42.1889120362055
1840.75,41.9041270069322
1841,41.6193419776587
1841.25,41.3345569483855
1841.5,41.049771919112
1841.75,40.7649868898388
1842,40.4802018605653
1842.25,40.1954168312921
1842.5,39.9106318020186
1842.75,39.6258467727453
1843,39.3410617434718
1843.25,39.1546136992206
1843.5,39.0646815847132
1843.75,38.9747494702058
1844,38.8848173556984
1844.25,38.794885241191
1844.5,38.7049531266837
1844.75,38.6150210121763
1845,38.5250888976689
1845.25,38.4351567831615
1845.5,38.3452246686542
1845.75,38.2552925541467
1846,38.1653604396394
1846.25,38.075428325132
1846.5,37.9854962106247
1846.75,37.8955640961172
1847,37.8056319816098
1847.25,37.7156998671025
1847.5,37.6257677525951
1847.75,37.5358356380877
1848,37.4459035235803
1848.25,37.3877698358536
1848.5,37.3627886929349
1848.75,37.3378075500162
1849,37.3128264070974
1849.25,37.2878452641787
1849.5,37.26286412126
1849.75,37.2378829783413
1850,37.2129018354226
1850.25,37.1879206925038
1850.5,37.1629395495851
1850.75,37.1379584066664
1851,37.1129772637477
1851.25,37.087996120829
1851.5,37.0630149779103
1851.75,37.0380338349916
1852,37.0130526920728
1852.25,36.9880715491541
1852.5,36.9630904062354
1852.75,36.9381092633167
1853,36.913128120398
1853.25,36.9877123666535
1853.5,37.1725728242521
1853.75,37.3574332818505
1854,37.5422937394491
1854.25,37.7271541970475
1854.5,37.9120146546461
1854.75,38.0968751122445
1855,38.2817355698431
1855.25,38.4665960274415
1855.5,38.6514564850401
1855.75,38.8363169426385
1856,39.0211774002371
1856.25,39.2060378578355
1856.5,39.3908983154341
1856.75,39.5757587730325
1857,39.7606192306311
1857.25,39.9454796882297
1857.5,40.1303401458281
1857.75,40.3152006034267
1858,40.5000610610251
1858.25,40.604590352358
1858.5,40.6145828095255
1858.75,40.624575266693
1859,40.6345677238605
1859.25,40.644560181028
1859.5,40.6545526381955
1859.75,40.664545095363
1860,40.6745375525304
1860.25,40.6845300096979
1860.5,40.6945224668654
1860.75,40.7045149240329
1861,40.7145073812004
1861.25,40.7244998383679
1861.5,40.7344922955354
1861.75,40.7444847527028
1862,40.7544772098703
1862.25,40.7644696670378
1862.5,40.7744621242053
1862.75,40.7844545813728
1863,40.7944470385403
1863.25,40.8355159656621
1863.5,40.9154556230021
1863.75,40.995395280342
1864,41.0753349376818
1864.25,41.1552745950218
1864.5,41.2352142523616
1864.75,41.3151539097015
1865,41.3950935670414
1865.25,41.4750332243813
1865.5,41.5549728817212
1865.75,41.6349125390611
1866,41.714852196401
1866.25,41.7947918537409
1866.5,41.8747315110808
1866.75,41.9546711684207
1867,42.0346108257606
1867.25,42.1145504831005
1867.5,42.1944901404404
1867.75,42.2744297977803
1868,42.3543694551202
1868.25,42.3785568047125
1868.5,42.328594518875
1868.75,42.2786322330376
1869,42.2286699472002
1869.25,42.1787076613628
1869.5,42.1287453755253
1869.75,42.0787830896879
1870,42.0288208038504
1870.25,41.978858518013
1870.5,41.9288962321756
1870.75,41.8789339463381
1871,41.8289716605007
1871.25,41.7790093746632
1871.5,41.7290470888258
1871.75,41.6790848029884
1872,41.629122517151
1872.25,41.5791602313135
1872.5,41.5291979454761
1872.75,41.4792356596387
1873,41.4292733738012
1873.25,41.3979311087964
1873.5,41.3929348802126
1873.75,41.3879386516289
1874,41.3829424230451
1874.25,41.3779461944614
1874.5,41.3729499658777
1874.75,41.3679537372939
1875,41.3629575087102
1875.25,41.3579612801264
1875.5,41.3529650515427
1875.75,41.3479688229589
1876,41.3429725943752
1876.25,41.3379763657915
1876.5,41.3329801372077
1876.75,41.327983908624
1877,41.3229876800402
1877.25,41.3179914514565
1877.5,41.3129952228727
1877.75,41.307998994289
1878,41.3030027657053
1878.25,41.3458496462053
1878.5,41.4607629036313
1878.75,41.5756761610575
1879,41.6905894184835
1879.25,41.8055026759097
1879.5,41.9204159333357
1879.75,42.0353291907618
1880,42.1502424481879
1880.25,42.265155705614
1880.5,42.3800689630402
1880.75,42.4949822204662
1881,42.6098954778924
1881.25,42.7248087353184
1881.5,42.8397219927446
1881.75,42.9546352501706
1882,43.0695485075968
1882.25,43.1844617650228
1882.5,43.2993750224489
1882.75,43.414288279875
1883,43.5292015373011
1883.25,43.6441147947272
1883.5,43.7590280521533
1883.75,43.8739413095794
1884,43.9888545670055
1884.25,44.1037678244317
1884.5,44.2186810818577
1884.75,44.3335943392838
1885,44.4485075967099
1885.25,44.563420854136
1885.5,44.6783341115621
1885.75,44.7932473689882
1886,44.9081606264143
1886.25,45.0230738838404
1886.5,45.1379871412664
1886.75,45.2529003986926
1887,45.3678136561186
1887.25,45.4827269135448
1887.5,45.5976401709709
1887.75,45.712553428397
1888,45.8274666858231
1888.25,45.8944721813153
1888.5,45.8794834955641
1888.75,45.8644948098129
1889,45.8495061240616
1889.25,45.8345174383104
1889.5,45.8195287525592
1889.75,45.8045400668079
1890,45.7895513810567
1890.25,45.7745626953055
1890.5,45.7595740095543
1890.75,45.744585323803
1891,45.7295966380518
1891.25,45.7146079523006
1891.5,45.6996192665493
1891.75,45.6846305807981
1892,45.6696418950469
1892.25,45.6546532092956
1892.5,45.6396645235444
1892.75,45.6246758377932
1893,45.609687152042
1893.25,45.5293128838763
1893.5,45.3294637405266
1893.75,45.1296145971768
1894,44.9297654538272
1894.25,44.7299163104774
1894.5,44.5300671671275
1894.75,44.3302180237779
1895,44.1303688804281
1895.25,43.9305197370784
1895.5,43.7306705937286
1895.75,43.530821450379
1896,43.3309723070292
1896.25,43.1311231636795
1896.5,42.9312740203297
1896.75,42.7314248769801
1897,42.5315757336302
1897.25,42.3317265902806
1897.5,42.1318774469308
1897.75,41.932028303581
1898,41.7321791602313
1898.25,41.6422937394491
1898.5,41.7671994540426
1898.75,41.8921051686362
1899,42.0170108832298
1899.25,42.1419165978234
1899.5,42.2668223124169
1899.75,42.3917280270106
1900,42.5166337416041
1900.25,42.6415394561977
1900.5,42.7664451707912
1900.75,42.8913508853849
1901,43.0162565999785
1901.25,43.141162314572
1901.5,43.2660680291657
1901.75,43.3909737437592
1902,43.5158794583528
1902.25,43.6407851729464
1902.5,43.76569088754
1902.75,43.8905966021335
1903,44.0155023167272
1903.25,44.1129305700226
1903.5,44.1529003986926
1903.75,44.1928702273625
1904,44.2328400560325
1904.25,44.2728098847024
1904.5,44.3127797133724
1904.75,44.3527495420423
1905,44.3927193707123
1905.25,44.4326891993822
1905.5,44.4726590280521
1905.75,44.5126288567221
1906,44.552598685392
1906.25,44.592568514062
1906.5,44.6325383427319
1906.75,44.6725081714019
1907,44.7124780000718
1907.25,44.7524478287418
1907.5,44.7924176574117
1907.75,44.8323874860817
1908,44.8723573147516
1908.25,45.0494666139866
1908.5,45.5341007866099
1908.75,46.0187349592327
1909,46.503369131856
1909.25,46.9880033044789
1909.5,47.4726374771022
1909.75,47.9572716497251
1910,48.4419058223484
1910.25,48.9265399949713
1910.5,49.4111741675946
1910.75,49.8958083402175
1911,50.3804425128408
1911.25,50.8650766854641
1911.5,51.349710858087
1911.75,51.8343450307103
1912,52.3189792033332
1912.25,52.8036133759565
1912.5,53.2882475485794
1912.75,53.7728817212027
1913,54.2575158938255
1913.25,54.4754355087819
1913.5,54.0507560791639
1913.75,53.6260766495456
1914,53.2013972199276
1914.25,52.7767177903092
1914.5,52.3520383606909
1914.75,51.9273589310729
1915,51.5026795014545
1915.25,51.0780000718365
1915.5,50.6533206422182
1915.75,50.2286412126002
1916,49.8039617829818
1916.25,49.3792823533638
1916.5,48.9546029237455
1916.75,48.5299234941275
1917,48.1052440645091
1917.25,47.6805646348911
1917.5,47.2558852052728
1917.75,46.8312057756544
1918,46.4065263460364
1918.25,46.0569088753995
1918.5,45.9020257893036
1918.75,45.7471427032074
1919,45.5922596171115
1919.25,45.4373765310154
1919.5,45.2824934449194
1919.75,45.1276103588233
1920,44.9727272727273
1920.25,44.8178441866312
1920.5,44.6629611005352
1920.75,44.5080780144391
1921,44.3531949283432
1921.25,44.198311842247
1921.5,44.0434287561509
1921.75,43.888545670055
1922,43.7336625839588
1922.25,43.5787794978629
1922.5,43.4238964117668
1922.75,43.2690133256708
1923,43.1141302395747
1923.25,42.9750224489063
1923.5,42.8800941058151
1923.75,42.7851657627241
1924,42.6902374196329
1924.25,42.5953090765418
1924.5,42.5003807334507
1924.75,42.4054523903595
1925,42.3105240472684
1925.25,42.2155957041773
1925.5,42.1206673610862
1925.75,42.025739017995
1926,41.9308106749039
1926.25,41.8358823318128
1926.5,41.7409539887217
1926.75,41.6460256456305
1927,41.5510973025394
1927.25,41.4561689594483
1927.5,41.3612406163572
1927.75,41.266312273266
1928,41.1713839301749
1928.25,41.1408929276966
1928.5,41.3057684709602
1928.75,41.4706440142236
1929,41.6355195574872
1929.25,41.8003951007507
1929.5,41.9652706440143
1929.75,42.1301461872777
1930,42.2950217305413
1930.25,42.4598972738048
1930.5,42.6247728170684
1930.75,42.7896483603318
1931,42.9545239035954
1931.25,43.119399446859
1931.5,43.2842749901225
1931.75,43.4491505333861
1932,43.6140260766495
1932.25,43.7789016199131
1932.5,43.9437771631766
1932.75,44.1086527064402
1933,44.2735282497036
1933.25,44.4046550052081
1933.5,44.4246399195431
1933.75,44.4446248338781
1934,44.4646097482131
1934.25,44.484594662548
1934.5,44.504579576883
1934.75,44.524564491218
1935,44.544549405553
1935.25,44.5645343198879
1935.5,44.5845192342229
1935.75,44.6045041485579
1936,44.6244890628929
1936.25,44.6444739772278
1936.5,44.6644588915628
1936.75,44.6844438058978
1937,44.7044287202327
1937.25,44.7244136345677
1937.5,44.7443985489027
1937.75,44.7643834632377
1938,44.7843683775726
1938.25,44.8
1938.5,44.8
1938.75,44.8
1939,44.8
1939.25,44.8
1939.5,44.8
1939.75,44.8
1940,44.8
1940.25,44.8
1940.5,44.8
1940.75,44.8
1941,44.8
1941.25,44.8
1941.5,44.8
1941.75,44.8
1942,44.8
1942.25,44.8
1942.5,44.8
1942.75,44.8
1943,44.8
1943.25,44.8
1943.5,44.8
1943.75,44.8
1944,44.8
1944.25,44.8
1944.5,44.8
1944.75,44.8
1945,44.8
1945.25,44.8
1945.5,44.8
1945.75,44.8
1946,44.8
1946.25,44.8
1946.5,44.8
1946.75,44.8
1947,44.8
1947.25,44.8
1947.5,44.8
1947.75,44.8
1948,44.8
1948.25,44.8065622642865
1948.5,44.8415358643727
1948.75,44.8765094644589
1949,44.9114830645451
1949.25,44.9464566646313
1949.5,44.9814302647175
1949.75,45.0164038648037
1950,45.0513774648899
1950.25,45.0863510649761
1950.5,45.1213246650623
1950.75,45.1562982651485
1951,45.1912718652347
1951.25,45.2262454653209
1951.5,45.2612190654071
1951.75,45.2961926654934
1952,45.3311662655795
1952.25,45.3661398656658
1952.5,45.4011134657519
1952.75,45.4360870658382
1953,45.4710606659243
1953.25,45.5224129880393
1953.5,45.6523149312165
1953.75,45.7822168743939
1954,45.9121188175712
1954.25,46.0420207607486
1954.5,46.1719227039258
1954.75,46.3018246471032
1955,46.4317265902806
1955.25,46.5616285334578
1955.5,46.6915304766352
1955.75,46.8214324198125
1956,46.9513343629899
1956.25,47.0812363061671
1956.5,47.2111382493445
1956.75,47.3410401925218
1957,47.4709421356992
1957.25,47.6008440788764
1957.5,47.7307460220538
1957.75,47.8606479652311
1958,47.9905499084085
1958.25,48.0897740742071
1958.5,48.0248231026184
1958.75,47.9598721310297
1959,47.8949211594411
1959.25,47.8299701878524
1959.5,47.7650192162638
1959.75,47.7000682446751
1960,47.6351172730865
1960.25,47.5701663014978
1960.5,47.5052153299091
1960.75,47.4402643583204
1961,47.3753133867318
1961.25,47.3103624151431
1961.5,47.2454114435545
1961.75,47.1804604719658
1962,47.1155095003771
1962.25,47.0505585287885
1962.5,46.9856075571998
1962.75,46.9206565856112
1963,46.8557056140225
1963.25,46.7886210983801
1963.5,46.7086814410402
1963.75,46.6287417837003
1964,46.5488021263604
1964.25,46.4688624690205
1964.5,46.3889228116806
1964.75,46.3089831543408
1965,46.2290434970008
1965.25,46.1491038396609
1965.5,46.069164182321
1965.75,45.9892245249811
1966,45.9092848676413
1966.25,45.8293452103013
1966.5,45.7494055529615
1966.75,45.6694658956215
1967,45.5895262382817
1967.25,45.5095865809418
1967.5,45.4296469236019
1967.75,45.349707266262
1968,45.2697676089221
1968.25,45.1949139757911
1968.5,45.1549441471211
1968.75,45.1149743184512
1969,45.0750044897812
1969.25,45.0350346611113
1969.5,44.9950648324414
1969.75,44.9550950037714
1970,44.9151251751015
1970.25,44.8751553464315
1970.5,44.8351855177616
1970.75,44.7952156890916
1971,44.7552458604217
1971.25,44.7152760317517
1971.5,44.6753062030818
1971.75,44.6353363744118
1972,44.5953665457419
1972.25,44.5553967170719
1972.5,44.515426888402
1972.75,44.475457059732
1973,44.4354872310621
1973.25,44.4072842211128
1973.5,44.4722351927014
1973.75,44.5371861642901
1974,44.6021371358787
1974.25,44.6670881074674
1974.5,44.7320390790561
1974.75,44.7969900506447
1975,44.8619410222334
1975.25,44.9268919938221
1975.5,44.9918429654108
1975.75,45.0567939369994
1976,45.1217449085881
1976.25,45.1866958801767
1976.5,45.2516468517654
1976.75,45.316597823354
1977,45.3815487949427
1977.25,45.4464997665314
1977.5,45.5114507381201
1977.75,45.5764017097087
1978,45.6413526812974
1978.25,45.6903020724831
1978.5,45.5903775008082
1978.75,45.4904529291332
1979,45.3905283574584
1979.25,45.2906037857835
1979.5,45.1906792141087
1979.75,45.0907546424338
1980,44.990830070759
1980.25,44.8909054990841
1980.5,44.7909809274092
1980.75,44.6910563557343
1981,44.5911317840595
1981.25,44.4912072123846
1981.5,44.3912826407098
1981.75,44.2913580690349
1982,44.19143349736
1982.25,44.0915089256851
1982.5,43.9915843540102
1982.75,43.8916597823354
1983,43.7917352106605
1983.25,43.6922201070364
1983.5,43.5972917639452
1983.75,43.5023634208542
1984,43.407435077763
1984.25,43.3125067346719
1984.5,43.2175783915807
1984.75,43.1226500484897
1985,43.0277217053985
1985.25,42.9327933623074
1985.5,42.8378650192163
1985.75,42.7429366761251
1986,42.648008333034
1986.25,42.5530799899429
1986.5,42.4581516468518
1986.75,42.3632233037606
1987,42.2682949606695
1987.25,42.1733666175784
1987.5,42.0784382744873
1987.75,41.9835099313961
1988,41.888581588305
1988.25,41.7913149671348
1988.5,41.6614130239575
1988.75,41.5315110807801
1989,41.4016091376028
1989.25,41.2717071944255
1989.5,41.1418052512481
1989.75,41.0119033080708
1990,40.8820013648935
1990.25,40.7520994217162
1990.5,40.6221974785388
1990.75,40.4922955353615
1991,40.3623935921842
1991.25,40.2324916490069
1991.5,40.1025897058295
1991.75,39.9726877626522
1992,39.8427858194749
1992.25,39.7128838762975
1992.5,39.5829819331202
1992.75,39.4530799899428
1993,39.3231780467656
1993.25,39.2
1993.5,39.2
1993.75,39.2
1994,39.2
1994.25,39.2
1994.5,39.2
1994.75,39.2
1995,39.2
1995.25,39.2
1995.5,39.2
1995.75,39.2
1996,39.2
1996.25,39.2
1996.5,39.2
1996.75,39.2
1997,39.2
1997.25,39.2
1997.5,39.2
1997.75,39.2
1998,39.2
1998.25,39.1989009015481
1998.5,39.1689235300456
1998.75,39.1389461585432
1999,39.1089687870407
1999.25,39.0789914155382
1999.5,39.0490140440358
1999.75,39.0190366725333
2000,38.9890593010309
2000.25,38.9590819295284
2000.5,38.9291045580259
2000.75,38.8991271865235
2001,38.869149815021
2001.25,38.8391724435185
2001.5,38.8091950720161
2001.75,38.7792177005136
2002,38.7492403290112
2002.25,38.7192629575087
2002.5,38.6892855860062
2002.75,38.6593082145038
2003,38.6293308430013
2003.25,38.5995689809993
2003.5,38.5795840666643
2003.75,38.5595991523293
2004,38.5396142379943
2004.25,38.5196293236594
2004.5,38.4996444093244
2004.75,38.4796594949894
2005,38.4596745806544
2005.25,38.4396896663195
2005.5,38.4197047519845
2005.75,38.3997198376495
2006,38.3797349233145
2006.25,38.3597500089796
2006.5,38.3397650946446
2006.75,38.3197801803096
2007,38.2997952659746
2007.25,38.2798103516397
2007.5,38.2598254373047
2007.75,38.2398405229697
2008,38.2198556086348
2008.25,38.2001939585503
2008.5,38.2301713300528
2008.75,38.2601487015553
2009,38.2901260730577
2009.25,38.3201034445602
2009.5,38.3500808160627
2009.75,38.3800581875651
2010,38.4100355590676
2010.25,38.44001293057
2010.5,38.4699903020725
2010.75,38.4999676735749
2011,38.5299450450774
2011.25,38.5599224165799
2011.5,38.5898997880823
2011.75,38.6198771595848
2012,38.6498545310873
2012.25,38.6798319025897
2012.5,38.7098092740922
2012.75,38.7397866455946
2013,38.7697640170971
2013.25,38.7997413885996
2013.5,38.8049531266837
2013.75,38.8099493552674
2014,38.8149455838511
2014.25,38.8199418124349
2014.5,38.8249380410186
2014.75,38.8299342696024
2015,38.8349304981861
2015.25,38.8399267267699
2015.5,38.8449229553536
2015.75,38.8499191839374
2016,38.8549154125211
2016.25,38.8599116411048
2016.5,38.8649078696886
2016.75,38.8699040982723
2017,38.8749003268561
2017.25,38.8798965554398
2017.5,38.8848927840236
2017.75,38.8898890126073
2018,38.894885241191
2018.25,38.8998814697748
2018.5,38.9975539671707
2018.75,39.0974785388456
2019,39.1974031105205
2019.25,39.2973276821954
2019.5,39.3972522538702
2019.75,39.4971768255451
2020,39.5971013972199
2020.25,39.6970259688948
2020.5,39.7969505405696
2020.75,39.8968751122446
2021,39.9967996839194
2021.25,40.0967242555943
2021.5,40.1966488272691
2021.75,40.296573398944
2022,40.3964979706188
2022.25,40.4964225422938
2022.5,40.5963471139687
2022.75,40.6962716856435
2023,40.7961962573184
2023.25,40.8961208289932
2023.5,40.9768363205345
2023.75,41.0567759778743
2024,41.1367156352143
2024.25,41.2166552925541
2024.5,41.2965949498941
2024.75,41.3765346072339
2025,41.4564742645738
2025.25,41.5364139219137
2025.5,41.6163535792536
2025.75,41.6962932365935
2026,41.7762328939334
2026.25,41.8561725512733
2026.5,41.9361122086132
2026.75,42.0160518659531
2027,42.095991523293
2027.25,42.1759311806329
2027.5,42.2558708379728
2027.75,42.3358104953127
2028,42.4157501526525
2028.25,42.4956898099925
2028.5,42.5378147336662
2028.75,42.5777845623361
2029,42.6177543910061
2029.25,42.657724219676
2029.5,42.697694048346
2029.75,42.7376638770159
2030,42.7776337056859
2030.25,42.8176035343558
2030.5,42.8575733630258
2030.75,42.8975431916957
2031,42.9375130203657
2031.25,42.9774828490356
2031.5,43.0174526777055
2031.75,43.0574225063755
2032,43.0973923350454
2032.25,43.1373621637154
2032.5,43.1773319923853
2032.75,43.2173018210553
2033,43.2572716497252
2033.25,43.2972414783952
2033.5,43.2953485866169
2033.75,43.2903523580331
2034,43.2853561294494
2034.25,43.2803599008656
2034.5,43.2753636722819
2034.75,43.2703674436981
2035,43.2653712151144
2035.25,43.2603749865307
2035.5,43.2553787579469
2035.75,43.2503825293632
2036,43.2453863007794
2036.25,43.2403900721957
2036.5,43.2353938436119
2036.75,43.2303976150282
2037,43.2254013864445
2037.25,43.2204051578607
2037.5,43.215408929277
2037.75,43.2104127006932
2038,43.2054164721095
2038.25,43.2004202435257
2038.5,43.1633921195359
2038.75,43.123422290866
2039,43.083452462196
2039.25,43.0434826335261
2039.5,43.0035128048562
2039.75,42.9635429761862
2040,42.9235731475163
2040.25,42.8836033188463
2040.5,42.8436334901764
2040.75,42.8036636615064
2041,42.7636938328365
2041.25,42.7237240041665
2041.5,42.6837541754966
2041.75,42.6437843468266
2042,42.6038145181567
2042.25,42.5638446894867
2042.5,42.5238748608168
2042.75,42.4839050321468
2043,42.4439352034769
2043.25,42.4039653748069
2043.5,42.436004453863
2043.75,42.475974282533
2044,42.5159441112029
2044.25,42.5559139398728
2044.5,42.5958837685428
2044.75,42.6358535972127
2045,42.6758234258827
2045.25,42.7157932545526
2045.5,42.7557630832226
2045.75,42.7957329118925
2046,42.8357027405625
2046.25,42.8756725692324
2046.5,42.9156423979024
2046.75,42.9556122265723
2047,42.9955820552423
2047.25,43.0355518839122
2047.5,43.0755217125822
2047.75,43.1154915412521
2048,43.1554613699221
2048.25,43.195431198592
2048.5,43.3017779533781
2048.75,43.4166912108042
2049,43.5316044682303
2049.25,43.6465177256564
2049.5,43.7614309830826
2049.75,43.8763442405086
2050,43.9912574979348
2050.25,44.1061707553608
2050.5,44.2210840127869
2050.75,44.335997270213
2051,44.4509105276391
2051.25,44.5658237850652
2051.5,44.6807370424913
2051.75,44.7956502999174
2052,44.9105635573435
2052.25,45.0254768147695
2052.5,45.1403900721957
2052.75,45.2553033296217
2053,45.3702165870479
2053.25,45.485129844474
2053.5,45.5956934018175
2053.75,45.7056104306599
2054,45.8155274595022
2054.25,45.9254444883446
2054.5,46.0353615171869
2054.75,46.1452785460293
2055,46.2551955748716
2055.25,46.365112603714
2055.5,46.4750296325563
2055.75,46.5849466613987
2056,46.694863690241
2056.25,46.8047807190834
2056.5,46.9146977479258
2056.75,47.0246147767681
2057,47.1345318056105
2057.25,47.2444488344528
2057.5,47.3543658632952
2057.75,47.4642828921375
2058,47.5741999209799
2058.25,47.6841169498222
2058.5,47.8624223267843
2058.75,48.0522790129664
2059,48.2421356991488
2059.25,48.4319923853309
2059.5,48.6218490715133
2059.75,48.8117057576956
2060,49.0015624438777
2060.25,49.1914191300601
2060.5,49.3812758162422
2060.75,49.5711325024246
2061,49.7609891886067
2061.25,49.950845874789
2061.5,50.1407025609712
2061.75,50.3305592471535
2062,50.5204159333357
2062.25,50.710272619518
2062.5,50.9001293057002
2062.75,51.0899859918825
2063,51.2798426780648
2063.25,51.469699364247
2063.5,51.3782335404618
2063.75,51.2333429115334
2064,51.0884522826047
2064.25,50.9435616536762
2064.5,50.7986710247476
2064.75,50.6537803958191
2065,50.5088897668905
2065.25,50.363999137962
2065.5,50.2191085090334
2065.75,50.0742178801049
2066,49.9293272511763
2066.25,49.7844366222478
2066.5,49.6395459933192
2066.75,49.4946553643906
2067,49.3497647354621
2067.25,49.2048741065335
2067.5,49.059983477605
2067.75,48.9150928486764
2068,48.7702022197479
2068.25,48.6253115908193
2068.5,48.6041234151072
2068.75,48.609119643691
2069,48.6141158722747
2069.25,48.6191121008585
2069.5,48.6241083294422
2069.75,48.6291045580259
2070,48.6341007866097
2070.25,48.6390970151934
2070.5,48.6440932437772
2070.75,48.6490894723609
2071,48.6540857009447
2071.25,48.6590819295284
2071.5,48.6640781581121
2071.75,48.6690743866959
2072,48.6740706152796
2072.25,48.6790668438634
2072.5,48.6840630724471
2072.75,48.6890593010309
2073,48.6940555296146
2073.25,48.6990517581983
2073.5,48.5947523436657
2073.75,48.4648504004884
2074,48.3349484573112
2074.25,48.2050465141339
2074.5,48.0751445709564
2074.75,47.9452426277791
2075,47.8153406846019
2075.25,47.6854387414246
2075.5,47.5555367982471
2075.75,47.4256348550698
2076,47.2957329118926
2076.25,47.1658309687153
2076.5,47.0359290255378
2076.75,46.9060270823605
2077,46.7761251391833
2077.25,46.6462231960058
2077.5,46.5163212528285
2077.75,46.3864193096512
2078,46.256517366474
2078.25,46.1266154232965
2078.5,46.0245213893179
2078.75,45.9295930462268
2079,45.8346647031357
2079.25,45.7397363600445
2079.5,45.6448080169534
2079.75,45.5498796738623
2080,45.4549513307711
2080.25,45.36002298768
2080.5,45.2650946445889
2080.75,45.1701663014978
2081,45.0752379584066
2081.25,44.9803096153155
2081.5,44.8853812722244
2081.75,44.7904529291334
2082,44.6955245860421
2082.25,44.600596242951
2082.5,44.50566789986
2082.75,44.4107395567689
2083,44.3158112136776
2083.25,44.2208828705865
2083.5,44.2194856506591
2083.75,44.2444667935778
2084,44.2694479364965
2084.25,44.2944290794153
2084.5,44.319410222334
2084.75,44.3443913652527
2085,44.3693725081714
2085.25,44.3943536510901
2085.5,44.4193347940088
2085.75,44.4443159369276
2086,44.4692970798463
2086.25,44.494278222765
2086.5,44.5192593656837
2086.75,44.5442405086024
2087,44.5692216515211
2087.25,44.5942027944398
2087.5,44.6191839373586
2087.75,44.6441650802773
2088,44.669146223196
2088.25,44.6941273661147
2088.5,44.5929923494126
2088.75,44.4530979490679
2089,44.3132035487231
2089.25,44.1733091483784
2089.5,44.0334147480334
2089.75,43.8935203476887
2090,43.7536259473439
2090.25,43.6137315469989
2090.5,43.4738371466541
2090.75,43.3339427463094
2091,43.1940483459647
2091.25,43.0541539456197
2091.5,42.9142595452749
2091.75,42.7743651449302
2092,42.6344707445854
2092.25,42.4945763442404
2092.5,42.3546819438957
2092.75,42.2147875435509
2093,42.0748931432062
2093.25,41.9349987428612
2093.5,41.8962537265184
2093.75,41.8912574979347
2094,41.886261269351
2094.25,41.8812650407672
2094.5,41.8762688121835
2094.75,41.8712725835997
2095,41.866276355016
2095.25,41.8612801264322
2095.5,41.8562838978485
2095.75,41.8512876692648
2096,41.846291440681
2096.25,41.8412952120973
2096.5,41.8362989835135
2096.75,41.8313027549298
2097,41.826306526346
2097.25,41.8213102977623
2097.5,41.8163140691786
2097.75,41.8113178405948
2098,41.8063216120111
2098.25,41.8013253834273
2098.5,41.7559498581229
2098.75,41.6959951151179
2099,41.6360403721131
2099.25,41.5760856291082
2099.5,41.5161308861033
2099.75,41.4561761430983
2100,41.3962214000934
2100.25,41.3362666570885
2100.5,41.2763119140835
2100.75,41.2163571710786
2101,41.1564024280737
2101.25,41.0964476850688
2101.5,41.0364929420638
2101.75,40.9765381990589
2102,40.916583456054
2102.25,40.8566287130491
2102.5,40.7966739700441
2102.75,40.7367192270393
2103,40.6767644840344
2103.25,40.6168097410295
2103.5,40.6395495851442
2103.75,40.6945080995654
2104,40.7494666139865
2104.25,40.8044251284078
2104.5,40.8593836428289
2104.75,40.9143421572501
2105,40.9693006716712
2105.25,41.0242591860925
2105.5,41.0792177005136
2105.75,41.1341762149348
2106,41.1891347293559
2106.25,41.2440932437772
2106.5,41.2990517581984
2106.75,41.3540102726195
2107,41.4089687870407
2107.25,41.4639273014619
2107.5,41.5188858158831
2107.75,41.5738443303042
2108,41.6288028447255
2108.25,41.6837613591466
2108.5,41.787999712654
2108.75,41.9129054272475
2109,42.0378111418413
2109.25,42.1627168564348
2109.5,42.2876225710283
2109.75,42.4125282856218
2110,42.5374340002156
2110.25,42.6623397148091
2110.5,42.7872454294026
2110.75,42.9121511439964
2111,43.0370568585899
2111.25,43.1619625731834
2111.5,43.286868287777
2111.75,43.4117740023707
2112,43.5366797169642
2112.25,43.6615854315578
2112.5,43.7864911461513
2112.75,43.911396860745
2113,44.0363025753386
2113.25,44.1612082899321
2113.5,44.1345533565605
2113.75,44.0396250134693
2114,43.9446966703782
2114.25,43.8497683272871
2114.5,43.7548399841959
2114.75,43.6599116411048
2115,43.5649832980137
2115.25,43.4700549549227
2115.5,43.3751266118314
2115.75,43.2801982687403
2116,43.1852699256492
2116.25,43.0903415825582
2116.5,42.9954132394669
2116.75,42.9004848963758
2117,42.8055565532848
2117.25,42.7106282101935
2117.5,42.6156998671024
2117.75,42.5207715240114
2118,42.4258431809203
2118.25,42.330914837829
2118.5,42.333691318559
2118.75,42.3836536043964
2119,42.4336158902338
2119.25,42.4835781760713
2119.5,42.5335404619087
2119.75,42.5835027477461
2120,42.6334650335835
2120.25,42.683427319421
2120.5,42.7333896052584
2120.75,42.7833518910958
2121,42.8333141769333
2121.25,42.8832764627708
2121.5,42.9332387486082
2121.75,42.9832010344456
2122,43.0331633202831
2122.25,43.0831256061205
2122.5,43.1330878919579
2122.75,43.1830501777953
2123,43.2330124636328
2123.25,43.2829747494702
2123.5,43.2176574117309
2123.75,43.0927516971374
2124,42.9678459825437
2124.25,42.8429402679501
2124.5,42.7180345533566
2124.75,42.5931288387629
2125,42.4682231241693
2125.25,42.3433174095758
2125.5,42.2184116949823
2125.75,42.0935059803885
2126,41.968600265795
2126.25,41.8436945512015
2126.5,41.718788836608
2126.75,41.5938831220142
2127,41.4689774074207
2127.25,41.3440716928272
2127.5,41.2191659782334
2127.75,41.0942602636399
2128,40.9693545490464
2128.25,40.8444488344528
2128.5,40.8772386049353
2128.75,40.997148090945
2129,41.1170575769548
2129.25,41.2369670629646
2129.5,41.3568765489746
2129.75,41.4767860349844
2130,41.5966955209942
2130.25,41.716605007004
2130.5,41.836514493014
2130.75,41.9564239790237
2131,42.0763334650335
2131.25,42.1962429510435
2131.5,42.3161524370533
2131.75,42.4360619230631
2132,42.5559714090729
2132.25,42.6758808950829
2132.5,42.7957903810927
2132.75,42.9156998671025
2133,43.0356093531122
2133.25,43.1555188391222
2133.5,43.149714449912
2133.75,43.0697747925721
2134,42.9898351352321
2134.25,42.9098954778923
2134.5,42.8299558205524
2134.75,42.7500161632126
2135,42.6700765058726
2135.25,42.5901368485327
2135.5,42.5101971911929
2135.75,42.430257533853
2136,42.350317876513
2136.25,42.2703782191731
2136.5,42.1904385618333
2136.75,42.1104989044934
2137,42.0305592471534
2137.25,41.9506195898136
2137.5,41.8706799324737
2137.75,41.7907402751337
2138,41.7108006177939
2138.25,41.630860960454
2138.5,41.5693258144464
2138.75,41.5193635286088
2139,41.4694012427714
2139.25,41.419438956934
2139.5,41.3694766710966
2139.75,41.3195143852591
2140,41.2695520994217
2140.25,41.2195898135843
2140.5,41.1696275277469
2140.75,41.1196652419094
2141,41.069702956072
2141.25,41.0197406702346
2141.5,40.9697783843971
2141.75,40.9198160985597
2142,40.8698538127222
2142.25,40.8198915268848
2142.5,40.7699292410473
2142.75,40.7199669552099
2143,40.6700046693725
2143.25,40.6200423835351
2143.5,40.7047196580584
2143.75,40.8795876584893
2144,41.0544556589202
2144.25,41.2293236593515
2144.5,41.4041916597824
2144.75,41.5790596602134
2145,41.7539276606443
2145.25,41.9287956610755
2145.5,42.1036636615065
2145.75,42.2785316619374
2146,42.4533996623683
2146.25,42.6282676627996
2146.5,42.8031356632305
2146.75,42.9780036636615
2147,43.1528716640924
2147.25,43.3277396645236
2147.5,43.5026076649546
2147.75,43.6774756653855
2148,43.8523436658168
2148.25,44.0272116662477
2148.5,43.9979203333214
2148.75,43.8230523328904
2149,43.6481843324592
2149.25,43.4733163320283
2149.5,43.2984483315973
2149.75,43.1235803311664
2150,42.9487123307351
2150.25,42.7738443303042
2150.5,42.5989763298733
2150.75,42.4241083294423
2151,42.2492403290111
2151.25,42.0743723285801
2151.5,41.8995043281492
2151.75,41.724636327718
2152,41.549768327287
2152.25,41.3749003268561
2152.5,41.2000323264252
2152.75,41.0251643259939
2153,40.850296325563
2153.25,40.675428325132
2153.5,40.7108042096188
2153.75,40.905657124385
2154,41.1005100391509
2154.25,41.2953629539168
2154.5,41.4902158686831
2154.75,41.685068783449
2155,41.8799216982149
2155.25,42.0747746129808
2155.5,42.269627527747
2155.75,42.4644804425129
2156,42.6593333572788
2156.25,42.8541862720447
2156.5,43.049039186811
2156.75,43.2438921015768
2157,43.4387450163427
2157.25,43.6335979311086
2157.5,43.8284508458749
2157.75,44.0233037606408
2158,44.2181566754067
2158.25,44.4130095901729
2158.5,44.4253259581193
2158.75,44.2904277863583
2159,44.1555296145973
2159.25,44.020631442836
2159.5,43.885733271075
2159.75,43.750835099314
2160,43.615936927553
2160.25,43.4810387557917
2160.5,43.3461405840307
2160.75,43.2112424122697
2161,43.0763442405085
2161.25,42.9414460687475
2161.5,42.8065478969865
2161.75,42.6716497252255
2162,42.5367515534642
2162.25,42.4018533817032
2162.5,42.2669552099422
2162.75,42.1320570381812
2163,41.9971588664199
2163.25,41.8622606946589
2163.5,41.7327430767573
2163.75,41.6078373621638
2164,41.4829316475701
2164.25,41.3580259329765
2164.5,41.233120218383
2164.75,41.1082145037893
2165,40.9833087891957
2165.25,40.8584030746022
2165.5,40.7334973600087
2165.75,40.6085916454149
2166,40.4836859308214
2166.25,40.3587802162279
2166.5,40.2338745016344
2166.75,40.1089687870406
2167,39.9840630724471
2167.25,39.8591573578536
2167.5,39.73425164326
2167.75,39.6093459286663
2168,39.4844402140728
2168.25,39.3595344994792
2168.5,39.2869257569771
2168.75,39.2619446140584
2169,39.2369634711397
2169.25,39.211982328221
2169.5,39.1870011853022
2169.75,39.1620200423835
2170,39.1370388994648
2170.25,39.1120577565461
2170.5,39.0870766136274
2170.75,39.0620954707087
2171,39.03711432779
2171.25,39.0121331848712
2171.5,38.9871520419525
2171.75,38.9621708990338
2172,38.9371897561151
2172.25,38.9122086131963
2172.5,38.8872274702776
2172.75,38.8622463273589
2173,38.8372651844402
2173.25,38.8122840415215
2173.5,38.8152365216767
2173.75,38.8452138931791
2174,38.8751912646816
2174.25,38.9051686361841
2174.5,38.9351460076865
2174.75,38.965123379189
2175,38.9951007506914
2175.25,39.0250781221939
2175.5,39.0550554936963
2175.75,39.0850328651988
2176,39.1150102367013
2176.25,39.1449876082037
2176.5,39.1749649797062
2176.75,39.2049423512086
2177,39.2349197227111
2177.25,39.2648970942136
2177.5,39.294874465716
2177.75,39.3248518372185
2178,39.354829208721
2178.25,39.3848065802234
2178.5,39.3926080241371
2178.75,39.3776193383858
2179,39.3626306526346
2179.25,39.3476419668834
2179.5,39.3326532811322
2179.75,39.3176645953809
2180,39.3026759096297
2180.25,39.2876872238785
2180.5,39.2726985381272
2180.75,39.257709852376
2181,39.2427211666248
2181.25,39.2277324808735
2181.5,39.2127437951223
2181.75,39.1977551093711
2182,39.1827664236198
2182.25,39.1677777378686
2182.5,39.1527890521174
2182.75,39.1378003663662
2183,39.1228116806149
2183.25,39.1078229948637
2183.5,39.1095542545167
2183.75,39.1295391688517
2184,39.1495240831867
2184.25,39.1695089975216
2184.5,39.1894939118566
2184.75,39.2094788261916
2185,39.2294637405266
2185.25,39.2494486548616
2185.5,39.2694335691965
2185.75,39.2894184835315
2186,39.3094033978664
2186.25,39.3293883122014
2186.5,39.3493732265364
2186.75,39.3693581408714
2187,39.3893430552063
2187.25,39.4093279695413
2187.5,39.4293128838763
2187.75,39.4492977982113
2188,39.4692827125462
2188.25,39.4892676268812
2188.5,39.4884343234798
2188.75,39.4634531805611
2189,39.4384720376423
2189.25,39.4134908947236
2189.5,39.3885097518049
2189.75,39.3635286088862
2190,39.3385474659674
2190.25,39.3135663230487
2190.5,39.28858518013
2190.75,39.2636040372113
2191,39.2386228942926
2191.25,39.2136417513739
2191.5,39.1886606084552
2191.75,39.1636794655364
2192,39.1386983226177
2192.25,39.113717179699
2192.5,39.0887360367803
2192.75,39.0637548938616
2193,39.0387737509428
2193.25,39.0137926080241
2193.5,39.076082037283
2193.75,39.2459538091305
2194,39.4158255809777
2194.25,39.5856973528249
2194.5,39.7555691246721
2194.75,39.9254408965196
2195,40.0953126683668
2195.25,40.265184440214
2195.5,40.4350562120615
2195.75,40.6049279839087
2196,40.7747997557559
2196.25,40.9446715276031
2196.5,41.1145432994506
2196.75,41.2844150712978
2197,41.454286843145
2197.25,41.6241586149922
2197.5,41.7940303868397
2197.75,41.9639021586868
2198,42.133773930534
2198.25,42.3036457023815
2198.5,42.4324341798068
2198.75,42.5073776085629
2199,42.582321037319
2199.25,42.6572644660753
2199.5,42.7322078948314
2199.75,42.8071513235875
2200,42.8820947523436
2200.25,42.9570381810999
2200.5,43.031981609856
2200.75,43.1069250386121
2201,43.1818684673682
2201.25,43.2568118961245
2201.5,43.3317553248806
2201.75,43.4066987536367
2202,43.4816421823929
2202.25,43.5565856111491
2202.5,43.6315290399052
2202.75,43.7064724686613
2203,43.7814158974175
2203.25,43.8563593261737
2203.5,43.9709529111741
2203.75,44.1408246830213
2204,44.3106964548688
2204.25,44.480568226716
2204.5,44.6504399985632
2204.75,44.8203117704104
2205,44.9901835422579
2205.25,45.1600553141051
2205.5,45.3299270859523
2205.75,45.4997988577998
2206,45.669670629647
2206.25,45.8395424014942
2206.5,46.0094141733414
2206.75,46.1792859451889
2207,46.3491577170361
2207.25,46.5190294888833
2207.5,46.6889012607305
2207.75,46.858773032578
2208,47.0286448044251
2208.25,47.1985165762723
2208.5,47.2255773858696
2208.75,47.0407169282712
2209,46.8558564706727
2209.25,46.6709960130743
2209.5,46.4861355554756
2209.75,46.3012750978772
2210,46.1164146402788
2210.25,45.9315541826803
2210.5,45.7466937250816
2210.75,45.5618332674832
2211,45.3769728098848
2211.25,45.1921123522863
2211.5,45.0072518946876
2211.75,44.8223914370892
2212,44.6375309794908
2212.25,44.452670521892
2212.5,44.2678100642936
2212.75,44.0829496066952
2213,43.8980891490968
2213.25,43.713228691498
2213.5,43.6251679178191
2213.75,43.6901188894077
2214,43.7550698609963
2214.25,43.8200208325851
2214.5,43.8849718041737
2214.75,43.9499227757623
2215,44.014873747351
2215.25,44.0798247189397
2215.5,44.1447756905284
2215.75,44.209726662117
2216,44.2746776337057
2216.25,44.3396286052944
2216.5,44.404579576883
2216.75,44.4695305484716
2217,44.5344815200604
2217.25,44.599432491649
2217.5,44.6643834632377
2217.75,44.7293344348263
2218,44.794285406415
2218.25,44.8592363780037
2218.5,44.8683703889947
2218.75,44.7834345030709
2219,44.6984986171473
2219.25,44.6135627312237
2219.5,44.5286268453001
2219.75,44.4436909593764
2220,44.3587550734528
2220.25,44.2738191875292
2220.5,44.1888833016056
2220.75,44.1039474156819
2221,44.0190115297583
2221.25,43.9340756438347
2221.5,43.8491397579111
2221.75,43.7642038719873
2222,43.6792679860637
2222.25,43.5943321001401
2222.5,43.5093962142164
2222.75,43.4244603282928
2223,43.3395244423692
2223.25,43.2545885564456
2223.5,43.2267770554219
2223.75,43.301720484178
2224,43.3766639129341
2224.25,43.4516073416903
2224.5,43.5265507704465
2224.75,43.6014941992026
2225,43.6764376279587
2225.25,43.751381056715
2225.5,43.8263244854711
2225.75,43.9012679142272
2226,43.9762113429833
2226.25,44.0511547717396
2226.5,44.1260982004957
2226.75,44.2010416292518
2227,44.2759850580079
2227.25,44.3509284867642
2227.5,44.4258719155203
2227.75,44.5008153442764
2228,44.5757587730325
2228.25,44.6507022017888
2228.5,44.6709349520491
2228.75,44.5859990661255
2229,44.5010631802018
2229.25,44.4161272942782
2229.5,44.3311914083546
2229.75,44.246255522431
2230,44.1613196365072
2230.25,44.0763837505836
2230.5,43.9914478646601
2230.75,43.9065119787365
2231,43.8215760928127
2231.25,43.7366402068891
2231.5,43.6517043209655
2231.75,43.5667684350419
2232,43.4818325491182
2232.25,43.3968966631946
2232.5,43.311960777271
2232.75,43.2270248913472
2233,43.1420890054236
2233.25,43.0571531195
2233.5,42.9820229158436
2233.75,42.9270644014223
2234,42.8721058870012
2234.25,42.81714737258
2234.5,42.7621888581589
2234.75,42.7072303437376
2235,42.6522718293165
2235.25,42.5973133148953
2235.5,42.5423548004741
2235.75,42.4873962860529
2236,42.4324377716318
2236.25,42.3774792572106
2236.5,42.3225207427894
2236.75,42.2675622283682
2237,42.2126037139471
2237.25,42.1576451995259
2237.5,42.1026866851047
2237.75,42.0477281706835
2238,41.9927696562624
2238.25,41.9378111418412
2238.5,41.9031177041055
2238.75,41.9131101612729
2239,41.9231026184404
2239.25,41.9330950756079
2239.5,41.9430875327754
2239.75,41.9530799899429
2240,41.9630724471104
2240.25,41.9730649042779
2240.5,41.9830573614454
2240.75,41.9930498186128
2241,42.0030422757803
2241.25,42.0130347329478
2241.5,42.0230271901153
2241.75,42.0330196472828
2242,42.0430121044503
2242.25,42.0530045616178
2242.5,42.0629970187852
2242.75,42.0729894759527
2243,42.0829819331202
2243.25,42.0929743902877
2243.5,42.107417118638
2243.75,42.1323982615567
2244,42.1573794044754
2244.25,42.1823605473941
2244.5,42.2073416903128
2244.75,42.2323228332315
2245,42.2573039761503
2245.25,42.282285119069
2245.5,42.3072662619877
2245.75,42.3322474049065
2246,42.3572285478252
2246.25,42.3822096907439
2246.5,42.4071908336626
2246.75,42.4321719765813
2247,42.4571531195
2247.25,42.4821342624187
2247.5,42.5071154053374
2247.75,42.5320965482562
2248,42.5570776911749
2248.25,42.5820588340936
2248.5,42.6042239862074
2248.75,42.6192126719586
2249,42.6342013577099
2249.25,42.6491900434611
2249.5,42.6641787292123
2249.75,42.6791674149636
2250,42.6941561007148
2250.25,42.709144786466
2250.5,42.7241334722172
2250.75,42.7391221579685
2251,42.7541108437197
2251.25,42.7690995294709
2251.5,42.7840882152222
2251.75,42.7990769009734
2252,42.8140655867246
2252.25,42.8290542724759
2252.5,42.8440429582271
2252.75,42.8590316439783
2253,42.8740203297295
2253.25,42.8890090154808
2253.5,42.9013325670773
2253.75,42.9063287956611
2254,42.9113250242448
2254.25,42.9163212528286
2254.5,42.9213174814123
2254.75,42.926313709996
2255,42.9313099385798
2255.25,42.9363061671635
2255.5,42.9413023957473
2255.75,42.946298624331
2256,42.9512948529148
2256.25,42.9562910814985
2256.5,42.9612873100823
2256.75,42.966283538666
2257,42.9712797672497
2257.25,42.9762759958335
2257.5,42.9812722244172
2257.75,42.986268453001
2258,42.9912646815847
2258.25,42.9962609101685
2258.5,42.9773715024604
2258.75,42.8874393879531
2259,42.7975072734456
2259.25,42.7075751589383
2259.5,42.6176430444309
2259.75,42.5277109299234
2260,42.4377788154161
2260.25,42.3478467009087
2260.5,42.2579145864014
2260.75,42.1679824718939
2261,42.0780503573866
2261.25,41.9881182428792
2261.5,41.8981861283719
2261.75,41.8082540138644
2262,41.7183218993571
2262.25,41.6283897848497
2262.5,41.5384576703422
2262.75,41.4485255558349
2263,41.3585934413275
2263.25,41.2686613268202
2263.5,41.1775475018856
2263.75,41.0826191587946
2264,40.9876908157035
2264.25,40.8927624726124
2264.5,40.7978341295211
2264.75,40.7029057864301
2265,40.607977443339
2265.25,40.5130491002479
2265.5,40.4181207571567
2265.75,40.3231924140656
2266,40.2282640709745
2266.25,40.1333357278832
2266.5,40.0384073847922
2266.75,39.9434790417011
2267,39.84855069861
2267.25,39.7536223555188
2267.5,39.6586940124277
2267.75,39.5637656693366
2268,39.4688373262455
2268.25,39.3739089831543
2268.5,39.2911497431845
2268.75,39.2511799145146
2269,39.2112100858446
2269.25,39.1712402571746
2269.5,39.1312704285047
2269.75,39.0913005998348
2270,39.0513307711648
2270.25,39.0113609424949
2270.5,38.9713911138249
2270.75,38.931421285155
2271,38.891451456485
2271.25,38.8514816278151
2271.5,38.8115117991452
2271.75,38.7715419704752
2272,38.7315721418052
2272.25,38.6916023131353
2272.5,38.6516324844654
2272.75,38.6116626557954
2273,38.5716928271254
2273.25,38.5317229984555
2273.5,38.5175245142056
2273.75,38.6024604001294
2274,38.687396286053
2274.25,38.7723321719766
2274.5,38.8572680579002
2274.75,38.9422039438239
2275,39.0271398297475
2275.25,39.1120757156711
2275.5,39.1970116015947
2275.75,39.2819474875185
2276,39.3668833734421
2276.25,39.4518192593656
2276.5,39.5367551452894
2276.75,39.621691031213
2277,39.7066269171366
2277.25,39.7915628030602
2277.5,39.8764986889839
2277.75,39.9614345749075
2278,40.0463704608311
2278.25,40.1313063467547
2278.5,40.2162422326785
2278.75,40.3011781186021
2279,40.3861140045257
2279.25,40.4710498904493
2279.5,40.555985776373
2279.75,40.6409216622966
2280,40.7258575482202
2280.25,40.810793434144
2280.5,40.8957293200676
2280.75,40.9806652059912
2281,41.0656010919148
2281.25,41.1505369778385
2281.5,41.2354728637621
2281.75,41.3204087496857
2282,41.4053446356093
2282.25,41.490280521533
2282.5,41.5752164074566
2282.75,41.6601522933802
2283,41.745088179304
2283.25,41.8300240652276
2283.5,41.9167199454043
2283.75,42.0116482884953
2284,42.1065766315866
2284.25,42.2015049746777
2284.5,42.2964333177687
2284.75,42.3913616608598
2285,42.4862900039511
2285.25,42.5812183470421
2285.5,42.6761466901332
2285.75,42.7710750332243
2286,42.8660033763156
2286.25,42.9609317194066
2286.5,43.0558600624977
2286.75,43.150788405589
2287,43.24571674868
2287.25,43.3406450917711
2287.5,43.4355734348622
2287.75,43.5305017779534
2288,43.6254301210445
2288.25,43.7203584641356
2288.5,43.791954311986
2288.75,43.7419920261485
2289,43.692029740311
2289.25,43.6420674544736
2289.5,43.5921051686361
2289.75,43.5421428827987
2290,43.4921805969613
2290.25,43.4422183111239
2290.5,43.3922560252864
2290.75,43.342293739449
2291,43.2923314536116
2291.25,43.2423691677742
2291.5,43.1924068819367
2291.75,43.1424445960993
2292,43.0924823102619
2292.25,43.0425200244244
2292.5,42.9925577385869
2292.75,42.9425954527495
2293,42.8926331669121
2293.25,42.8426708810746
2293.5,42.7701052404726
2293.75,42.5652598685392
2294,42.3604144966058
2294.25,42.1555691246721
2294.5,41.9507237527387
2294.75,41.7458783808053
2295,41.5410330088719
2295.25,41.3361876369382
2295.5,41.1313422650048
2295.75,40.9264968930714
2296,40.7216515211381
2296.25,40.5168061492043
2296.5,40.3119607772709
2296.75,40.1071154053375
2297,39.9022700334038
2297.25,39.6974246614704
2297.5,39.492579289537
2297.75,39.2877339176037
2298,39.0828885456699
2298.25,38.8780431737365
2298.5,38.6973851513954
2298.75,38.6774002370605
2299,38.6574153227255
2299.25,38.6374304083905
2299.5,38.6174454940555
2299.75,38.5974605797205
2300,38.5774756653856
2300.25,38.5574907510506
2300.5,38.5375058367156
2300.75,38.5175209223806
2301,38.4975360080457
2301.25,38.4775510937107
2301.5,38.4575661793758
2301.75,38.4375812650408
2302,38.4175963507058
2302.25,38.3976114363708
2302.5,38.3776265220359
2302.75,38.3576416077009
2303,38.3376566933659
2303.25,38.3176717790309
2303.5,38.3052045544341
2303.75,38.3501706116878
2304,38.3951366689415
2304.25,38.4401027261952
2304.5,38.4850687834489
2304.75,38.5300348407026
2305,38.5750008979562
2305.25,38.6199669552099
2305.5,38.6649330124637
2305.75,38.7098990697173
2306,38.754865126971
2306.25,38.7998311842247
2306.5,38.8447972414784
2306.75,38.8897632987321
2307,38.9347293559858
2307.25,38.9796954132395
2307.5,39.0246614704932
2307.75,39.0696275277468
2308,39.1145935850005
2308.25,39.1595596422543
2308.5,39.1974857224956
2308.75,39.1725045795769
2309,39.1475234366582
2309.25,39.1225422937394
2309.5,39.0975611508207
2309.75,39.072580007902
2310,39.0475988649833
2310.25,39.0226177220646
2310.5,38.9976365791459
2310.75,38.9726554362272
2311,38.9476742933084
2311.25,38.9226931503897
2311.5,38.897712007471
2311.75,38.8727308645523
2312,38.8477497216335
2312.25,38.8227685787148
2312.5,38.7977874357961
2312.75,38.7728062928774
2313,38.7478251499587
2313.25,38.72284400704
2313.5,38.7076936891634
2313.75,38.7976258036709
2314,38.8875579181783
2314.25,38.9774900326856
2314.5,39.0674221471929
2314.75,39.1573542617004
2315,39.2472863762078
2315.25,39.3372184907151
2315.5,39.4271506052225
2315.75,39.51708271973
2316,39.6070148342373
2316.25,39.6969469487446
2316.5,39.7868790632521
2316.75,39.8768111777595
2317,39.9667432922668
2317.25,40.0566754067741
2317.5,40.1466075212816
2317.75,40.236539635789
2318,40.3264717502963
2318.25,40.4164038648036
2318.5,40.5042239862074
2318.75,40.5641787292123
2319,40.6241334722172
2319.25,40.6840882152221
2319.5,40.7440429582271
2319.75,40.803997701232
2320,40.8639524442369
2320.25,40.9239071872419
2320.5,40.9838619302468
2320.75,41.0438166732517
2321,41.1037714162566
2321.25,41.1637261592616
2321.5,41.2236809022665
2321.75,41.2836356452714
2322,41.3435903882762
2322.25,41.4035451312812
2322.5,41.4634998742861
2322.75,41.523454617291
2323,41.5834093602959
2323.25,41.6433641033009
2323.5,41.7052548399842
2323.75,41.8001831830753
2324,41.8951115261665
2324.25,41.9900398692576
2324.5,42.0849682123487
2324.75,42.1798965554398
2325,42.274824898531
2325.25,42.3697532416221
2325.5,42.4646815847132
2325.75,42.5596099278043
2326,42.6545382708955
2326.25,42.7494666139866
2326.5,42.8443949570777
2326.75,42.9393233001689
2327,43.03425164326
2327.25,43.1291799863511
2327.5,43.2241083294421
2327.75,43.3190366725334
2328,43.4139650156245
2328.25,43.5088933587156
2328.5,43.6012068532021
2328.75,43.6311842247046
2329,43.661161596207
2329.25,43.6911389677095
2329.5,43.7211163392119
2329.75,43.7510937107144
2330,43.7810710822169
2330.25,43.8110484537193
2330.5,43.8410258252218
2330.75,43.8710031967243
2331,43.9009805682267
2331.25,43.9309579397292
2331.5,43.9609353112317
2331.75,43.9909126827341
2332,44.0208900542366
2332.25,44.050867425739
2332.5,44.0808447972415
2332.75,44.1108221687439
2333,44.1407995402464
2333.25,44.1707769117488
2333.5,44.2003771416257
2333.75,44.2153658273769
2334,44.2303545131281
2334.25,44.2453431988794
2334.5,44.2603318846306
2334.75,44.2753205703818
2335,44.290309256133
2335.25,44.3052979418843
2335.5,44.3202866276355
2335.75,44.3352753133867
2336,44.350263999138
2336.25,44.3652526848892
2336.5,44.3802413706404
2336.75,44.3952300563916
2337,44.4102187421429
2337.25,44.4252074278941
2337.5,44.4401961136453
2337.75,44.4551847993966
2338,44.4701734851478
2338.25,44.485162170899
2338.5,44.4992960022988
2338.75,44.4293488021264
2339,44.3594016019539
2339.25,44.2894544017815
2339.5,44.2195072016092
2339.75,44.1495600014368
2340,44.0796128012643
2340.25,44.0096656010919
2340.5,43.9397184009195
2340.75,43.869771200747
2341,43.7998240005747
2341.25,43.7298768004023
2341.5,43.6599296002299
2341.75,43.5899824000574
2342,43.520035199885
2342.25,43.4500879997127
2342.5,43.3801407995403
2342.75,43.3101935993678
2343,43.2402463991954
2343.25,43.170299199023
2343.5,43.1003519988505
2343.75,43.0304047986782
2344,42.9604575985058
2344.25,42.8905103983334
2344.5,42.8205631981609
2344.75,42.7506159979886
2345,42.6806687978162
2345.25,42.6107215976438
2345.5,42.5407743974713
2345.75,42.4708271972989
2346,42.4008799971266
2346.25,42.3309327969542
2346.5,42.2609855967817
2346.75,42.1910383966093
2347,42.1210911964369
2347.25,42.0511439962644
2347.5,41.9811967960921
2347.75,41.9112495959197
2348,41.8413023957473
2348.25,41.7713551955748
2348.5,41.7014079954024
2348.75,41.6804173700657
2349,41.6604324557308
2349.25,41.6404475413958
2349.5,41.6204626270608
2349.75,41.6004777127258
2350,41.5804927983909
2350.25,41.5605078840559
2350.5,41.5405229697209
2350.75,41.5205380553859
2351,41.500553141051
2351.25,41.480568226716
2351.5,41.460583312381
2351.75,41.4405983980461
2352,41.4206134837111
2352.25,41.4006285693761
2352.5,41.3806436550411
2352.75,41.3606587407062
2353,41.3406738263712
2353.25,41.3206889120362
2353.5,41.3007039977012
2353.75,41.2035954168312
2354,41.1036708451564
2354.25,41.0037462734816
2354.5,40.9038217018067
2354.75,40.8038971301317
2355,40.7039725584569
2355.25,40.6040479867821
2355.5,40.5041234151073
2355.75,40.4041988434323
2356,40.3042742717575
2356.25,40.2043497000826
2356.5,40.1044251284078
2356.75,40.0045005567328
2357,39.904575985058
2357.25,39.8046514133832
2357.5,39.7047268417082
2357.75,39.6048022700334
2358,39.5048776983585
2358.25,39.4049531266837
2358.5,39.3050285550087
2358.75,39.347448008333
2359,39.3974102941705
2359.25,39.4473725800079
2359.5,39.4973348658454
2359.75,39.5472971516828
2360,39.5972594375202
2360.25,39.6472217233576
2360.5,39.6971840091951
2360.75,39.7471462950325
2361,39.7971085808699
2361.25,39.8470708667074
2361.5,39.8970331525448
2361.75,39.9469954383822
2362,39.9969577242196
2362.25,40.0469200100571
2362.5,40.0968822958946
2362.75,40.146844581732
2363,40.1968068675694
2363.25,40.2467691534069
2363.5,40.2967314392443
2363.75,40.328016235049
2364,40.3579936065515
2364.25,40.387970978054
2364.5,40.4179483495564
2364.75,40.4479257210589
2365,40.4779030925614
2365.25,40.5078804640638
2365.5,40.5378578355662
2365.75,40.5678352070687
2366,40.5978125785712
2366.25,40.6277899500736
2366.5,40.6577673215761
2366.75,40.6877446930785
2367,40.717722064581
2367.25,40.7476994360835
2367.5,40.7776768075859
2367.75,40.8076541790884
2368,40.8376315505909
2368.25,40.8676089220933
2368.5,40.8975862935958
2368.75,40.8816242232678
2369,40.8616393089329
2369.25,40.8416543945979
2369.5,40.8216694802629
2369.75,40.8016845659279
2370,40.781699651593
2370.25,40.761714737258
2370.5,40.741729822923
2370.75,40.721744908588
2371,40.7017599942531
2371.25,40.6817750799181
2371.5,40.6617901655831
2371.75,40.6418052512482
2372,40.6218203369132
2372.25,40.6018354225782
2372.5,40.5818505082432
2372.75,40.5618655939083
2373,40.5418806795733
2373.25,40.5218957652383
2373.5,40.5019108509033
2373.75,40.5271110951474
2374,40.5570884666499
2374.25,40.5870658381524
2374.5,40.6170432096548
2374.75,40.6470205811573
2375,40.6769979526597
2375.25,40.7069753241622
2375.5,40.7369526956647
2375.75,40.7669300671671
2376,40.7969074386696
2376.25,40.8268848101721
2376.5,40.8568621816745
2376.75,40.886839553177
2377,40.9168169246794
2377.25,40.9467942961819
2377.5,40.9767716676844
2377.75,41.0067490391868
2378,41.0367264106893
2378.25,41.0667037821917
2378.5,41.0966811536942
2378.75,41.1533170503933
2379,41.2132717933983
2379.25,41.2732265364032
2379.5,41.3331812794081
2379.75,41.3931360224129
2380,41.4530907654179
2380.25,41.5130455084228
2380.5,41.5730002514277
2380.75,41.6329549944327
2381,41.6929097374376
2381.25,41.7528644804425
2381.5,41.8128192234474
2381.75,41.8727739664524
2382,41.9327287094573
2382.25,41.9926834524622
2382.5,42.0526381954671
2382.75,42.1125929384721
2383,42.172547681477
2383.25,42.2325024244819
2383.5,42.2924571674868
2383.75,42.1689702237706
2384,42.0190833662584
2384.25,41.8691965087462
2384.5,41.7193096512337
2384.75,41.5694227937214
2385,41.4195359362092
2385.25,41.269649078697
2385.5,41.1197622211845
2385.75,40.9698753636722
2386,40.81998850616
2386.25,40.6701016486478
2386.5,40.5202147911353
2386.75,40.370327933623
2387,40.2204410761108
2387.25,40.0705542185986
2387.5,39.9206673610861
2387.75,39.7707805035739
2388,39.6208936460616
2388.25,39.4710067885491
2388.5,39.3211199310369
2388.75,39.1969864588197
2389,39.07707697281
2389.25,38.9571674868
2389.5,38.8372580007902
2389.75,38.7173485147804
2390,38.5974390287706
2390.25,38.4775295427606
2390.5,38.3576200567508
2390.75,38.237710570741
2391,38.117801084731
2391.25,37.9978915987213
2391.5,37.8779821127115
2391.75,37.7580726267017
2392,37.6381631406917
2392.25,37.5182536546819
2392.5,37.3983441686721
2392.75,37.2784346826623
2393,37.1585251966523
2393.25,37.0386157106426
2393.5,36.9187062246328
2393.75,36.8283143565246
2394,36.7433784706009
2394.25,36.6584425846773
2394.5,36.5735066987537
2394.75,36.4885708128299
2395,36.4036349269063
2395.25,36.3186990409827
2395.5,36.2337631550591
2395.75,36.1488272691354
2396,36.0638913832118
2396.25,35.9789554972882
2396.5,35.8940196113646
2396.75,35.8090837254408
2397,35.7241478395172
2397.25,35.6392119535937
2397.5,35.5542760676701
2397.75,35.4693401817463
2398,35.3844042958227
2398.25,35.2994684098991
2398.5,35.2145325239754
2398.75,35.299392981574
2399,35.4193024675838
2399.25,35.5392119535936
2399.5,35.6591214396036
2399.75,35.7790309256133
2400,35.8989404116231
2400.25,36.0188498976329
2400.5,36.1387593836429
2400.75,36.2586688696527
2401,36.3785783556625
2401.25,36.4984878416725
2401.5,36.6183973276823
2401.75,36.738306813692
2402,36.8582162997018
2402.25,36.9781257857118
2402.5,37.0980352717216
2402.75,37.2179447577314
2403,37.3378542437412
2403.25,37.4577637297512
2403.5,37.577673215761
2403.75,37.6853848640494
2404,37.790305664308
2404.25,37.8952264645667
2404.5,38.0001472648253
2404.75,38.1050680650838
2405,38.2099888653426
2405.25,38.3149096656011
2405.5,38.4198304658597
2405.75,38.5247512661183
2406,38.629672066377
2406.25,38.7345928666356
2406.5,38.8395136668941
2406.75,38.9444344671527
2407,39.0493552674114
2407.25,39.15427606767
2407.5,39.2591968679286
2407.75,39.3641176681873
2408,39.4690384684459
2408.25,39.5739592687044
2408.5,39.678880068963
2408.75,39.7279336230739
2409,39.7629072231601
2409.25,39.7978808232463
2409.5,39.8328544233325
2409.75,39.8678280234187
2410,39.9028016235049
2410.25,39.9377752235911
2410.5,39.9727488236773
2410.75,40.0077224237635
2411,40.0426960238497
2411.25,40.0776696239359
2411.5,40.1126432240222
2411.75,40.1476168241083
2412,40.1825904241945
2412.25,40.2175640242807
2412.5,40.252537624367
2412.75,40.2875112244532
2413,40.3224848245393
2413.25,40.3574584246255
2413.5,40.3924320247118
2413.75,40.3256133041198
2414,40.2306849610287
2414.25,40.1357566179377
2414.5,40.0408282748464
2414.75,39.9458999317553
2415,39.8509715886642
2415.25,39.756043245573
2415.5,39.6611149024819
2415.75,39.5661865593908
2416,39.4712582162998
2416.25,39.3763298732085
2416.5,39.2814015301174
2416.75,39.1864731870264
2417,39.0915448439353
2417.25,38.996616500844
2417.5,38.9016881577529
2417.75,38.8067598146619
2418,38.7118314715706
2418.25,38.6169031284795
2418.5,38.5219747853885
2418.75,38.4654430516146
2419,38.4204769943608
2419.25,38.3755109371071
2419.5,38.3305448798535
2419.75,38.2855788225998
2420,38.240612765346
2420.25,38.1956467080924
2420.5,38.1506806508387
2420.75,38.105714593585
2421,38.0607485363313
2421.25,38.0157824790776
2421.5,37.9708164218239
2421.75,37.9258503645702
2422,37.8808843073165
2422.25,37.8359182500629
2422.5,37.7909521928092
2422.75,37.7459861355554
2423,37.7010200783018
2423.25,37.6560540210481
2423.5,37.6110879637944
2423.75,37.6903415825582
2424,37.810251068568
2424.25,37.9301605545777
2424.5,38.0500700405875
2424.75,38.1699795265975
2425,38.2898890126073
2425.25,38.4097984986171
2425.5,38.5297079846271
2425.75,38.6496174706369
2426,38.7695269566467
2426.25,38.8894364426564
2426.5,39.0093459286664
2426.75,39.1292554146762
2427,39.249164900686
2427.25,39.3690743866958
2427.5,39.4889838727058
2427.75,39.6088933587156
2428,39.7288028447254
2428.25,39.8487123307354
2428.5,39.9686218167451
2428.75,40.0995977155993
2429,40.2344958873603
2429.25,40.3693940591216
2429.5,40.5042922308826
2429.75,40.6391904026436
2430,40.7740885744046
2430.25,40.9089867461658
2430.5,41.0438849179268
2430.75,41.1787830896878
2431,41.3136812614488
2431.25,41.4485794332101
2431.5,41.5834776049711
2431.75,41.7183757767321
2432,41.8532739484934
2432.25,41.9881721202544
2432.5,42.1230702920154
2432.75,42.2579684637764
2433,42.3928666355376
2433.25,42.5277648072986
2433.5,42.6626629790596
2433.75,42.7325203836069
2434,42.7774864408606
2434.25,42.8224524981143
2434.5,42.867418555368
2434.75,42.9123846126217
2435,42.9573506698754
2435.25,43.0023167271291
2435.5,43.0472827843827
2435.75,43.0922488416365
2436,43.1372148988901
2436.25,43.1821809561438
2436.5,43.2271470133975
2436.75,43.2721130706512
2437,43.3170791279049
2437.25,43.3620451851586
2437.5,43.4070112424122
2437.75,43.451977299666
2438,43.4969433569197
2438.25,43.5419094141733
2438.5,43.5868754714271
2438.75,43.5540066807945
2439,43.4890557092059
2439.25,43.4241047376172
2439.5,43.3591537660285
2439.75,43.2942027944398
2440,43.2292518228512
2440.25,43.1643008512626
2440.5,43.0993498796738
2440.75,43.0343989080852
2441,42.9694479364966
2441.25,42.9044969649079
2441.5,42.8395459933192
2441.75,42.7745950217305
2442,42.7096440501419
2442.25,42.6446930785532
2442.5,42.5797421069645
2442.75,42.5147911353759
2443,42.4498401637873
2443.25,42.3848891921985
2443.5,42.3199382206099
2443.75,42.3173125965303
2444,42.342293739449
2444.25,42.3672748823677
2444.5,42.3922560252865
2444.75,42.4172371682052
2445,42.4422183111239
2445.25,42.4671994540426
2445.5,42.4921805969613
2445.75,42.51716173988
2446,42.5421428827988
2446.25,42.5671240257175
2446.5,42.5921051686362
2446.75,42.6170863115549
2447,42.6420674544736
2447.25,42.6670485973923
2447.5,42.692029740311
2447.75,42.7170108832297
2448,42.7419920261485
2448.25,42.7669731690672
2448.5,42.7919543119859
2448.75,42.7729032721525
2449,42.7329334434826
2449.25,42.6929636148127
2449.5,42.6529937861428
2449.75,42.6130239574728
2450,42.5730541288028
2450.25,42.5330843001329
2450.5,42.493114471463
2450.75,42.453144642793
2451,42.413174814123
2451.25,42.3732049854531
2451.5,42.3332351567832
2451.75,42.2932653281132
2452,42.2532954994433
2452.25,42.2133256707733
2452.5,42.1733558421033
2452.75,42.1333860134334
2453,42.0934161847635
2453.25,42.0534463560936
2453.5,42.0134765274236
2453.75,41.9370784095399
2454,41.8421500664488
2454.25,41.7472217233577
2454.5,41.6522933802665
2454.75,41.5573650371754
2455,41.4624366940843
2455.25,41.367508350993
2455.5,41.272580007902
2455.75,41.1776516648109
2456,41.0827233217198
2456.25,40.9877949786286
2456.5,40.8928666355375
2456.75,40.7979382924464
2457,40.7030099493553
2457.25,40.6080816062641
2457.5,40.513153263173
2457.75,40.4182249200819
2458,40.3232965769908
2458.25,40.2283682338996
2458.5,40.1334398908085
2458.75,40.1841420925972
2459,40.3140440357747
2459.25,40.443945978952
2459.5,40.5738479221292
2459.75,40.7037498653065
2460,40.833651808484
2460.25,40.9635537516613
2460.5,41.0934556948385
2460.75,41.2233576380158
2461,41.3532595811933
2461.25,41.4831615243706
2461.5,41.6130634675478
2461.75,41.7429654107251
2462,41.8728673539026
2462.25,42.0027692970799
2462.5,42.1326712402571
2462.75,42.2625731834346
2463,42.3924751266119
2463.25,42.5223770697892
2463.5,42.6522790129664
2463.75,42.6905175819834
2464,42.6755288962322
2464.25,42.660540210481
2464.5,42.6455515247297
2464.75,42.6305628389785
2465,42.6155741532273
2465.25,42.600585467476
2465.5,42.5855967817248
2465.75,42.5706080959736
2466,42.5556194102223
2466.25,42.5406307244711
2466.5,42.5256420387199
2466.75,42.5106533529686
2467,42.4956646672174
2467.25,42.4806759814662
2467.5,42.4656872957149
2467.75,42.4506986099637
2468,42.4357099242125
2468.25,42.4207212384613
2468.5,42.40573255271
2468.75,42.47713444201
2469,42.6020401566035
2469.25,42.7269458711973
2469.5,42.8518515857908
2469.75,42.9767573003843
2470,43.1016630149778
2470.25,43.2265687295716
2470.5,43.3514744441651
2470.75,43.4763801587586
2471,43.6012858733522
2471.25,43.7261915879459
2471.5,43.8510973025394
2471.75,43.976003017133
2472,44.1009087317267
2472.25,44.2258144463202
2472.5,44.3507201609138
2472.75,44.4756258755073
2473,44.600531590101
2473.25,44.7254373046946
2473.5,44.8503430192881
2473.75,44.7765920764342
2474,44.5717467045004
2474.25,44.366901332567
2474.5,44.1620559606337
2474.75,43.9572105887003
2475,43.7523652167665
2475.25,43.5475198448331
2475.5,43.3426744728998
2475.75,43.137829100966
2476,42.9329837290326
2476.25,42.7281383570992
2476.5,42.5232929851659
2476.75,42.3184476132321
2477,42.1136022412987
2477.25,41.9087568693654
2477.5,41.703911497432
2477.75,41.4990661254982
2478,41.2942207535649
2478.25,41.0893753816315
2478.5,40.8845300096981
2478.75,40.8352142523617
2479,40.8951689953665
2479.25,40.9551237383714
2479.5,41.0150784813764
2479.75,41.0750332243813
2480,41.1349879673862
2480.25,41.1949427103911
2480.5,41.2548974533961
2480.75,41.314852196401
2481,41.3748069394059
