1094,907.413110599379
1094.25,906.64518870162
1094.5,905.851524497144
1094.75,905.22979064282
1095,904.987160895667
1095.25,905.259489987951
1095.5,905.684813297038
1095.75,905.68900309113
1096,904.698468576332
1096.25,902.427694888337
1096.5,899.237564333813
1096.75,895.576991321744
1097,891.88555904093
1097.25,888.450327376466
1097.5,885.433974605568
1097.75,882.995549624591
1098,881.240366054567
1098.25,880.06016039494
1098.5,879.293613698548
1098.75,878.788743611609
1099,878.641638616817
1099.25,879.216521427204
1099.5,880.890971638126
1099.75,883.892569568745
1100,887.76055004832
1100.25,891.836815963566
1100.5,895.472704131935
1100.75,898.328755555868
1101,900.436429130285
1101.25,901.849105207589
1101.5,902.635241950585
1101.75,902.957140216427
1102,903.013145465157
1102.25,903.001654154511
1102.5,903.1181054217
1102.75,903.552139116554
1103,904.492720943389
1103.25,906.096395504007
1103.5,908.095261927467
1103.75,909.923171372638
1104,911.007783134384
1104.25,910.934819576166
1104.5,909.895103857979
1104.75,908.224235554379
1105,906.260074880943
1105.25,904.445718453511
1105.5,903.371952472579
1105.75,903.640621303194
1106,905.745483025381
1106.25,909.216550483606
1106.5,913.077691712235
1106.75,916.348798889942
1107,918.40684027633
1107.25,919.610005512126
1107.5,920.483551955549
1107.75,921.53380484623
1108,922.745346578552
1108.25,923.528024981907
1108.5,923.262126324863
1108.75,921.455677264974
1109,918.627113793022
1109.25,915.77506271853
1109.5,913.900913770509
1109.75,913.708430719401
1110,914.982868811442
1110.25,917.332852871118
1110.5,920.36505233445
1110.75,923.622445633772
1111,926.571772312388
1111.25,928.675281480295
1111.5,929.477489267832
1111.75,929.226569113221
1112,928.527825562625
1112.25,927.989351411568
1112.5,927.994228215027
1112.75,928.125458785008
1113,927.788296445021
1113.25,926.398399002806
1113.5,924.023274247643
1113.75,921.7569838936
1114,920.783814669621
1114.25,922.198775694827
1114.5,925.858811714318
1114.75,930.715466936516
1115,935.699589789576
1115.25,939.8060798905
1115.5,942.340846013159
1115.75,942.704060381061
1116,940.298955885478
1116.25,935.247651929303
1116.5,929.314409350604
1116.75,924.49172668196
1117,922.719105579438
1117.25,924.176716133913
1117.5,926.919575411206
1117.75,928.875719842745
1118,928.214377594585
1118.25,925.306756407668
1118.5,921.702914619844
1118.75,918.964077902404
1119,918.173842519773
1119.25,918.615664504211
1119.5,919.148982378572
1119.75,918.646573288232
1120,916.723754744613
1120.25,914.114734999414
1120.5,911.646320483487
1120.75,910.099022840957
1121,909.717765984973
1121.25,910.403158832677
1121.5,912.050126403261
1121.75,914.54420551475
1122,917.735994733817
1122.25,921.467966784371
1122.5,925.577341496263
1122.75,929.665119934188
1123,933.005524426311
1123.25,934.848812337047
1123.5,934.545105371618
1123.75,932.550143391257
1124,930.007556372829
1124.25,928.071349660946
1124.5,927.648395543132
1124.75,928.462702747357
1125,929.884793730729
1125.25,931.286523560463
1125.5,932.251378837265
1125.75,932.79912760058
1126,933.003379197159
1126.25,932.935866575055
1126.5,932.62605440015
1126.75,932.061627063381
1127,931.228490162558
1127.25,930.139026466661
1127.5,929.019531910459
1127.75,928.199808166467
1128,928.010323809332
1128.25,928.690766053152
1128.5,930.166850503273
1128.75,932.296463389842
1129,934.937617959858
1129.25,937.955767976153
1129.5,941.227797396437
1129.75,944.631561525881
1130,948.018626863655
1130.25,950.848378940178
1130.5,952.27890267902
1130.75,951.460567145394
1131,947.850870973115
1131.25,943.058392541545
1131.5,939.611229785613
1131.75,940.04094167222
1132,945.955077591177
1132.25,955.405565212791
1132.5,965.58920711116
1132.75,973.706827475126
1133,977.431739970269
1133.25,975.347401917973
1133.5,966.140801001382
1133.75,948.573751995878
1134,925.0207266998
1134.25,903.002509206843
1134.5,890.433531164194
1134.75,894.735259068014
1135,913.914258738229
1135.25,937.520919992456
1135.5,954.805105986413
1135.75,957.692421717419
1136,949.43183055865
1136.25,936.26711887306
1136.5,924.437206620802
1136.75,918.377462286399
1137,918.034076463442
1137.25,922.666495231658
1137.5,931.495382603853
1137.75,942.641872198256
1138,952.998179223986
1138.25,959.391758776773
1138.5,959.109296483783
1138.75,953.441798305066
1139,945.7451735062
1139.25,939.392489527696
1139.5,937.092915696517
1139.75,938.067526703059
1140,940.39584475888
1140.25,942.158377744604
1140.5,942.123331084866
1140.75,940.808659486268
1141,939.006511635288
1141.25,937.499129193636
1141.5,936.648932589003
1141.75,936.252019324857
1142,936.064454076132
1142.25,935.850671405925
1142.5,935.485012392702
1142.75,934.919210347726
1143,934.106613792718
1143.25,933.043350160883
1143.5,931.964229081819
1143.75,931.186807148199
1144,931.028416570691
1144.25,931.678860360725
1144.5,933.003747107726
1144.75,934.817931426884
1145,936.92901705656
1145.25,938.90691953189
1145.5,940.036167204279
1145.75,939.584397615062
1146,936.915864386097
1146.25,932.442431800451
1146.5,927.217615178675
1146.75,922.304186357754
1147,918.574668157147
1147.25,915.962616944059
1147.5,914.112415851454
1147.75,912.668374438172
1148,911.275719465169
1148.25,909.581497557976
1148.5,907.232969911374
1148.75,903.925304301064
1149,900.098780517343
1149.25,896.78208795083
1149.5,895.019933368359
1149.75,895.288449296756
1150,895.54788670173
1150.25,893.062849424466
1150.5,885.189690048797
1150.75,873.155650911221
1151,863.399208194936
1151.25,862.726130744869
1151.5,876.339926911843
1151.75,898.697456369057
1152,919.836339562935
1152.25,929.928065536475
1152.5,925.842075282278
1152.75,913.751810274119
1153,900.517117619531
1153.25,892.560147818861
1153.5,891.140217704672
1153.75,894.15000994895
1154,899.424554345337
1154.25,905.057328556151
1154.5,909.968975067917
1154.75,913.245272692131
1155,914.019414089492
1155.25,912.631782357021
1155.5,910.698562752215
1155.75,909.897089873131
1156,911.625744639095
1156.25,915.366295099504
1156.5,919.795118154904
1156.75,923.587322127149
1157,925.820857740537
1157.25,926.516605990829
1157.5,925.830165546137
1157.75,923.939763360286
1158,921.566651442116
1158.25,919.987952440791
1158.5,920.505986848504
1158.75,924.176950781969
1159,930.185214802687
1159.25,936.855070961465
1159.5,942.50673050867
1159.75,945.954450712973
1160,947.449958825689
1160.25,947.504973445581
1160.5,946.630047310652
1160.75,945.268679259312
1161,943.762067407538
1161.25,942.442797920105
1161.5,941.638694568362
1161.75,941.590539105895
1162,942.462990550803
1162.25,944.418141692195
1162.5,947.526591249984
1162.75,951.145549500494
1163,954.297328460136
1163.25,956.002307076951
1163.5,955.611720781947
1163.75,953.786410390284
1164,951.511198932521
1164.25,949.769392205593
1164.5,949.120359422263
1164.75,949.121628525657
1165,949.186048173704
1165.25,948.73726548135
1165.5,947.673941311245
1165.75,946.545792394977
1166,945.949642912655
1166.25,946.45395184102
1166.5,948.174154488554
1166.75,950.861717929338
1167,954.257823033361
1167.25,958.059413155783
1167.5,961.636290712242
1167.75,964.211555044958
1168,965.007611837283
1168.25,963.544253477687
1168.5,960.604812187979
1168.75,957.308139705559
1169,954.772517284247
1169.25,953.652281825715
1169.5,953.301169120197
1169.75,952.846720390673
1170,951.42380561905
1170.25,948.734106075261
1170.5,945.439964575045
1170.75,942.296763259224
1171,940.032277816298
1171.25,938.715226969223
1171.5,937.741593898877
1171.75,936.477019256599
1172,934.355883006714
1172.25,931.45643165115
1172.5,928.208800686663
1172.75,925.046699843009
1173,922.39845561107
1173.25,920.669821530845
1173.5,920.26063547034
1173.75,921.564175574214
1174,924.395516958182
1174.25,927.547275764249
1174.5,929.707502143975
1174.75,929.661254993259
1175,927.642655385164
1175.25,925.000050299063
1175.5,923.110375499864
1175.75,923.089172611588
1176,924.551187985087
1176.25,926.576551466213
1176.5,928.246080956956
1176.75,928.971063527966
1177,928.924145348089
1177.25,928.384821053152
1177.5,927.630294544476
1177.75,926.878825774177
1178,926.286029639957
1178.25,926.004489223314
1178.5,926.14399528839
1178.75,926.459647174636
1179,926.531180007712
1179.25,925.937112010888
1179.5,924.41002358237
1179.75,922.196333241683
1180,919.649455234361
1180.25,917.124300561217
1180.5,915.052052996228
1180.75,913.974932234072
1181,914.443916196086
1181.25,916.90873326544
1181.5,920.716938442519
1181.75,924.539008309416
1182,927.03557504383
1182.25,927.312566415358
1182.5,926.128290594622
1182.75,924.624247604009
1183,923.931922264309
1183.25,924.505260110657
1183.5,925.701416562393
1183.75,926.777534136496
1184,927.036544226868
1184.25,926.412154712119
1184.5,925.297263919727
1184.75,924.095153822464
1185,923.136827401117
1185.25,922.377825455913
1185.5,921.652152730298
1185.75,920.794276141445
1186,919.72865561246
1186.25,918.571043828883
1186.5,917.461666479649
1186.75,916.533273965494
1187,915.770932550841
1187.25,915.024357570286
1187.5,914.138261593285
1187.75,913.026460082613
1188,912.018325526149
1188.25,911.597834944
1188.5,912.248017791056
1188.75,914.22466943969
1189,917.289986683123
1189.25,921.141406403449
1189.5,925.473453757133
1189.75,929.929709391714
1190,934.110384608852
1190.25,937.614306336039
1190.5,940.073318184325
1190.75,941.315236285773
1191,941.239902573851
1191.25,939.74752399141
1191.5,936.954353153721
1191.75,933.586130047718
1192,930.475304263962
1192.25,928.444033422439
1192.5,927.793444817507
1192.75,928.068144217856
1193,928.753284212408
1193.25,929.359730014754
1193.5,929.725749048694
1193.75,929.915203186419
1194,929.996415776019
1194.25,930.106818402207
1194.5,930.729204551519
1194.75,932.454032822106
1195,935.866401773127
1195.25,940.491757013883
1195.5,943.531362663598
1195.75,941.878119811829
1196,932.668733257733
1196.25,919.649491469254
1196.5,913.786139631827
1196.75,914.76874205343
1197,915.751344475034
1197.25,916.733946896637
1197.5,917.716549318241
1197.75,918.699151739845
1198,919.681754161448
1198.25,920.664356583052
1198.5,921.646959004656
1198.75,922.629561426259
1199,923.612163847863
1199.25,924.594766269467
1199.5,925.57736869107
1199.75,926.559971112674
1200,927.542573534277
1200.25,928.525175955881
1200.5,929.507778377485
1200.75,930.490380799088
1201,931.472983220692
1201.25,932.455585642295
1201.5,933.438188063899
1201.75,934.420790485503
1202,935.403392907106
1202.25,936.38599532871
1202.5,937.368597750314
1202.75,938.351200171917
1203,939.333802593521
1203.25,940.316405015124
1203.5,941.299007436728
1203.75,942.281609858332
1204,943.264212279935
1204.25,944.246814701539
1204.5,945.229417123143
1204.75,946.212019544746
1205,947.19462196635
1205.25,948.177224387954
1205.5,949.159826809557
1205.75,950.142429231161
1206,951.125031652764
1206.25,952.107634074368
1206.5,953.090236495972
1206.75,954.072838917575
1207,955.055441339179
1207.25,956.038043760782
1207.5,957.020646182386
1207.75,958.00324860399
1208,958.985851025593
1208.25,959.968453447197
1208.5,960.951055868801
1208.75,961.933658290404
1209,962.916260712008
1209.25,963.898863133611
1209.5,964.881465555215
1209.75,965.864067976819
1210,966.846670398422
1210.25,967.829272820026
1210.5,968.81187524163
1210.75,969.794477663233
1211,968.220726059842
1211.25,966.703683270129
1211.5,965.730457840474
1211.75,965.731816532259
1212,967.131273254584
1212.25,970.338282925981
1212.5,974.998875666588
1212.75,979.619674877735
1213,982.614247881266
1213.25,982.450398197473
1213.5,979.02694701735
1213.75,973.783827394776
1214,968.237265346346
1214.25,963.852932034998
1214.5,961.124759789762
1214.75,959.670529255445
1215,959.07664793318
1215.25,958.920092759945
1215.5,958.671748689232
1215.75,957.735697748004
1216,955.514980144757
1216.25,951.5916890901
1216.5,946.714217671691
1216.75,942.098014289403
1217,938.959766370902
1217.25,938.117882323818
1217.5,938.889991401491
1217.75,940.240289005632
1218,941.138594257272
1218.25,941.149531999466
1218.5,940.949500930496
1218.75,941.336776315433
1219,943.080786895619
1219.25,946.287697188281
1219.5,950.400521811767
1219.75,954.833451725737
1220,959.001274940719
1220.25,962.324297583766
1220.5,964.225809345465
1220.75,964.129129153203
1221,961.718042913269
1221.25,958.050282055098
1221.5,954.6349625991
1221.75,952.981398429814
1222,954.021594883438
1222.25,956.712760157234
1222.5,959.590199515653
1222.75,961.194682676174
1223,960.795912690544
1223.25,959.117267314959
1223.5,957.05456749948
1223.75,955.489850798214
1224,954.75793973451
1224.25,954.476147410206
1224.5,954.213158944184
1224.75,953.553465118591
1225,952.345829440073
1225.25,950.657664524677
1225.5,948.562961073712
1225.75,946.187408435793
1226,944.096871350185
1226.25,943.079772408897
1226.5,943.926255026053
1226.75,947.121768686608
1227,951.796703883397
1227.25,956.704889972812
1227.5,960.60165149158
1227.75,962.613413546089
1228,962.721119808951
1228.25,961.02556490822
1228.5,957.634386783698
1228.75,953.023438563954
1229,948.216185208859
1229.25,944.280595612628
1229.5,942.236272419433
1229.75,942.055121895152
1230,942.696099751523
1230.25,943.076747093075
1230.5,942.251784081904
1230.75,940.506412318984
1231,938.775219314787
1231.25,937.998649871224
1231.5,938.822556351585
1231.75,940.599829596477
1232,942.328739992063
1232.25,943.010429201334
1232.5,942.141768652889
1232.75,940.273908211385
1233,938.092956678142
1233.25,936.272313142196
1233.5,935.101526180695
1233.75,934.427291917087
1234,934.07172069589
1234.25,933.894412182761
1234.5,934.145649773274
1234.75,935.307874844358
1235,937.866594964973
1235.25,942.059105930613
1235.5,947.00782066317
1235.75,951.522263277785
1236,954.414942785727
1236.25,955.064052822812
1236.5,954.076913363872
1236.75,952.222157537854
1237,950.261457607666
1237.25,948.675270821337
1237.5,947.572485978189
1237.75,947.036519452765
1238,947.136258989997
1238.25,947.714010235737
1238.5,948.43283204773
1238.75,948.950884992625
1239,948.943238212872
1239.25,948.209245189897
1239.5,946.603698801302
1239.75,943.98164784632
1240,940.454246991933
1240.25,937.139465499155
1240.5,935.402649469059
1240.75,936.602179985376
1241,941.057427573712
1241.25,946.954601481632
1241.5,952.217935038796
1241.75,954.843622747889
1242,954.597632613546
1242.25,953.081855688147
1242.5,951.983379691245
1242.75,952.822787958461
1243,955.208364777512
1243.25,957.525634223252
1243.5,958.140228756336
1243.75,955.785571890456
1244,951.430259824234
1244.25,946.882662121287
1244.5,943.952638611159
1244.75,943.837538383806
1245,945.496467337992
1245.25,947.377415254506
1245.5,947.936146415504
1245.75,946.530700625615
1246,944.251167720173
1246.25,942.383834432062
1246.5,942.170777830102
1246.75,943.631945863851
1247,945.438886548626
1247.25,946.193607512572
1247.5,944.653869564933
1247.75,941.217259292535
1248,937.263481125618
1248.25,934.185515163862
1248.5,933.109133771847
1248.75,933.760255466657
1249,935.407942078694
1249.25,937.321887882511
1249.5,939.03830061333
1249.75,940.732227653412
1250,942.672451013515
1250.25,945.112472220118
1250.5,947.795554093836
1250.75,949.846910377657
1251,950.354663585857
1251.25,948.517386413697
1251.5,944.894933277164
1251.75,940.963559430913
1252,938.21660292335
1252.25,937.880320808701
1252.5,939.499827586147
1252.75,941.967770575857
1253,944.175589507759
1253.25,945.333918612393
1253.5,945.604989807771
1253.75,945.327580792348
1254,944.839665780395
1254.25,944.427196854179
1254.5,944.29321931816
1254.75,944.633374334918
1255,945.620038041754
1255.25,946.984857651986
1255.5,948.065562631193
1255.75,948.186016674934
1256,946.790873332947
1256.25,944.33139461178
1256.5,941.758778836715
1256.75,940.027838379414
1257,939.889715691483
1257.25,941.20725423263
1257.5,943.60118459845
1257.75,946.691766569808
1258,950.013380399459
1258.25,952.914733867811
1258.5,954.720307019621
1258.75,954.773304973401
1259,953.039790160089
1259.25,950.238909846156
1259.5,947.134876541963
1259.75,944.459217475167
1260,942.468459515467
1260.25,941.060537556439
1260.5,940.124561226203
1260.75,939.54025232851
1261,939.122953798418
1261.25,938.661001445406
1261.5,937.942640548266
1261.75,936.765117400861
1262,934.955454920801
1262.25,932.346825039627
1262.5,928.779999313007
1262.75,924.631945820521
1263,921.160472495939
1263.25,919.705285084443
1263.5,921.493817591758
1263.75,926.017220073848
1264,931.400619822601
1264.25,935.732262559572
1264.5,937.487748023453
1264.75,937.163865383236
1265,935.914497920529
1265.25,934.892557279224
1265.5,934.810993095776
1265.75,935.307947670821
1266,935.860500388587
1266.25,935.958792884941
1266.5,935.52598964511
1266.75,935.007970701244
1267,934.881816385287
1267.25,935.574056840933
1267.5,936.959105495134
1267.75,938.571347087161
1268,939.940183548537
1268.25,940.697214905295
1268.5,940.957617714109
1268.75,940.979457498728
1269,941.020438611639
1269.25,941.238160228247
1269.5,941.556708696959
1269.75,941.866936648412
1270,942.06186915524
1270.25,942.109692711001
1270.5,942.071171774218
1270.75,942.012774052327
1271,942.016589109358
1271.25,942.356093263453
1271.5,943.433047898791
1271.75,945.651579342877
1272,949.316222378486
1272.25,954.166518756175
1272.5,959.743016031144
1272.75,965.585985741655
1273,971.165419092793
1273.25,975.742776229079
1273.5,978.541020374884
1273.75,978.789355816187
1274,976.54790556256
1274.25,973.532997839642
1274.5,971.657307868604
1274.75,972.810412480314
1275,977.405187030925
1275.25,983.51182549856
1275.5,988.992579747512
1275.75,991.75546389294
1276,991.154743875785
1276.25,988.250815600098
1276.5,984.202258193572
1276.75,980.149251943617
1277,976.749444347992
1277.25,974.142469903485
1277.5,972.442457024242
1277.75,971.754224227838
1278,972.007645163997
1278.25,972.976991295023
1278.5,974.431109378853
1278.75,976.164457140513
1279,978.279947831173
1279.25,981.084713713198
1279.5,984.889532878062
1279.75,989.873361510709
1280,995.094402399348
1280.25,999.044867888896
1280.5,1000.21261342687
1280.75,997.370898276057
1281,991.315591779124
1281.25,983.716253825371
1281.5,976.245908527328
1281.75,970.411310146162
1282,966.54119364375
1282.25,964.455552256591
1282.5,963.972364311576
1282.75,964.827655136075
1283,966.331767374206
1283.25,967.657261505898
1283.5,967.97666617153
1283.75,966.702100218728
1284,964.052987235253
1284.25,960.41860971776
1284.5,956.188258034307
1284.75,951.753247064864
1285,947.509597291133
1285.25,943.85399619568
1285.5,941.17897874679
1285.75,939.666376011304
1286,939.191803038034
1286.25,939.606779097748
1286.5,940.764230446843
1286.75,942.539027683159
1287,944.823402183404
1287.25,947.510059793555
1287.5,950.418237087233
1287.75,952.87310118745
1288,953.996165588317
1288.25,952.908329978565
1288.5,949.18157468934
1288.75,943.999244619052
1289,938.904347251655
1289.25,935.435332182077
1289.5,934.419982004668
1289.75,935.210695222688
1290,936.97627545466
1290.25,938.90049160834
1290.5,940.542404530407
1290.75,941.854497794738
1291,942.807848952644
1291.25,943.392293562507
1291.5,943.772303667446
1291.75,944.20733003646
1292,944.957772635871
1292.25,946.163723003522
1292.5,947.419463056527
1292.75,948.164569134567
1293,947.840060389964
1293.25,946.301379627821
1293.5,944.387300102774
1293.75,943.07924583814
1294,943.343427008706
1294.25,945.50348478854
1294.5,949.017493759078
1294.75,953.282470625641
1295,957.70463864918
1295.25,961.820467104323
1295.5,965.262980958215
1295.75,967.667483879467
1296,968.763598185326
1296.25,968.990734165065
1296.5,969.111475302185
1296.75,969.890040753805
1297,971.87144231747
1297.25,974.493329129683
1297.5,976.844481356944
1297.75,978.013570063182
1298,977.39953527327
1298.25,975.493969447723
1298.5,973.028867283588
1298.75,970.735873830258
1299,969.121284662187
1299.25,968.078851195109
1299.5,967.399233990993
1299.75,966.874139260877
1300,966.426037162079
1300.25,966.233674159145
1300.5,966.505566664008
1300.75,967.448349853871
1301,969.185450529551
1301.25,971.72598558157
1301.5,975.070773046432
1301.75,979.199762501176
1302,983.636545653353
1302.25,987.46110346007
1302.5,989.735098484222
1302.75,989.610758115217
1303,987.579776339059
1303.25,985.157024397716
1303.5,983.883238258191
1303.75,985.163168406922
1304,988.676966581969
1304.25,992.919836097364
1304.5,996.363712977604
1304.75,997.609222246342
1305,996.553047631927
1305.25,993.841951062797
1305.5,990.131840792029
1305.75,986.075877382645
1306,982.300678983538
1306.25,979.417997413569
1306.5,978.039420916778
1306.75,978.666821344883
1307,980.888245340549
1307.25,983.838092894307
1307.5,986.647490325374
1307.75,988.545261824092
1308,989.374126245574
1308.25,989.214681029207
1308.5,988.148043738554
1308.75,986.336210235702
1309,984.374081845148
1309.25,983.000797928736
1309.5,982.955596643247
1309.75,984.771566222684
1310,988.027879862517
1310.25,992.027988645689
1310.5,996.075316728179
1310.75,999.524285377572
1311,1001.92166772436
1311.25,1002.85957987943
1311.5,1001.93014938869
1311.75,999.005359376309
1312,994.963166225313
1312.25,990.907479704862
1312.5,987.942202691811
1312.75,986.821197036636
1313,987.00991691656
1313.25,987.677456414524
1313.5,987.992990808014
1313.75,987.357210046042
1314,985.909377353559
1314.25,983.935717674774
1314.5,981.722387710247
1314.75,979.504895807341
1315,977.37838022029
1315.25,975.413861246789
1315.5,973.68255332828
1315.75,972.299008513804
1316,971.475563491632
1316.25,971.437956876633
1316.5,972.407930810391
1316.75,974.298205471237
1317,976.497792844332
1317.25,978.344989012372
1317.5,979.190311954269
1317.75,978.826984526941
1318,977.605235523641
1318.25,975.910754521654
1318.5,974.123834351115
1318.75,972.498420271667
1319,971.160862839805
1319.25,970.231866430798
1319.5,969.822199335976
1319.75,969.891764910075
1320,970.283199143479
1320.25,970.836055430376
1320.5,971.38783852467
1320.75,971.756072974654
1321,971.747007439595
1321.25,971.166763476584
1321.5,969.870999740143
1321.75,968.045588776633
1322,966.011440835553
1322.25,964.089869870573
1322.5,962.546707447419
1322.75,961.388757564982
1323,960.547292993466
1323.25,959.953566965848
1323.5,959.521339823568
1323.75,959.111259693155
1324,958.57393207486
1324.25,957.762457137801
1324.5,956.823827575837
1324.75,956.471585836072
1325,957.483780379007
1325.25,960.606577151456
1325.5,965.486388751354
1325.75,970.416940101099
1326,973.608806231528
1326.25,973.389729467882
1326.5,969.950148381869
1326.75,964.972575169511
1327,960.181419201756
1327.25,957.161983703224
1327.5,956.00655998489
1327.75,955.900034608599
1328,956.014492112943
1328.25,955.639830888184
1328.5,954.802375622856
1328.75,953.812435485871
1329,952.980919242534
1329.25,952.48710778173
1329.5,952.02775445596
1329.75,951.18907217691
1330,949.55935031459
1330.25,947.084087384029
1330.5,944.468412923781
1330.75,942.51468948556
1331,942.009676493003
1331.25,943.191133600919
1331.5,945.615276384867
1331.75,948.795819171941
1332,952.254333525281
1332.25,955.609722939636
1332.5,958.546653020921
1332.75,960.751026780706
1333,961.941245132875
1333.25,962.04114298485
1333.5,961.054599844097
1333.75,958.985676293264
1334,955.962339684377
1334.25,952.600078572713
1334.5,949.634268380124
1334.75,947.799464365986
1335,947.564414208309
1335.25,948.751649528635
1335.5,951.087383360056
1335.75,954.292765035173
1336,957.863384101702
1336.25,960.984037130989
1336.5,962.816859404393
1336.75,962.577230659789
1337,960.396295475368
1337.25,957.176494132901
1337.5,953.844350293901
1337.75,951.26276506221
1338,949.66858693265
1338.25,948.94286566068
1338.5,948.962550641624
1338.75,949.539696851379
1339,950.137376650069
1339.25,950.10186150014
1339.5,948.780121783885
1339.75,946.405565545593
1340,945.7999881265
1340.25,950.255093479909
1340.5,962.979995141129
1340.75,981.283784095076
1341,980.565052305877
1341.25,979.846320516677
1341.5,979.127588727478
1341.75,978.408856938278
1342,977.690125149079
1342.25,976.971393359879
1342.5,976.25266157068
1342.75,975.53392978148
1343,974.815197992281
1343.25,974.096466203081
1343.5,973.377734413882
1343.75,972.659002624683
1344,971.940270835483
1344.25,971.221539046284
1344.5,970.502807257084
1344.75,969.784075467885
1345,969.065343678685
1345.25,968.346611889486
1345.5,967.627880100286
1345.75,966.909148311087
1346,966.190416521887
1346.25,965.471684732688
1346.5,964.752952943488
1346.75,964.034221154289
1347,963.315489365089
1347.25,962.59675757589
1347.5,961.878025786691
1347.75,961.159293997491
1348,960.440562208292
1348.25,959.721830419092
1348.5,959.003098629893
1348.75,960.627354406949
1349,960.025052326224
1349.25,957.025313807313
1349.5,952.708459858471
1349.75,948.48029363702
1350,945.745235384946
1350.25,945.253926397432
1350.5,946.060932963041
1350.75,946.949360789937
1351,946.71851721016
1351.25,944.961075522557
1351.5,942.406378455692
1351.75,939.871426076519
1352,938.138354358597
1352.25,937.412215845038
1352.5,937.423658539734
1352.75,937.889249565023
1353,938.580815006939
1353.25,939.654480651795
1353.5,941.429618812471
1353.75,944.226147881794
1354,948.164775385228
1354.25,952.71413386321
1354.5,957.209645658667
1354.75,960.989493598685
1355,963.621442918456
1355.25,965.071764263851
1355.5,965.346528668311
1355.75,964.461880690368
1356,962.728689664524
1356.25,960.792509492387
1356.5,959.317000082143
1356.75,958.930801899907
1357,959.720230706554
1357.25,961.344541537462
1357.5,963.451436142723
1357.75,965.706321400559
1358,967.925933264995
1358.25,970.003766847946
1358.5,971.833917843093
1358.75,973.315851904611
1359,974.378121226803
1359.25,974.959080401638
1359.5,974.997091586639
1359.75,974.485753054193
1360,973.632045243745
1360.25,972.69446784041
1360.5,971.931422999693
1360.75,971.50553369629
1361,971.304378355578
1361.25,971.166469823954
1361.5,970.932304251987
1361.75,970.758844213898
1362,971.463835034877
1362.25,973.947806843636
1362.5,979.090905653935
1362.75,986.605712462534
1363,994.426283511879
1363.25,1000.33727312384
1363.5,1002.17957076315
1363.75,999.618078298169
1364,994.496659958339
1364.25,988.787109433407
1364.5,984.426299530883
1364.75,982.167999163608
1365,981.323013283474
1365.25,981.114610785032
1365.5,980.781247231367
1365.75,979.945623405984
1366,978.635168536138
1366.25,976.8965986265
1366.5,974.780938389643
1366.75,972.416359689412
1367,969.997656707764
1367.25,967.721813161789
1367.5,965.780130110265
1367.75,964.294269174887
1368,963.339203556686
1368.25,962.989045293268
1368.5,963.298116816908
1368.75,964.166895352256
1369,965.423819060227
1369.25,966.89691468599
1369.5,968.449380583371
1369.75,970.116817272508
1370,971.987564841983
1370.25,974.149946273546
1370.5,976.555242743076
1370.75,978.702627614227
1371,979.998173252724
1371.25,979.849124891692
1371.5,978.048749361944
1371.75,975.331466343314
1372,972.57241848996
1372.25,970.643463718851
1372.5,970.013643831779
1372.75,970.366770644078
1373,971.296031840638
1373.25,972.396558154035
1373.5,973.357497656169
1373.75,974.00204817393
1374,974.163674235428
1374.25,973.683487108491
1374.5,972.599212069288
1374.75,971.157450639454
1375,969.61490634205
1375.25,968.218288925744
1375.5,967.052841326254
1375.75,966.073109917844
1376,965.229887710432
1376.25,964.473315251355
1376.5,963.746913141316
1376.75,962.990348643614
1377,962.143241199081
1377.25,961.223207994156
1377.5,960.747692960383
1377.75,961.431339966339
1378,963.989273721043
1378.25,968.729840026007
1378.5,974.32019823949
1378.75,979.013663039046
1379,981.065112742271
1379.25,979.548539934522
1379.5,975.697515537715
1379.75,971.097345023598
1380,967.32942710041
1380.25,965.303905016706
1380.5,964.50386531399
1380.75,964.229793061771
1381,963.789600530257
1381.25,962.900526445091
1381.5,961.894226285092
1381.75,961.152933907848
1382,961.037303670116
1382.25,961.386176377867
1382.5,961.502015519307
1382.75,960.662791636484
1383,958.243879060319
1383.25,954.844457698629
1383.5,951.898990338343
1383.75,950.858067821791
1384,952.899578676315
1384.25,957.221856652149
1384.5,962.149843407282
1384.75,966.004649084647
1385,967.507889954966
1385.25,966.975134287192
1385.5,965.118430380481
1385.75,962.649597909811
1386,960.152582242929
1386.25,957.870830230494
1386.5,955.991735303434
1386.75,954.700745001775
1387,954.013956296925
1387.25,953.649201647696
1387.5,953.29396610481
1387.75,952.644534104816
1388,951.636053924303
1388.25,950.46475364281
1388.5,949.340114937223
1388.75,948.442234266374
1389,947.593409890358
1389.25,946.377172276657
1389.5,944.372700479791
1389.75,941.312573291734
1390,937.873303032096
1390.25,935.090166094879
1390.5,933.998952194261
1390.75,935.223063989201
1391,938.094621199116
1391.25,941.693681628393
1391.5,945.106721730023
1391.75,947.771858784006
1392,949.653828367846
1392.25,950.760579496419
1392.5,951.103293637814
1392.75,950.747699745378
1393,949.804921523267
1393.25,948.387465200963
1393.5,946.63949264183
1393.75,944.966126097253
1394,943.900922901728
1394.25,943.97833699419
1394.5,945.507093996828
1394.75,947.821090256383
1395,949.991126533271
1395.25,951.090314442166
1395.5,950.691764705578
1395.75,949.488722719701
1396,948.326706345998
1396.25,948.037595923881
1396.5,948.9058641869
1396.75,950.494739147586
1397,952.318212830373
1397.25,953.892105574522
1397.5,954.759304558256
1397.75,954.483385650221
1398,952.628448458388
1398.25,948.951549423791
1398.5,944.678822958317
1398.75,941.712061858554
1399,941.956632752864
1399.25,946.656996364896
1399.5,954.274425957536
1399.75,962.537684510747
1400,969.180467966641
1400.25,972.808329808945
1400.5,973.892559402379
1400.75,973.145014742574
1401,971.275332342445
1401.25,968.868695526455
1401.5,966.322301164769
1401.75,964.017736474533
1402,962.329319747553
1402.25,961.42284500459
1402.5,961.229647863025
1402.75,961.668585835574
1403,962.648162822494
1403.25,963.92389027533
1403.5,965.134484240605
1403.75,965.915712359835
1404,965.949375244584
1404.25,965.310991358614
1404.5,964.275897610486
1404.75,963.120997563636
1405,962.113597768489
1405.25,961.467702418804
1405.5,961.378916747773
1405.75,962.042816854439
1406,963.439578257409
1406.25,964.783688932277
1406.5,965.119576742782
1406.75,963.494936602307
1407,959.731460373602
1407.25,955.419517408635
1407.5,952.395403998108
1407.75,952.472073784553
1408,956.084167483706
1408.25,961.542634964049
1408.5,966.977218656507
1408.75,970.584992744081
1409,971.927750454969
1409.25,971.837034159072
1409.5,971.192693014618
1409.75,970.810446482374
1410,970.718577969977
1410.25,970.416702634762
1410.5,969.394648748425
1410.75,967.229769477531
1411,964.217595883715
1411.25,961.005738353996
1411.5,958.244228049049
1411.75,956.415749102493
1412,955.075105920852
1412.25,953.45733370741
1412.5,950.797229987454
1412.75,946.663223206818
1413,941.739303152849
1413.25,936.942348679723
1413.5,933.185272818907
1413.75,930.92865942959
1414,929.769035593634
1414.25,929.205638968392
1414.5,928.756717256281
1414.75,928.339062179299
1415,928.247632581145
1415.25,928.79231845188
1415.5,930.18265664271
1415.75,931.896413560686
1416,933.087208931036
1416.25,932.907410234483
1416.5,930.876561749688
1416.75,927.643422383877
1417,924.073120870172
1417.25,921.021946602446
1417.5,918.894108864176
1417.75,917.434741051619
1418,916.336884864021
1418.25,915.31522125784
1418.5,914.334393211827
1418.75,913.519555683867
1419,912.998505159469
1419.25,912.823558485182
1419.5,912.749158491788
1419.75,912.456277132188
1420,911.63301872696
1420.25,910.341652175371
1420.5,909.195427368956
1420.75,908.851758623363
1421,909.925268952855
1421.25,912.595923679021
1421.5,916.790459573176
1421.75,922.432405574694
1422,929.232460140535
1422.25,936.207922965436
1422.5,942.235117920102
1422.75,946.207725577665
1423,947.777520884731
1423.25,947.632202637735
1423.5,946.53409601779
1423.75,945.218921286265
1424,944.025683999256
1424.25,942.988699014051
1424.5,942.134483872622
1424.75,941.488928531403
1425,941.073529070863
1425.25,940.907903941654
1425.5,941.011662140051
1425.75,941.380965616808
1426,941.930985920879
1426.25,942.559420032951
1426.5,943.162832882111
1426.75,943.538644691665
1427,943.309310453479
1427.25,942.079437781011
1427.5,939.498008494511
1427.75,936.174103680155
1428,933.644445033427
1428.25,933.483634318095
1428.5,937.003109977894
1428.75,943.218153747383
1429,949.959366969585
1429.25,955.047489647359
1429.5,956.906141325816
1429.75,956.275897111367
1430,954.453850324309
1430.25,952.734912292364
1430.5,951.910150015024
1430.75,951.625514737151
1431,951.368712686552
1431.25,950.637116705234
1431.5,949.348482342295
1431.75,947.993953912995
1432,947.10587078916
1432.25,947.175554766096
1432.5,948.022564754561
1432.75,948.917956487686
1433,949.116738052445
1433.25,948.009223291042
1433.5,946.019635858675
1433.75,944.049213084
1434,943.001749964553
1434.25,943.395425431469
1434.5,944.176652606398
1434.75,943.891439151118
1435,941.092900860938
1435.25,935.493824318577
1435.5,929.241644305437
1435.75,924.790778811721
1436,924.523936152209
1436.25,928.753790407197
1436.5,935.45816807855
1436.75,942.489982606627
1437,947.875036146742
1437.25,951.10460882813
1437.5,952.408207943058
1437.75,952.02097072385
1438,950.20984012816
1438.25,947.376028004832
1438.5,943.956171395766
1438.75,940.386903032937
1439,937.103492359744
1439.25,934.537936879186
1439.5,933.121753342584
1439.75,933.272282925562
1440,934.887577088645
1440.25,937.208944894614
1440.5,939.435553198119
1440.75,940.815266695971
1441,941.13887658725
1441.25,940.536745002793
1441.5,939.144431541036
1441.75,937.113354067138
1442,934.67604752884
1442.25,932.090914548902
1442.5,929.616486231307
1442.75,927.553835417953
1443,926.309586597613
1443.25,926.306454604319
1443.5,927.949913303121
1443.75,931.117126891547
1444,935.071360289779
1444.25,939.041398460247
1444.5,942.334211163979
1444.75,944.973452278787
1445,947.367713866754
1445.25,949.929276449206
1445.5,952.856789273758
1445.75,955.426832409954
1446,956.667268931807
1446.25,955.608850951868
1446.5,952.149850716162
1446.75,948.266988529913
1447,946.241781086811
1447.25,948.320225922033
1447.5,954.862548182878
1447.75,963.439011460017
1448,971.394779698734
1448.25,976.198847204448
1448.5,977.475512323
1448.75,976.677937865186
1449,975.317276539705
1449.25,974.774158129499
1449.5,974.913527774853
1449.75,974.623249800593
1450,972.774938869881
1450.25,968.49033652909
1450.5,962.948695518752
1450.75,958.340056510236
1451,956.861466817024
1451.25,960.211219414774
1451.5,967.211810782685
1451.75,975.657197048177
1452,983.340095453516
1452.25,988.550676838574
1452.5,991.286314508084
1452.75,991.910322824259
1453,990.785967823982
1453.25,988.236784000541
1453.5,984.474702668583
1453.75,979.692204749299
1454,974.082340670882
1454.25,968.070084559594
1454.5,962.667548749561
1454.75,958.97834894807
1455,958.097560629716
1455.25,960.140587144281
1455.5,963.348380597664
1455.75,965.750417184468
1456,965.416224003411
1456.25,961.775921381932
1456.5,955.921192152671
1456.75,949.044718461907
1457,942.303513759056
1457.25,936.22514079421
1457.5,930.798440432018
1457.75,925.994868520813
1458,921.752519697648
1458.25,917.742724675257
1458.5,913.508859468621
1458.75,908.593640879175
1459,902.961884067888
1459.25,897.925273457327
1459.5,895.063555489592
1459.75,895.89386726359
1460,899.987371523512
1460.25,904.6381682352
1460.5,907.011017450696
1460.75,904.796389974062
1461,898.901369119582
1461.25,891.449172679772
1461.5,884.55920610335
1461.75,879.463699754841
1462,875.584120508702
1462.25,872.121098485865
1462.5,868.346821053033
1462.75,864.303933504783
1463,860.504470376367
1463.25,857.465234543499
1463.5,855.32057070562
1463.75,853.361309205561
1464,850.765650953153
1464.25,846.722730271669
1464.5,840.510110719428
1464.75,831.448183466068
1465,818.874316059899
1465.25,802.895393364577
1465.5,784.693812961575
1465.75,765.532040732743
1466,746.714967034597
1466.25,729.682624501357
1466.5,715.901895588545
1466.75,706.467775343158
1467,701.024703021724
1467.25,698.862850691412
1467.5,698.952823950825
1467.75,699.430519368994
1468,698.327793183747
1468.25,695.323933074549
1468.5,692.550498828691
1468.75,692.229928501584
1469,694.608957937302
1469.25,698.211991995488
1469.5,701.682874059105
1469.75,705.041156456191
1470,708.950053301934
1470.25,713.652847167261
1470.5,717.639922481513
1470.75,718.950964731763
1471,716.757128459329
1471.25,713.115582515738
1471.5,710.521036953328
1471.75,709.967842157356
1472,709.742203979969
1472.25,707.897769396365
1472.5,704.155769718723
1472.75,700.224693896336
1473,697.845393245895
1473.25,697.488442010877
1473.5,698.638589269514
1473.75,700.691049247764
1474,702.571636676488
1474.25,702.996353965574
1474.5,701.255083487278
1474.75,698.902690071982
1475,698.047167564504
1475.25,699.721975049276
1475.5,702.516174811341
1475.75,704.707571438089
1476,705.612232181622
1476.25,705.89090184584
1476.5,706.280535424291
1476.75,707.307737955274
1477,709.330766215011
1477.25,712.557374206176
1477.5,715.973023899968
1477.75,717.953037249004
1478,717.305406463538
1478.25,715.054192978288
1478.5,712.923950627027
1478.75,712.424799455052
1479,714.326000462049
1479.25,719.234591373628
1479.5,727.200305230635
1479.75,737.020487632793
1480,747.320777766928
1480.25,756.672707563417
1480.5,763.562166862442
1480.75,766.49387824631
1481,765.386791411126
1481.25,762.259140707583
1481.5,759.300194991026
1481.75,758.775457924223
1482,763.084780414725
1482.25,774.622418308702
1482.5,793.347335518263
1482.75,814.43234235138
1483,832.498301637355
1483.25,844.333293975679
1483.5,852.112907358982
1483.75,858.83574514934
1484,866.905823043638
1484.25,874.878145482105
1484.5,879.775036495336
1484.75,878.676710974496
1485,871.040695489689
1485.25,859.397448534142
1485.5,846.481267955774
1485.75,835.04940615498
1486,827.990323161608
1486.25,828.239021656776
1486.5,838.575143341364
1486.75,858.237556267062
1487,882.943028523556
1487.25,908.258484405955
1487.5,930.307089978274
1487.75,946.547080275101
1488,954.63286558323
1488.25,952.441072546762
1488.5,941.793630792075
1488.75,927.901795396061
1489,916.087037437891
1489.25,911.103293519374
1489.5,912.566301647624
1489.75,917.359586540053
1490,922.341742328226
1490.25,925.200850386372
1490.5,926.221025492089
1490.75,926.192875819775
1491,925.882740744444
1491.25,925.08152105719
1491.5,922.294165195013
1491.75,915.937759306856
1492,904.674254605895
1492.25,889.779575205723
1492.5,874.111830413653
1492.75,860.551138609284
1493,851.015160554349
1493.25,843.991524602134
1493.5,837.204077285723
1493.75,828.505393015064
1494,817.715840495851
1494.25,806.192185610452
1494.5,795.3338137127
1494.75,786.743682830094
1495,782.410811527203
1495.25,784.366944515041
1495.5,793.185348548178
1495.75,804.6598457805
1496,813.606749804153
1496.25,816.010232568008
1496.5,813.606672391655
1496.75,809.900431037407
1497,808.11617236981
1497.25,808.316762051271
1497.5,808.569538227778
1497.75,806.946768941372
1498,802.652802016635
1498.25,796.219732553357
1498.5,788.256574628518
1498.75,779.609533573414
1499,771.643725215591
1499.25,765.792896483443
1499.5,763.351768696345
1499.75,765.13205229487
1500,771.840630406444
1500.25,783.385984048864
1500.5,796.317330277161
1500.75,806.300530479369
1501,809.840526715634
1501.25,808.047580739527
1501.5,803.603717048622
1501.75,799.206725163573
1502,797.721647508064
1502.25,802.121256231597
1502.5,815.224440610276
1502.75,835.48082222128
1503,856.481609515708
1503.25,871.586768915372
1503.5,877.619853951625
1503.75,878.563814539313
1504,879.28794340625
1504.25,883.978776351905
1504.5,890.909568308523
1504.75,895.321210733984
1505,892.451132769986
1505.25,880.646420841689
1505.5,864.608641827464
1505.75,849.815433987577
1506,841.374816078379
1506.25,839.9211249626
1506.5,843.116191704629
1506.75,848.576599104847
1507,854.738531025812
1507.25,861.538251602373
1507.5,869.072229923031
1507.75,877.048400570709
1508,882.96612951891
1508.25,883.545449064865
1508.5,875.604729797377
1508.75,859.733620640082
1509,841.371621668206
1509.25,826.277457216147
1509.5,819.406926991479
1509.75,821.153733527298
1510,830.302432493019
1510.25,845.566394299898
1510.5,864.552220296567
1510.75,883.977874703629
1511,900.54516710051
1511.25,912.15061816815
1511.5,919.075505111485
1511.75,921.884312809828
1512,921.081072752326
1512.25,916.428601722091
1512.5,907.192602232291
1512.75,892.629598936871
1513,873.013686486657
1513.25,853.151181527473
1513.5,839.109754372707
1513.75,836.843955892334
1514,847.810163829618
1514.25,867.563762645478
1514.5,891.259976974508
1514.75,914.641929546002
1515,935.463560891298
1515.25,951.908366140458
1515.5,962.229668824828
1515.75,966.345582739472
1516,965.872312608999
1516.25,962.502552511404
1516.5,957.80304130921
1516.75,951.842955916702
1517,943.709237465574
1517.25,932.471719275158
1517.5,917.407667000851
1517.75,899.248408744566
1518,879.347312106422
1518.25,859.060252518531
1518.5,839.970899120347
1518.75,824.346468291888
1519,814.581854847496
1519.25,812.821821202409
1519.5,818.151005436076
1519.75,827.604944115111
1520,838.198513543958
1520.25,847.605062150185
1520.5,854.351564785901
1520.75,857.021994776224
1521,854.7536964203
1521.25,848.507689252988
1521.5,839.620132628114
1521.75,829.463091632891
1522,819.874536621404
1522.25,813.017779682025
1522.5,811.045290179341
1522.75,814.675904044847
1523,822.15187714555
1523.25,831.469675953442
1523.5,841.027463716363
1523.75,850.610834868653
1524,860.304714819143
1524.25,869.954573170785
1524.5,877.139279909215
1524.75,878.188516416117
1525,869.450992553515
1525.25,850.393589276109
1525.5,826.167000553968
1525.75,802.525850073485
1526,784.662233268842
1526.25,773.351278568943
1526.5,767.282095304724
1526.75,765.187160015571
1527,766.668850805685
1527.25,772.018248527782
1527.5,781.518283289765
1527.75,794.899046563405
1528,811.373231773365
1528.25,830.116098336886
1528.5,849.700508665871
1528.75,867.959674269557
1529,882.682677751531
1529.25,892.396459872264
1529.5,897.616863244698
1529.75,899.191472029081
1530,897.962786389122
1530.25,894.700052454549
1530.5,890.117532449707
1530.75,884.928152173325
1531,879.439415965752
1531.25,872.402287372869
1531.5,862.194231849053
1531.75,847.318763676733
1532,829.569894646225
1532.25,814.265472948361
1532.5,806.895905938483
1532.75,811.254351406958
1533,825.354241243514
1533.25,845.979819622789
1533.5,869.85515231137
1533.75,893.29472811593
1534,912.442377654462
1534.25,923.529630803069
1534.5,925.74642478431
1534.75,921.872631797038
1535,914.904176855346
1535.25,907.644800873533
1535.5,901.203158482631
1535.75,895.805540070294
1536,891.670649086757
1536.25,889.010863122372
1536.5,888.019435532287
1536.75,888.886019708833
1537,891.777286784521
1537.25,896.391022347946
1537.5,901.987077503578
1537.75,907.8085203589
1538,912.950582913098
1538.25,915.854090420812
1538.5,914.778855090963
1538.75,908.009589675191
1539,895.314855835002
1539.25,878.757128473987
1539.5,860.59550265125
1539.75,843.041625272766
1540,827.800483828648
1540.25,816.270329177933
1540.5,809.837280008635
1540.75,809.10492253243
1541,813.239802515277
1541.25,821.254340454518
1541.5,831.57264522996
1541.75,840.445485372091
1542,843.621880929362
1542.25,837.680944170216
1542.5,826.607859792723
1542.75,818.27934550518
1543,820.464478939388
1543.25,834.310493627437
1543.5,851.670455373324
1543.75,863.703484941184
1544,864.398761277366
1544.25,856.18578491501
1544.5,843.060574957446
1544.75,828.833402119587
1545,814.991828079747
1545.25,801.443476463298
1545.5,788.075830380227
1545.75,775.591514511557
1546,766.094128887186
1546.25,761.823523467531
1546.5,763.694919746195
1546.75,768.984408276144
1547,774.348949355944
1547.25,777.286388413449
1547.5,777.952165084153
1547.75,777.025472466154
1548,775.079671496864
1548.25,772.242729258083
1548.5,768.525463547676
1548.75,764.126829718066
1549,760.344004174323
1549.25,758.871522657687
1549.5,761.068441069242
1549.75,765.835673787567
1550,770.982212938865
1550.25,774.544443579372
1550.5,776.468602256037
1550.75,777.638629169683
1551,778.818201001964
1551.25,779.363191835386
1551.5,777.751449227172
1551.75,772.575641065061
1552,764.617468269379
1552.25,756.494374355322
1552.5,750.832327972719
1552.75,748.930119412732
1553,750.626519648234
1553.25,755.653947868999
1553.5,762.826462861561
1553.75,769.915832256482
1554,774.679061262474
1554.25,776.167088516687
1554.5,774.945975972059
1554.75,771.671632062839
1555,767.200202495327
1555.25,762.686591830161
1555.5,759.30128222495
1555.75,757.206405890835
1556,754.63609861595
1556.25,749.623508327238
1556.5,743.060909668725
1556.75,741.944892433507
1557,754.012929724065
1557.25,778.921846353898
1557.5,798.885654898853
1557.75,793.927490189553
1558,758.901470660699
1558.25,720.670240561243
1558.5,710.264525396373
1558.75,745.358924680377
1559,793.305466221277
1559.25,809.687148979002
1559.5,772.48720680331
1559.75,712.560726430358
1560,668.38783895988
1560.25,669.490479081717
1560.5,701.962871882497
1560.75,738.821710635116
1561,759.6096896626
1561.25,759.413822484629
1561.5,759.217955306657
1561.75,759.022088128686
1562,758.826220950714
1562.25,758.630353772742
1562.5,758.434486594771
1562.75,758.238619416799
1563,758.042752238828
1563.25,757.846885060856
1563.5,757.651017882885
1563.75,757.455150704913
1564,757.259283526941
1564.25,757.06341634897
1564.5,756.867549170998
1564.75,756.671681993027
1565,756.475814815055
1565.25,756.279947637083
1565.5,756.084080459112
1565.75,755.88821328114
1566,755.692346103169
1566.25,755.496478925197
1566.5,755.300611747226
1566.75,755.104744569254
1567,754.908877391282
1567.25,754.713010213311
1567.5,754.517143035339
1567.75,754.321275857368
1568,754.125408679396
1568.25,753.929541501425
1568.5,753.733674323453
1568.75,753.537807145481
1569,753.34193996751
1569.25,753.146072789538
1569.5,752.950205611567
1569.75,752.754338433595
1570,752.558471255623
1570.25,752.362604077652
1570.5,752.16673689968
1570.75,751.970869721709
1571,751.775002543737
1571.25,751.579135365766
1571.5,751.383268187794
1571.75,751.187401009822
1572,750.991533831851
1572.25,750.795666653879
1572.5,750.599799475908
1572.75,750.403932297936
1573,750.208065119964
1573.25,750.012197941993
1573.5,749.816330764021
1573.75,749.62046358605
1574,749.424596408078
1574.25,749.228729230107
1574.5,749.032862052135
1574.75,748.836994874163
1575,748.641127696192
1575.25,748.44526051822
1575.5,748.249393340249
1575.75,748.053526162277
1576,734.585976348165
1576.25,701.138649452485
1576.5,674.877697057483
1576.75,675.791930128499
1577,722.263802749546
1577.25,805.519823758377
1577.5,869.935139629732
1577.75,857.542286846849
1578,768.171241703247
1578.25,662.304494889279
1578.5,603.296266536055
1578.75,633.394694278253
1579,704.551016168285
1579.25,747.625589564946
1579.5,745.993961095974
1579.75,727.272988124343
1580,718.633762732356
1580.25,724.296408907787
1580.5,732.823549861236
1580.75,734.153739809198
1581,732.457499265957
1581.25,739.078552622133
1581.5,761.218548483039
1581.75,777.145843070091
1582,752.933764738878
1582.25,662.860224611559
1582.5,532.618794899223
1582.75,407.68176692004
1583,344.135132771295
1583.25,457.25196984986
1583.5,727.335161715259
1583.75,890.722706244178
1584,894.91511151225
1584.25,825.12799267695
1584.5,765.682930349912
1584.75,747.108018252714
1585,749.148186529583
1585.25,749.815441970539
1585.5,739.907835876428
1585.75,728.775389691956
1586,727.085279072846
1586.25,738.27377849375
1586.5,755.175164903068
1586.75,769.896516948311
1587,778.000857519023
1587.25,778.986360948494
1587.5,772.651827973779
1587.75,762.286116298588
1588,755.780079889384
1588.25,761.239846934596
1588.5,778.459439318475
1588.75,792.772404458982
1589,788.169674642249
1589.25,760.430546904869
1589.5,727.704885312182
1589.75,710.636126637306
1590,721.168393196575
1590.25,744.667786807342
1590.5,761.512293179299
1590.75,760.831082806178
1591,748.910386580704
1591.25,734.018999841921
1591.5,722.321042990518
1591.75,715.422419892143
1592,714.319996578635
1592.25,718.612793664371
1592.5,725.277798995296
1592.75,731.040439221438
1593,734.01380497743
1593.25,734.081887365828
1593.5,731.271545211338
1593.75,726.273974604627
1594,720.460825623682
1594.25,715.218994184556
1594.5,711.658669219476
1594.75,710.652762992833
1595,713.010153534157
1595.25,718.930610395046
1595.5,728.241692791476
1595.75,740.638782036231
1596,754.999158738821
1596.25,769.875425546155
1596.5,783.795049834569
1596.75,795.16288295832
1597,802.345213715763
1597.25,804.026985591533
1597.5,800.973555311042
1597.75,794.785114722442
1598,787.184663838439
1598.25,781.518394168418
1598.5,782.295585477295
1598.75,793.873115628828
1599,815.61703833983
1599.25,841.342430463898
1599.5,864.604084104275
1599.75,881.069727576511
1600,889.881238097489
1600.25,890.503890078553
1600.5,882.997749697635
1600.75,870.849759944138
1601,858.771600897247
1601.25,851.442170943187
1601.5,851.259550760213
1601.75,856.952743486302
1602,866.918958103239
1602.25,879.608640833553
1602.5,893.753660125079
1602.75,908.178530848837
1603,921.700614129014
1603.25,932.908008981248
1603.5,940.117552128506
1603.75,941.630395591026
1604,936.048550098734
1604.25,924.411571185344
1604.5,908.941278731245
1604.75,891.867286926913
1605,875.630850040632
1605.25,863.500340649859
1605.5,861.289680410879
1605.75,859.0790201719
1606,856.86835993292
1606.25,854.65769969394
1606.5,852.447039454961
1606.75,850.236379215981
1607,848.025718977001
1607.25,845.815058738022
1607.5,843.604398499042
1607.75,841.393738260063
1608,839.183078021083
1608.25,836.972417782103
1608.5,834.761757543124
1608.75,832.551097304144
1609,830.340437065164
1609.25,828.129776826185
1609.5,825.919116587205
1609.75,823.708456348226
1610,821.497796109246
1610.25,819.287135870266
1610.5,817.076475631287
1610.75,814.865815392307
1611,812.655155153327
1611.25,810.444494914348
1611.5,808.233834675368
1611.75,806.023174436389
1612,803.812514197409
1612.25,801.601853958429
1612.5,799.39119371945
1612.75,797.18053348047
1613,794.96987324149
1613.25,792.759213002511
1613.5,790.548552763531
1613.75,788.337892524552
1614,786.127232285572
1614.25,783.916572046592
1614.5,781.705911807613
1614.75,779.495251568633
1615,777.284591329653
1615.25,775.073931090674
1615.5,772.863270851694
1615.75,770.652610612715
1616,768.441950373735
1616.25,766.231290134755
1616.5,764.020629895776
1616.75,761.809969656796
1617,759.599309417816
1617.25,757.388649178837
1617.5,755.177988939857
1617.75,752.967328700877
1618,750.756668461898
1618.25,748.546008222918
1618.5,746.335347983939
1618.75,744.124687744959
1619,741.914027505979
1619.25,739.703367267
1619.5,737.49270702802
1619.75,735.28204678904
1620,733.071386550061
1620.25,730.860726311081
1620.5,728.650066072101
1620.75,726.439405833122
1621,724.228745594142
1621.25,722.018085355163
1621.5,719.807425116183
1621.75,717.596764877203
1622,715.386104638224
1622.25,713.175444399244
1622.5,710.964784160264
1622.75,711.015826485384
1623,710.743086050244
1623.25,709.256260015245
1623.5,706.66084928888
1623.75,704.450489168969
1624,704.115346339988
1624.25,705.042540338817
1624.5,704.691251803319
1624.75,700.957018034551
1625,696.669847339753
1625.25,697.437151579861
1625.5,707.390962457233
1625.75,722.550876643037
1626,736.219742524016
1626.25,743.823157563606
1626.5,746.927471696225
1626.75,748.196438116888
1627,748.519436298218
1627.25,744.47175184085
1627.5,732.004760578517
1627.75,712.578643965209
1628,700.744628949241
1628.25,712.812951381602
1628.5,745.425384684049
1628.75,744.860134947749
1629,744.29488521145
1629.25,743.729635475151
1629.5,743.164385738852
1629.75,742.599136002553
1630,742.033886266254
1630.25,741.468636529955
1630.5,740.903386793656
1630.75,740.338137057357
1631,739.772887321058
1631.25,739.207637584758
1631.5,738.642387848459
1631.75,738.07713811216
1632,737.511888375861
1632.25,736.946638639562
1632.5,736.381388903263
1632.75,735.816139166964
1633,735.250889430665
1633.25,734.685639694366
1633.5,734.120389958066
1633.75,733.555140221767
1634,732.989890485468
1634.25,732.424640749169
1634.5,731.85939101287
1634.75,731.294141276571
1635,730.728891540272
1635.25,653.441942438644
1635.5,640.394187235425
1635.75,659.99939042016
1636,674.809397314488
1636.25,676.355553168707
1636.5,681.318183639812
1636.75,700.895445373291
1637,709.775921194953
1637.25,669.631340953938
1637.5,575.528825685674
1637.75,509.319409460718
1638,563.433319588596
1638.25,719.043717364465
1638.5,824.062434916762
1638.75,806.154527505828
1639,725.860036290864
1639.25,654.733212754655
1639.5,638.816086154012
1639.75,654.794245538771
1640,668.541098305399
1640.25,667.061690251354
1640.5,659.242827878066
1640.75,654.168097036345
1641,655.454715002286
1641.25,664.454999255283
1641.5,678.619435176531
1641.75,686.67759993611
1642,677.492918273124
1642.25,664.086416899741
1642.5,680.63672441513
1642.75,753.109351623413
1643,843.733977989326
1643.25,887.034077516648
1643.5,841.674561473395
1643.75,749.633994386518
1644,670.76542476482
1644.25,661.380698695918
1644.5,661.987892379925
1644.75,662.595086063933
1645,663.202279747941
1645.25,663.809473431949
1645.5,664.416667115956
1645.75,665.023860799964
1646,665.631054483972
1646.25,666.23824816798
1646.5,666.845441851987
1646.75,667.452635535995
1647,668.059829220003
1647.25,668.667022904011
1647.5,669.274216588018
1647.75,669.881410272026
1648,670.488603956034
1648.25,671.095797640042
1648.5,671.702991324049
1648.75,672.310185008057
1649,672.917378692065
1649.25,673.524572376073
1649.5,674.13176606008
1649.75,674.738959744088
1650,675.346153428096
1650.25,675.953347112104
1650.5,676.560540796111
1650.75,677.167734480119
1651,677.774928164127
1651.25,678.382121848135
1651.5,678.989315532142
1651.75,679.634938203568
1652,684.854318268551
1652.25,693.392618195415
1652.5,703.767780441479
1652.75,713.7109748369
1653,720.251327323816
1653.25,720.826284983078
1653.5,716.620144241787
1653.75,710.737379729728
1654,706.272929357452
1654.25,706.171623179956
1654.5,713.322784051939
1654.75,729.269069012513
1655,750.597889541452
1655.25,772.762036880586
1655.5,792.665699497389
1655.75,810.679002203366
1656,827.677549501808
1656.25,843.302419304283
1656.5,853.52593256339
1656.75,853.642011523531
1657,840.097187922895
1657.25,817.966248219481
1657.5,796.234555176688
1657.75,783.766707217151
1658,783.574653750364
1658.25,790.825224582156
1658.5,800.144437669253
1658.75,807.307700296549
1659,810.384018318007
1659.25,807.714764549431
1659.5,798.498569594668
1659.75,784.902340553417
1660,769.734986905153
1660.25,755.795149330839
1660.5,745.809421924034
1660.75,742.473553235816
1661,747.957235637414
1661.25,759.827225187432
1661.5,773.269480528346
1661.75,783.91148297193
1662,791.062396816031
1662.25,795.793764081795
1662.5,799.084715476211
1662.75,800.736948435584
1663,799.804224578861
1663.25,795.374239655774
1663.5,787.670794788601
1663.75,778.100561987332
1664,768.139553959088
1664.25,760.422803562912
1664.5,759.589609677986
1664.75,770.460382777
1665,794.410224915751
1665.25,825.311470442208
1665.5,856.051317663192
1665.75,880.624086741689
1666,895.947028499219
1666.25,899.414165376624
1666.5,889.031619122249
1666.75,868.450143001217
1667,844.366998164045
1667.25,823.506562229777
1667.5,811.244969904069
1667.75,809.400308376661
1668,819.210555290055
1668.25,840.910000681634
1668.5,868.135631878141
1668.75,891.860616348424
1669,903.430917206615
1669.25,901.211599244313
1669.5,889.74389287989
1669.75,873.779793891468
1670,857.346730392725
1670.25,841.135218471218
1670.5,824.875780729914
1670.75,808.313390887744
1671,791.59729695452
1671.25,775.324156547485
1671.5,760.114613310746
1671.75,746.763664795916
1672,736.458359023213
1672.25,730.437353515972
1672.5,729.010081013849
1672.75,730.064612305946
1673,731.103866959245
1673.25,730.329306565548
1673.5,727.410811941685
1673.75,722.210262914122
1674,715.108587080718
1674.25,707.37272065671
1674.5,700.395261526619
1674.75,697.074078222523
1675,702.254925497021
1675.25,720.43194931979
1675.5,748.59415673247
1675.75,777.791708545916
1676,800.036497771249
1676.25,816.880902471104
1676.5,834.688289721458
1676.75,859.267836532953
1677,888.301098613502
1677.25,913.559996348087
1677.5,926.717265261622
1677.75,923.579906901643
1678,907.99062028839
1678.25,884.716239930119
1678.5,858.42962807468
1678.75,832.074644275385
1679,807.076882966713
1679.25,784.810249897051
1679.5,766.115629432041
1679.75,750.040490234566
1680,735.255519240065
1680.25,720.977608865759
1680.5,709.255311259719
1680.75,703.052004700049
1681,704.178821512557
1681.25,709.52119320911
1681.5,714.652635875488
1681.75,716.356979836661
1682,714.390233826098
1682.25,708.970565160125
1682.5,701.330251171195
1682.75,694.374414939473
1683,691.065720760583
1683.25,691.686877125982
1683.5,693.593211358434
1683.75,694.168879165197
1684,692.639659565308
1684.25,689.323028961012
1684.5,684.658717736897
1684.75,679.632041004717
1685,675.399341277272
1685.25,672.792809581104
1685.5,671.849116058091
1685.75,672.474193706336
1686,674.271444229204
1686.25,676.510533695299
1686.5,678.431395619602
1686.75,679.173399071113
1687,677.827976245852
1687.25,675.405667044484
1687.5,679.211764876966
1687.75,697.700312904915
1688,732.095130440458
1688.25,773.028978616954
1688.5,810.576215935205
1688.75,839.088716160271
1689,856.223268571268
1689.25,859.816140770666
1689.5,850.57410534509
1689.75,832.537950546498
1690,809.935582355501
1690.25,786.429546210531
1690.5,763.439485073247
1690.75,741.828913274119
1691,722.458947812887
1691.25,706.170708427338
1691.5,693.79537523848
1691.75,685.906396042251
1692,681.261314257011
1692.25,677.837150469451
1692.5,673.993918997782
1692.75,669.433370929725
1693,664.156553853172
1693.25,658.636767175473
1693.5,654.076082205911
1693.75,651.649202894194
1694,651.50463873024
1694.25,653.136507377714
1694.5,655.908149433713
1694.75,658.779916724093
1695,660.649207159973
1695.25,661.053162192654
1695.5,660.263327958464
1695.75,658.669628326671
1696,657.22485014562
1696.25,657.127400061708
1696.5,659.036313337509
1696.75,662.288056071871
1697,666.057320902459
1697.25,670.227322765379
1697.5,675.320717370679
1697.75,681.451223144387
1698,686.274585635358
1698.25,686.587043442317
1698.5,681.661398191821
1698.75,676.628034238971
1699,677.318074054698
1699.25,684.828121868272
1699.5,694.592168409374
1699.75,702.099693178073
1700,706.48826019966
1700.25,708.892861547401
1700.5,710.276031795423
1700.75,710.675179554122
1701,709.851082074561
1701.25,708.067228739231
1701.5,707.065162219762
1701.75,708.842705649359
1702,713.916807897469
1702.25,720.034299646713
1702.5,724.676852624324
1702.75,726.585927955968
1703,726.008595845835
1703.25,723.285244870141
1703.5,718.849622789134
1703.75,713.219621091823
1704,707.027512087662
1704.25,702.334687994028
1704.5,702.192687610558
1704.75,708.960213339068
1705,719.65951854249
1705.25,728.893681869321
1705.5,732.588486646843
1705.75,732.271191044727
1706,730.937942594665
1706.25,730.307077768341
1706.5,727.925632304141
1706.75,720.495921144233
1707,707.229965997739
1707.25,693.901516324342
1707.5,687.315864678249
1707.75,691.137772450573
1708,703.035080284102
1708.25,719.958895563617
1708.5,737.917482555739
1708.75,751.986614183971
1709,757.549099195958
1709.25,754.113770279137
1709.5,743.897094525384
1709.75,729.282703587292
1710,714.190595731969
1710.25,703.603888110435
1710.5,701.968119659493
1710.75,707.633687068984
1711,715.201133007396
1711.25,719.900457855725
1711.5,720.939354614688
1711.75,718.959148499414
1712,714.587481830371
1712.25,708.391904186384
1712.5,700.92572971618
1712.75,692.875874598619
1713,685.28621126257
1713.25,679.277590261849
1713.5,677.088299558135
1713.75,682.710489897583
1714,699.761359445777
1714.25,724.097000750112
1714.5,745.672483454056
1714.75,755.753200478543
1715,754.725384584318
1715.25,746.495213603767
1715.5,734.893033803774
1715.75,723.240732259492
1716,714.668463339928
1716.25,711.541110635098
1716.5,711.836814270688
1716.75,711.972766589929
1717,709.324610058032
1717.25,704.832626214527
1717.5,700.262009150686
1717.75,696.802938068334
1718,694.276768525549
1718.25,692.306581931201
1718.5,690.562405560146
1718.75,688.779743229019
1719,686.730264082638
1719.25,684.65201624682
1719.5,683.141017759834
1719.75,682.668129651903
1720,682.854551900474
1720.25,682.990431251499
1720.5,682.573647243706
1720.75,681.691214539363
1721,680.53679770107
1721.25,679.44521201002
1721.5,678.94188287197
1721.75,679.541616326982
1722,681.473394535414
1722.25,684.779155327509
1722.5,689.348480153361
1722.75,694.368105037125
1723,698.817703877025
1723.25,701.641419252944
1723.5,701.705382174719
1723.75,697.922796351107
1724,691.271634466007
1724.25,685.318530783211
1724.5,683.543438099433
1724.75,685.871040220355
1725,689.585237025155
1725.25,692.236986325277
1725.5,693.286895961269
1725.75,692.881567574159
1726,691.1777733101
1726.25,688.358464678622
1726.5,684.617252534635
1726.75,680.481662216694
1727,676.979952989047
1727.25,675.118459822515
1727.5,674.966177296487
1727.75,675.87392424228
1728,677.233854664516
1728.25,678.762691472619
1728.5,680.286372702014
1728.75,681.468520109481
1729,681.604153740684
1729.25,679.970713327358
1729.5,676.713443637962
1729.75,672.906413705517
1730,669.664817837762
1730.25,668.065777860439
1730.5,669.166632330389
1730.75,673.120093746552
1731,677.07346983005
1731.25,677.611729366733
1731.5,673.902205474894
1731.75,668.591726819352
1732,664.412836124205
1732.25,662.289791864723
1732.5,662.003415088673
1732.75,663.354014885656
1733,666.289238311334
1733.25,670.77807209984
1733.5,676.041691514727
1733.75,680.216664224831
1734,681.47868002599
1734.25,679.368399879141
1734.5,674.270922393123
1734.75,667.336551728276
1735,663.126909349211
1735.25,667.127825036946
1735.5,680.344633107639
1735.75,695.372679556902
1736,704.351702671977
1736.25,706.401158094996
1736.5,705.978151174883
1736.75,707.04663409384
1737,708.964142559551
1737.25,709.038406609197
1737.5,705.307968363465
1737.75,698.968181181044
1738,692.05554894619
1738.25,686.457470607793
1738.5,683.66987392976
1738.75,685.078569413088
1739,689.8982097242
1739.25,694.296661728454
1739.5,694.5352569139
1739.75,691.081426956682
1740,687.356298520774
1740.25,686.178774823009
1740.5,686.244121385906
1740.75,684.666957848725
1741,679.918455069575
1741.25,674.429483917915
1741.5,671.314772887168
1741.75,672.118226005759
1742,676.15727385483
1742.25,682.400413159392
1742.5,687.816482747234
1742.75,688.126163430755
1743,680.682551847004
1743.25,670.130624929877
1743.5,663.111231984029
1743.75,663.426596251678
1744,668.807658596927
1744.25,676.224022294105
1744.5,683.016302252984
1744.75,686.842994694328
1745,685.876939840322
1745.25,681.268841160816
1745.5,675.258471728226
1745.75,669.652929470788
1746,665.053508148145
1746.25,661.850899879983
1746.5,660.33041195378
1746.75,660.647239613552
1747,662.822940822806
1747.25,665.847198650417
1747.5,668.203892563927
1747.75,668.834461307083
1748,667.959818704968
1748.25,666.039729260045
1748.5,664.080699543541
1748.75,663.709745370457
1749,666.318427140337
1749.25,671.201968786156
1749.5,676.672352375516
1749.75,681.356058287489
1750,684.757410496622
1750.25,686.528205763108
1750.5,686.264584156204
1750.75,683.494745530068
1751,677.933869183746
1751.25,671.416577493727
1751.5,667.09787402302
1751.75,667.396612896282
1752,671.235805547785
1752.25,676.537429685211
1752.5,681.98035334048
1752.75,687.583898393415
1753,693.483515729572
1753.25,699.476344242067
1753.5,705.087837807347
1753.75,709.89012632369
1754,713.827475355597
1754.25,717.000053104765
1754.5,719.942543232085
1754.75,724.925473268437
1755,734.650002680869
1755.25,749.74960249043
1755.5,765.260960819127
1755.75,775.294130796209
1756,776.302020785784
1756.25,769.962739188656
1756.5,758.660904873073
1756.75,744.56710450012
1757,729.223722422933
1757.25,714.058493384298
1757.5,700.565272086536
1757.75,690.456194076185
1758,685.48138534355
1758.25,685.987462444723
1758.5,689.227306931178
1758.75,692.11189884514
1759,693.53232437025
1759.25,694.57549280935
1759.5,696.250220361267
1759.75,697.555095304088
1760,696.291326259914
1760.25,690.90424098044
1760.5,683.234414943212
1760.75,683.402956812222
1761,683.571498681232
1761.25,683.740040550242
1761.5,683.908582419252
1761.75,684.077124288262
1762,684.245666157272
1762.25,684.414208026282
1762.5,684.582749895293
1762.75,684.751291764303
1763,684.919833633313
1763.25,685.088375502323
1763.5,685.256917371333
1763.75,685.425459240343
1764,685.594001109353
1764.25,685.762542978363
1764.5,685.931084847373
1764.75,686.099626716383
1765,686.268168585394
1765.25,686.436710454404
1765.5,686.605252323414
1765.75,686.773794192424
1766,686.942336061434
1766.25,687.110877930444
1766.5,687.279419799454
1766.75,687.447961668464
1767,687.616503537474
1767.25,687.785045406485
1767.5,687.953587275495
1767.75,688.122129144505
1768,688.290671013515
1768.25,688.459212882525
1768.5,688.627754751535
1768.75,688.796296620545
1769,688.964838489555
1769.25,689.133380358565
1769.5,689.301922227575
1769.75,689.470464096585
1770,689.639005965596
1770.25,689.807547834606
1770.5,689.976089703616
1770.75,690.194999804039
1771,689.665573088706
1771.25,687.505169712392
1771.5,683.275512464098
1771.75,677.644286550874
1772,671.484562824336
1772.25,667.003143195326
1772.5,668.096798568367
1772.75,678.183153972108
1773,694.889048635091
1773.25,712.547783594761
1773.5,727.021296586919
1773.75,739.838472698661
1774,753.79972652388
1774.25,769.303743066494
1774.5,781.169769492714
1774.75,783.4438975286
1775,774.845544547722
1775.25,765.072073593651
1775.5,765.395244123477
1775.75,782.999384530126
1776,810.812030439438
1776.25,838.654252491049
1776.5,858.539073296019
1776.75,871.628254766665
1777,881.47007784791
1777.25,891.320536927372
1777.5,900.540794563643
1777.75,905.721177011993
1778,903.393808041341
1778.25,892.023341907195
1778.5,875.988136601517
1778.75,860.793841911635
1779,851.787588088851
1779.25,850.184476365319
1779.5,852.77801100284
1779.75,856.145290054689
1780,857.677775681362
1780.25,857.537662647636
1780.5,856.475873751162
1780.75,855.141992453689
1781,852.836719376326
1781.25,847.901871061397
1781.5,838.664488580623
1781.75,824.570100597739
1782,807.516433582176
1782.25,789.726404460801
1782.5,773.35289115324
1782.75,760.096097666955
1783,751.476232989355
1783.25,748.875321651036
1783.5,752.225285338094
1783.75,760.58951742321
1784,772.972272323871
1784.25,787.878868908264
1784.5,803.515841855941
1784.75,818.085116486698
1785,829.781239993373
1785.25,836.793629115682
1785.5,837.407543212192
1785.75,833.582008581468
1786,832.0161727257
1786.25,839.722355202405
1786.5,860.173170052626
1786.75,884.673145398193
1787,901.914166719748
1787.25,901.743147731428
1787.5,886.154221589728
1787.75,864.410576610155
1788,845.872278695814
1788.25,836.981819972629
1788.5,834.954941787783
1788.75,835.187811864498
1789,833.433521027997
1789.25,829.250220898121
1789.5,824.496819356678
1789.75,821.042794391305
1790,819.621823906824
1790.25,819.287721090304
1790.5,818.958864816727
1790.75,817.75106071759
1791,815.43433612655
1791.25,811.914051338672
1791.5,807.264855627698
1791.75,802.865869078349
1792,800.70241541612
1792.25,802.559218248729
1792.5,806.359141412483
1792.75,804.377756001538
1793,802.396370590592
1793.25,800.414985179646
1793.5,798.433599768701
1793.75,796.452214357755
1794,794.47082894681
1794.25,792.489443535864
1794.5,790.508058124919
1794.75,788.526672713973
1795,786.545287303028
1795.25,784.563901892082
1795.5,782.582516481137
1795.75,780.601131070191
1796,778.619745659245
1796.25,776.6383602483
1796.5,774.656974837354
1796.75,772.675589426409
1797,770.694204015463
1797.25,768.712818604518
1797.5,766.731433193572
1797.75,764.750047782627
1798,762.768662371681
1798.25,760.787276960735
1798.5,758.80589154979
1798.75,756.824506138844
1799,754.843120727899
1799.25,752.861735316953
1799.5,750.880349906008
1799.75,748.898964495062
1800,746.917579084116
1800.25,744.936193673171
1800.5,742.954808262225
1800.75,740.97342285128
1801,738.992037440334
1801.25,737.010652029389
1801.5,735.029266618443
1801.75,733.047881207498
1802,731.066495796552
1802.25,729.085110385607
1802.5,727.103724974661
1802.75,725.122339563715
1803,723.14095415277
1803.25,721.159568741824
1803.5,719.178183330879
1803.75,717.196797919933
1804,715.215412508988
1804.25,713.234027098042
1804.5,711.252641687097
1804.75,709.271256276151
1805,707.289870865205
1805.25,705.30848545426
1805.5,705.374856117511
1805.75,698.972441787431
1806,689.642706663922
1806.25,681.03161488966
1806.5,676.991312232548
1806.75,681.340679974826
1807,696.418873213035
1807.25,689.944766748745
1807.5,683.470660284456
1807.75,676.996553820167
1808,670.522447355878
1808.25,664.048340891589
1808.5,657.574234427299
1808.75,651.10012796301
1809,644.626021498721
1809.25,638.151915034432
1809.5,631.677808570142
1809.75,625.203702105853
1810,618.729595641564
1810.25,612.255489177275
1810.5,605.781382712986
1810.75,599.307276248696
1811,592.833169784407
1811.25,586.359063320118
1811.5,579.884956855829
1811.75,573.41085039154
1812,566.93674392725
1812.25,560.462637462961
1812.5,553.988530998672
1812.75,547.514424534383
1813,541.040318070093
1813.25,534.566211605804
1813.5,528.092105141515
1813.75,521.617998677226
1814,515.143892212937
1814.25,508.669785748647
1814.5,502.195679284358
1814.75,495.721572820069
1815,489.24746635578
1815.25,482.773359891491
1815.5,476.299253427201
1815.75,469.825146962912
1816,463.351040498623
1816.25,456.876934034334
1816.5,450.402827570045
1816.75,443.928721105755
1817,516.23555070425
1817.25,614.065854425542
1817.5,696.342511582253
1817.75,740.809389437857
1818,744.433392367097
1818.25,714.75202474748
1818.5,661.410986557142
1818.75,605.78525154852
1819,606.49661696396
1819.25,607.2079823794
1819.5,607.919347794841
1819.75,608.630713210281
1820,609.342078625721
1820.25,610.053444041161
1820.5,610.764809456601
1820.75,611.476174872042
1821,612.187540287482
1821.25,612.898905702922
1821.5,613.610271118362
1821.75,614.321636533803
1822,615.033001949243
1822.25,615.744367364683
1822.5,616.455732780123
1822.75,617.167098195563
1823,617.878463611004
1823.25,618.589829026444
1823.5,619.301194441884
1823.75,620.012559857324
1824,620.723925272764
1824.25,621.435290688205
1824.5,622.146656103645
1824.75,622.858021519085
1825,623.569386934525
1825.25,624.280752349966
1825.5,624.992117765406
1825.75,625.703483180846
1826,626.414848596286
1826.25,627.126214011726
1826.5,627.837579427166
1826.75,628.548944842607
1827,629.260310258047
1827.25,629.971675673487
1827.5,630.683041088927
1827.75,631.394406504368
1828,632.105771919808
1828.25,632.817137335248
1828.5,633.528502750688
1828.75,634.239868166128
1829,634.951233581569
1829.25,635.662598997009
1829.5,636.373964412449
1829.75,637.085329827889
1830,637.796695243329
1830.25,638.50806065877
1830.5,639.21942607421
1830.75,639.93079148965
1831,640.64215690509
1831.25,641.35352232053
1831.5,642.064887735971
1831.75,642.776253151411
1832,643.487618566851
1832.25,644.198983982291
1832.5,644.910349397732
1832.75,645.621714813172
1833,646.333080228612
1833.25,647.044445644052
1833.5,647.755811059492
1833.75,648.467176474933
1834,649.178541890373
1834.25,649.889907305813
1834.5,650.601272721253
1834.75,651.312638136693
1835,652.024003552134
1835.25,652.735368967574
1835.5,653.446734383014
1835.75,654.158099798454
1836,654.869465213895
1836.25,655.580830629335
1836.5,656.292196044775
1836.75,657.003561460215
1837,657.714926875655
1837.25,658.426292291095
1837.5,659.137657706536
1837.75,659.849023121976
1838,660.560388537416
1838.25,661.271753952856
1838.5,661.983119368297
1838.75,662.694484783737
1839,663.405850199177
1839.25,664.117215614617
1839.5,664.828581030057
1839.75,665.539946445498
1840,666.251311860938
1840.25,666.962677276378
1840.5,667.674042691818
1840.75,668.385408107258
1841,669.096773522699
1841.25,669.808138938139
1841.5,670.519504353579
1841.75,671.230869769019
1842,671.942235184459
1842.25,672.6536005999
1842.5,673.36496601534
1842.75,674.07633143078
1843,674.78769684622
1843.25,675.499062261661
1843.5,676.210427677101
1843.75,676.921793092541
1844,677.633158507981
1844.25,678.344523923421
1844.5,679.055889338862
1844.75,679.767254754302
1845,680.478620169742
1845.25,681.189985585182
1845.5,681.901351000622
1845.75,682.612716416063
1846,683.324081831503
1846.25,684.035447246943
1846.5,684.746812662383
1846.75,685.458178077824
1847,686.169543493264
1847.25,686.880908908704
1847.5,687.592274324144
1847.75,688.303639739584
1848,689.015005155024
1848.25,689.726370570465
1848.5,690.437735985905
1848.75,691.149101401345
1849,691.860466816785
1849.25,692.571832232226
1849.5,693.283197647666
1849.75,693.994563063106
1850,694.705928478546
1850.25,695.417293893986
1850.5,696.128659309427
1850.75,696.840024724867
1851,697.551390140307
1851.25,698.262755555747
1851.5,698.974120971187
1851.75,699.685486386628
1852,700.396851802068
1852.25,701.108217217508
1852.5,701.819582632948
1852.75,702.530948048389
1853,703.242313463829
1853.25,703.953678879269
1853.5,704.665044294709
1853.75,705.376409710149
1854,706.08777512559
1854.25,706.79914054103
1854.5,707.51050595647
1854.75,669.794580175661
1855,689.06000237655
1855.25,729.0356163223
1855.5,765.454153717594
1855.75,806.904970145139
1856,867.443318296625
1856.25,946.101893151648
1856.5,1011.28451404491
1856.75,1027.66432282101
1857,967.40516376087
1857.25,853.242920010187
1857.5,728.832933877098
1857.75,637.897076888624
1858,617.798515195921
1858.25,647.995302486334
1858.5,677.167821873181
1858.75,675.744356631555
1859,658.568483151464
1859.25,645.155741524617
1859.5,642.539160482218
1859.75,646.641817549393
1860,653.356670000175
1860.25,660.286885762851
1860.5,665.567188947136
1860.75,668.43586125579
1861,669.755403610636
1861.25,670.337677187167
1861.5,669.107422281638
1861.75,663.866412386801
1862,655.693302828971
1862.25,660.669243218285
1862.5,665.6451836076
1862.75,670.621123996915
1863,675.59706438623
1863.25,680.573004775545
1863.5,685.548945164859
1863.75,690.524885554174
1864,695.500825943489
1864.25,700.476766332804
1864.5,705.452706722119
1864.75,710.428647111433
1865,715.404587500748
1865.25,720.380527890063
1865.5,725.356468279378
1865.75,730.332408668693
1866,735.308349058007
1866.25,740.284289447322
1866.5,745.260229836637
1866.75,750.236170225952
1867,755.212110615267
1867.25,760.188051004581
1867.5,765.163991393896
1867.75,770.139931783211
1868,775.115872172526
1868.25,780.091812561841
1868.5,785.067752951155
1868.75,787.079602929492
1869,787.005470660808
1869.25,785.399107127414
1869.5,783.166376786619
1869.75,781.074189937649
1870,779.193902792507
1870.25,777.379687056685
1870.5,775.469143636315
1870.75,773.175382185355
1871,770.154697786428
1871.25,766.241344107127
1871.5,763.205487982432
1871.75,764.004486639566
1872,771.251486507176
1872.25,782.353912746312
1872.5,790.812611828144
1872.75,790.49947044586
1873,784.008813064614
1873.25,781.675842012435
1873.5,783.010242431007
1873.75,784.344642849579
1874,785.679043268152
1874.25,787.013443686724
1874.5,788.347844105296
1874.75,789.682244523868
1875,791.01664494244
1875.25,792.351045361012
1875.5,793.685445779584
1875.75,795.019846198156
1876,796.354246616728
1876.25,797.688647035301
1876.5,799.023047453873
1876.75,800.357447872445
1877,801.691848291017
1877.25,803.026248709589
1877.5,804.360649128161
1877.75,805.695049546733
1878,807.029449965305
1878.25,808.363850383877
1878.5,809.698250802449
1878.75,811.032651221022
1879,812.367051639594
1879.25,813.701452058166
1879.5,815.035852476738
1879.75,816.37025289531
1880,789.316181075432
1880.25,809.823319855199
1880.5,843.221943030488
1880.75,857.340627424623
1881,847.921256603925
1881.25,828.158225586846
1881.5,811.44988039165
1881.75,805.145291337678
1882,805.604871066807
1882.25,808.026476143873
1882.5,808.583307312536
1882.75,807.183609506847
1883,804.629563865418
1883.25,801.750265590692
1883.5,799.585227315185
1883.75,799.272969600172
1884,801.826328326228
1884.25,806.094919134446
1884.5,809.110822716939
1884.75,807.903154861597
1885,802.056464776228
1885.25,794.779650774962
1885.5,789.554921512203
1885.75,788.456367843142
1886,789.732424397006
1886.25,790.988008811595
1886.5,790.402838726833
1886.75,788.666011667058
1887,787.151231183115
1887.25,787.090131678806
1887.5,788.687278939664
1887.75,791.695761850928
1888,795.832406940621
1888.25,800.403790990686
1888.5,804.446333282936
1888.75,807.058991043956
1889,808.986802407415
1889.25,812.677444225973
1889.5,820.63433536735
1889.75,832.922532663269
1890,845.038588660559
1890.25,851.97676415221
1890.5,850.246494179062
1890.75,842.580346501913
1891,833.30836347471
1891.25,826.577711637907
1891.5,823.609119684513
1891.75,823.269196635888
1892,824.362386787429
1892.25,826.177014663398
1892.5,828.907492300906
1892.75,832.847784041709
1893,838.001890535599
1893.25,843.094675784548
1893.5,846.498394861023
1893.75,846.747760021319
1894,844.497266527016
1894.25,841.887392984807
1894.5,841.081731150063
1894.75,843.306361508273
1895,847.954167546072
1895.25,854.205667656393
1895.5,861.206091997319
1895.75,867.899977040263
1896,873.161006473112
1896.25,875.916732122449
1896.5,876.575942685468
1896.75,877.175985145896
1897,879.83770265274
1897.25,885.926072892595
1897.5,893.434873938318
1897.75,899.418378078742
1898,901.018562025999
1898.25,898.047469891883
1898.5,893.409142069552
1898.75,890.180319218549
1899,890.990637187214
1899.25,895.557891933875
1899.5,902.433979073663
1899.75,910.169774410744
1900,917.50642328527
1900.25,923.525571940809
1900.5,927.344219438836
1900.75,928.207836492503
1901,926.961077688749
1901.25,925.53284416357
1901.5,925.872620747526
1901.75,929.434306477935
1902,935.269552852085
1902.25,941.703144610398
1902.5,947.06541144471
1902.75,950.516172296897
1903,952.907311436385
1903.25,955.296934824915
1903.5,958.717049278998
1903.75,963.423879765894
1904,968.785676942151
1904.25,974.122025418616
1904.5,978.758266237575
1904.75,982.099299023409
1905,983.608070216561
1905.25,982.748845856799
1905.5,979.101354357754
1905.75,973.371314549511
1906,966.899855149122
1906.25,961.035265580929
1906.5,957.062498072877
1906.75,955.780727064369
1907,957.764285529281
1907.25,963.586284163532
1907.5,973.031440627149
1907.75,982.204042655395
1908,986.135267380269
1908.25,979.858603516527
1908.5,962.39414078315
1908.75,963.030787382279
1909,963.667433981408
1909.25,964.304080580536
1909.5,964.940727179665
1909.75,965.577373778794
1910,966.214020377922
1910.25,966.850666977051
1910.5,967.48731357618
1910.75,968.123960175308
1911,968.760606774437
1911.25,969.397253373566
1911.5,970.033899972694
1911.75,970.670546571823
1912,971.307193170952
1912.25,971.94383977008
1912.5,972.580486369209
1912.75,973.217132968338
1913,973.853779567467
1913.25,974.490426166595
1913.5,975.127072765724
1913.75,975.763719364853
1914,976.400365963981
1914.25,977.03701256311
1914.5,977.673659162239
1914.75,978.310305761367
1915,978.946952360496
1915.25,979.583598959625
1915.5,980.220245558753
1915.75,980.856892157882
1916,981.493538757011
1916.25,982.130185356139
1916.5,982.766831955268
1916.75,983.403478554397
1917,984.040125153525
1917.25,984.676771752654
1917.5,985.313418351783
1917.75,985.950064950912
1918,986.58671155004
1918.25,987.223358149169
1918.5,987.860004748298
1918.75,988.496651347426
1919,989.133297946555
1919.25,989.769944545684
1919.5,990.406591144812
1919.75,991.043237743941
1920,991.67988434307
1920.25,992.316530942198
1920.5,992.953177541327
1920.75,993.589824140456
1921,994.226470739584
1921.25,994.863117338713
1921.5,995.499763937842
1921.75,996.136410536971
1922,996.773057136099
1922.25,997.409703735228
1922.5,998.046350334356
1922.75,998.682996933485
1923,999.319643532614
1923.25,999.956290131743
1923.5,1000.59293673087
1923.75,1001.22958333
1924,1001.86622992913
1924.25,1002.50287652826
1924.5,1003.13952312739
1924.75,1003.77616972651
1925,1004.41281632564
1925.25,1005.04946292477
1925.5,1005.6861095239
1925.75,1006.32275612303
1926,1006.95940272216
1926.25,1007.59604932129
1926.5,1008.23269592042
1926.75,1008.86934251954
1927,1009.50598911867
1927.25,1010.1426357178
1927.5,1010.77928231693
1927.75,1011.41592891606
1928,1012.05257551519
1928.25,1012.68922211432
1928.5,1013.32586871344
1928.75,1013.96251531257
1929,1014.5991619117
1929.25,1015.23580851083
1929.5,1015.87245510996
1929.75,1016.50910170909
1930,1017.14574830822
1930.25,1017.78239490735
1930.5,1018.41904150647
1930.75,1019.0556881056
1931,1019.69233470473
1931.25,1019.01011681628
1931.5,1016.74938458821
1931.75,1012.4096507056
1932,1006.67585426481
1932.25,1000.78456324683
1932.5,995.975413957664
1932.75,993.383001738155
1933,993.139242280164
1933.25,994.819730597091
1933.5,997.994124180595
1933.75,1002.21176438151
1934,1006.84081798718
1934.25,1011.15429006771
1934.5,1014.42434148876
1934.75,1015.99768005214
1935,1015.87677325442
1935.25,1014.40469323016
1935.5,1011.92741651349
1935.75,1008.84993371793
1936,1006.21523081583
1936.25,1005.45618276263
1936.5,1008.01125297199
1936.75,1015.12554143378
1937,1025.59157114502
1937.25,1036.51658709405
1937.5,1044.97473546478
1937.75,1048.24038341081
1938,1046.54765774819
1938.25,1042.39077107795
1938.5,1038.32102354896
1938.75,1036.83665822844
1939,1038.54669343389
1939.25,1041.70181376385
1939.5,1044.40437583367
1939.75,1044.76860051821
1940,1042.12629060733
1940.25,1038.06495031207
1940.5,1034.41665543054
1940.75,1033.01309563037
1941,1034.942166429
1941.25,1038.99796884427
1941.5,1043.53383006019
1941.75,1046.90307726075
1942,1047.81092321525
1942.25,1046.57181796574
1942.5,1043.95996709172
1942.75,1040.74961193746
1943,1037.67669505143
1943.25,1035.16258745526
1943.5,1033.47431507679
1943.75,1032.87783914445
1944,1033.62305899876
1944.25,1035.72661378032
1944.5,1039.02912866903
1944.75,1043.36690155168
1945,1048.54715949983
1945.25,1053.62543346158
1945.5,1056.85629117605
1945.75,1056.45536370006
1946,1050.65535140995
1946.25,1039.10217846498
1946.5,1023.89123937608
1946.75,1007.36210987014
1947,991.854171014369
1947.25,979.225998822133
1947.5,969.820353188725
1947.75,963.68201891242
1948,960.855573724089
1948.25,961.162397057927
1948.5,963.775841831875
1948.75,967.752316928878
1949,972.151124442465
1949.25,976.337536576498
1949.5,980.248705572562
1949.75,983.884472431152
1950,987.235748674562
1950.25,989.901689383027
1950.5,990.945109929148
1950.75,989.390082116561
1951,984.321727702538
1951.25,976.76044019688
1951.5,970.013008236182
1951.75,967.518107603704
1952,972.559750729387
1952.25,984.660342108869
1952.5,999.463520846903
1952.75,1012.43482429385
1953,1019.31814967366
1953.25,1019.82579504137
1953.5,1016.62737059777
1953.75,1012.46313047048
1954,1009.95086802618
1954.25,1009.44180713522
1954.5,1009.28965581371
1954.75,1007.77974153906
1955,1003.27908187618
1955.25,995.994543073673
1955.5,987.951418078349
1955.75,981.252405343226
1956,977.946397567966
1956.25,978.724100606287
1956.5,982.847416219285
1956.75,989.510305589464
1957,997.861843511728
1957.25,1006.27560336281
1957.5,1012.47015024871
1957.75,1014.14347713037
1958,1009.21193254827
1958.25,998.955015154498
1958.5,987.291126701122
1958.75,978.209499334914
1959,975.516471916625
1959.25,979.520351450724
1959.5,987.384897746659
1959.75,996.161925866987
1960,1003.07295586439
1960.25,1007.5417378575
1960.5,1010.52992504723
1960.75,1013.03061735306
1961,1015.95549887089
1961.25,1019.17580529189
1961.5,1021.84401016967
1961.75,1023.09828048172
1962,1022.12352522835
1962.25,1018.84716507426
1962.5,1013.79109243896
1962.75,1007.49387409328
1963,1000.51234075584
1963.25,993.837227874869
1963.5,988.901003205636
1963.75,987.15596412358
1964,989.987793400404
1964.25,997.072879113874
1964.5,1006.27368497456
1964.75,1015.36511099708
1965,1022.17772884871
1965.25,1025.68231572135
1965.5,1025.91698954812
1965.75,1022.96094703243
1966,1016.92952014238
1966.25,1009.00579817609
1966.5,1001.59143637166
1966.75,997.154552079987
1967,998.118775385872
1967.25,1004.82032794345
1967.5,1014.65637613063
1967.75,1024.80299373962
1968,1032.47289792001
1968.25,1036.4717062301
1968.5,1037.77732586719
1968.75,1037.52369245253
1969,1036.83864464412
1969.25,1036.19082389426
1969.5,1034.80881869325
1969.75,1031.78419874781
1970,1026.2093530534
1970.25,1017.94281217289
1970.5,1009.03018260259
1970.75,1001.90479601125
1971,998.999983902026
1971.25,1001.89111947918
1971.5,1008.78107155868
1971.75,1017.04415952862
1972,1024.0547035196
1972.25,1027.97639389742
1972.5,1030.03805820999
1972.75,1032.21239365805
1973,1036.47209744232
1973.25,1044.25459144165
1973.5,1054.2227613694
1973.75,1064.14326533929
1974,1071.78231521634
1974.25,1075.23556528105
1974.5,1075.31738419456
1974.75,1074.18138348771
1975,1073.99055619206
1975.25,1076.84952254398
1975.5,1083.34217605609
1975.75,1092.42558644752
1976,1102.97720096879
1976.25,1113.87387251853
1976.5,1123.81291758073
1976.75,1131.06091427674
1977,1133.82117703932
1977.25,1130.29702030129
1977.5,1119.09569844814
1977.75,1102.63226247253
1978,1085.41344754807
1978.25,1071.96759527032
1978.5,1066.80838980583
1978.75,1071.8453039069
1979,1083.40704088431
1979.25,1097.10153354583
1979.5,1108.53671469927
1979.75,1114.17573026243
1980,1114.49905981911
1980.25,1111.1657563186
1980.5,1105.83502704296
1980.75,1100.12264307153
1981,1094.69337998701
1981.25,1089.28696354417
1981.5,1083.60487367354
1981.75,1077.34875945564
1982,1070.45295616175
1982.25,1063.54584303088
1982.5,1057.38462974109
1982.75,1052.72652597045
1983,1050.1942955854
1983.25,1049.3737836326
1983.5,1049.36859208842
1983.75,1049.27964713461
1984,1048.2339534936
1984.25,1045.78335450904
1984.5,1041.82540188659
1984.75,1036.26768876003
1985,1029.03037561993
1985.25,1020.57522203607
1985.5,1012.09986747701
1985.75,1004.85452311601
1986,1000.08536087321
1986.25,998.573371160621
1986.5,1000.20849934328
1986.75,1004.78002590761
1987,1012.07104354621
1987.25,1021.12418447223
1987.5,1029.54841925073
1987.75,1034.78861545088
1988,1034.3002796236
1988.25,1027.50287618844
1988.5,1018.06254362683
1988.75,1010.19964086953
1989,1008.1340609472
1989.25,1014.50655143115
1989.5,1026.85199762391
1989.75,1041.67524378318
1990,1055.48117704554
1990.25,1065.56334098712
1990.5,1072.01901866232
1990.75,1075.56827214084
1991,1076.93116349234
1991.25,1076.78438571056
1991.5,1075.50340145516
1991.75,1073.33585790788
1992,1070.52893845546
1992.25,1067.32806398506
1992.5,1063.94023415598
1992.75,1060.53516757328
1993,1057.28104844202
1993.25,1054.34655678021
1993.5,1051.96988313766
1993.75,1050.52966601178
1994,1050.42146776598
1994.25,1052.0408494849
1994.5,1055.43855378871
1994.75,1059.34957485859
1995,1062.1951261407
1995.25,1062.39642108122
1995.5,1058.75000214093
1995.75,1052.75782407603
1996,1047.1081190153
1996.25,1044.49417375235
1996.5,1047.43146203149
1996.75,1055.30141656928
1997,1064.80521301067
1997.25,1072.55766732418
1997.5,1075.23468098401
1997.75,1072.19379472897
1998,1066.46485904393
1998.25,1061.34310359099
1998.5,1060.12314821799
1998.75,1064.6052884361
1999,1071.8818857451
1999.25,1078.12046829063
1999.5,1079.48856421833
1999.75,1072.97580593828
2000,1060.92135894372
2000.25,1047.80468422323
2000.5,1038.11090427526
2000.75,1036.14853589263
2001,1042.59175431267
2001.25,1054.70317551114
2001.5,1069.61342211767
2001.75,1084.49415368491
2002,1098.31462343702
2002.25,1112.50349094255
2002.5,1128.66690593568
2002.75,1148.41073002017
2003,1172.04212969812
2003.25,1195.5828761192
2003.5,1214.17206753519
2003.75,1222.94880219783
2004,1217.25795333187
2004.25,1197.74311402915
2004.5,1170.68146260316
2004.75,1142.62300426352
2005,1120.11774421975
2005.25,1109.34235114033
2005.5,1110.62736213325
2005.75,1119.6662017818
2006,1132.02483812536
2006.25,1143.27146873827
2006.5,1150.35183133564
2006.75,1153.93362245491
2007,1155.30692214778
2007.25,1155.76181046599
2007.5,1156.52546955808
2007.75,1157.73905821508
2008,1158.62680253422
2008.25,1158.38415278862
2008.5,1156.20655925142
2008.75,1151.66515113827
2009,1146.12596317096
2009.25,1141.49047285268
2009.5,1139.66025082057
2009.75,1142.51129872531
2010,1150.18818619087
2010.25,1160.03171781969
2010.5,1169.12691654542
2010.75,1174.55880530174
2011,1173.76101719557
2011.25,1167.17038963453
2011.5,1156.75705006257
2011.75,1144.50341369362
2012,1132.39185629204
2012.25,1122.09847065298
2012.5,1114.25437927655
2012.75,1109.26804291961
2013,1107.54792233904
2013.25,1109.44201962968
2013.5,1114.0374199892
2013.75,1119.22836305816
2014,1122.8622572292
2014.25,1122.78648174779
2014.5,1116.79573028657
2014.75,1102.52318764041
2015,1077.57119452704
2015.25,1039.54209166419
2015.5,987.251183456103
2015.75,937.847549901699
2016,922.688476990093
2016.25,932.257621356933
2016.5,941.826765723772
2016.75,951.395910090612
2017,960.965054457452
2017.25,970.534198824292
2017.5,980.103343191132
2017.75,989.672487557972
2018,999.241631924812
2018.25,1008.81077629165
2018.5,1018.37992065849
2018.75,1027.94906502533
2019,1037.51820939217
2019.25,1047.08735375901
2019.5,1056.65649812585
2019.75,1066.22564249269
2020,1075.79478685953
2020.25,1085.36393122637
2020.5,1094.93307559321
2020.75,1104.50221996005
2021,1114.07136432689
2021.25,1123.64050869373
2021.5,1133.20965306057
2021.75,1142.77879742741
2022,1152.34794179425
2022.25,1161.91708616109
2022.5,1171.48623052793
2022.75,1181.05537489477
2023,1190.62451926161
2023.25,1200.19366362845
2023.5,1209.76280799529
2023.75,1219.33195236213
2024,1228.90109672897
2024.25,1238.47024109581
2024.5,1248.03938546265
2024.75,1257.60852982949
2025,1267.17767419633
2025.25,1276.74681856317
2025.5,1286.31596293001
2025.75,1295.88510729685
2026,1305.45425166369
2026.25,1315.02339603053
2026.5,1324.59254039737
2026.75,1334.16168476421
2027,1343.73082913105
2027.25,1353.29997349789
2027.5,1362.86911786473
2027.75,1372.43826223157
2028,1382.00740659841
2028.25,1391.57655096525
2028.5,1401.14569533209
2028.75,1422.60194271239
2029,1428.93819902633
2029.25,1406.71949718833
2029.5,1347.906123983
2029.75,1267.19632278084
2030,1185.27740015533
2030.25,1122.83669266057
2030.5,1121.79511249466
2030.75,1120.75353232875
2031,1119.71195216284
2031.25,1118.67037199693
2031.5,1117.62879183102
2031.75,1116.58721166511
2032,1115.5456314992
2032.25,1114.50405133329
2032.5,1113.46247116738
2032.75,1112.42089100147
2033,1111.37931083556
2033.25,1110.33773066965
2033.5,1109.29615050374
2033.75,1108.25457033783
2034,1107.21299017192
2034.25,1106.17141000601
2034.5,1105.1298298401
2034.75,1104.08824967419
2035,1103.04666950829
2035.25,1102.00508934238
2035.5,1100.96350917647
2035.75,1099.92192901056
2036,1098.88034884465
2036.25,1097.83876867874
2036.5,1096.79718851283
2036.75,1095.75560834692
2037,1094.71402818101
2037.25,1093.6724480151
2037.5,1092.63086784919
2037.75,1091.58928768328
2038,1090.54770751737
2038.25,1089.50612735146
2038.5,1088.46454718555
2038.75,1087.42296701964
2039,1086.38138685373
2039.25,1085.33980668782
2039.5,1084.29822652191
2039.75,1083.256646356
2040,1082.21506619009
2040.25,1081.17348602418
2040.5,1080.13190585827
2040.75,1079.09032569236
2041,1078.04874552645
2041.25,1077.00716536054
2041.5,1075.96558519463
2041.75,1074.92400502872
2042,1073.88242486281
2042.25,1072.8408446969
2042.5,1071.79926453099
2042.75,1070.75768436508
2043,1069.71610419917
2043.25,1068.67452403326
2043.5,1067.63294386735
2043.75,1066.59136370144
2044,1065.54978353553
2044.25,1064.50820336962
2044.5,1063.46662320371
2044.75,1062.4250430378
2045,1061.38346287189
2045.25,1060.34188270598
2045.5,1059.30030254007
2045.75,1058.25872237416
2046,1057.21714220826
2046.25,1056.17556204235
2046.5,1055.13398187644
2046.75,1054.09240171053
2047,1053.05082154462
2047.25,1052.00924137871
2047.5,1050.9676612128
2047.75,1049.92608104689
2048,1048.88450088098
2048.25,1047.84292071507
2048.5,1046.80134054916
2048.75,1045.75976038325
2049,1044.71818021734
2049.25,1043.67660005143
2049.5,1042.63501988552
2049.75,1041.59343971961
2050,1040.5518595537
2050.25,1039.51027938779
2050.5,1038.46869922188
2050.75,1037.42711905597
2051,1036.38553889006
2051.25,1035.34395872415
2051.5,1034.30237855824
2051.75,1033.26079839233
2052,1032.21921822642
2052.25,1031.17763806051
2052.5,1030.1360578946
2052.75,1029.09447772869
2053,1028.05289756278
2053.25,1027.01131739687
2053.5,1025.96973723096
2053.75,1024.92815706505
2054,1023.88657689914
