1094,54.5646494230726
1094.25,54.7245732550495
1094.5,54.8844970870265
1094.75,55.0444209190035
1095,55.2043447509805
1095.25,55.3642685829574
1095.5,55.5241924149344
1095.75,55.6841162469114
1096,55.8440400788883
1096.25,56.0039639108653
1096.5,56.1638877428423
1096.75,56.3238115748192
1097,56.4837354067962
1097.25,56.6436592387731
1097.5,56.8035830707501
1097.75,56.9635069027271
1098,57.1
1098.25,57.1
1098.5,57.1
1098.75,57.1
1099,57.1
1099.25,57.1
1099.5,57.1
1099.75,57.1
1100,57.1
1100.25,57.1
1100.5,57.1
1100.75,57.1
1101,57.1
1101.25,57.1
1101.5,57.1
1101.75,57.1
1102,57.1
1102.25,57.1
1102.5,57.1
1102.75,57.1
1103,57.0979461836647
1103.25,57.0829533244168
1103.5,57.067960465169
1103.75,57.0529676059212
1104,57.0379747466733
1104.25,57.0229818874255
1104.5,57.0079890281776
1104.75,56.9929961689298
1105,56.978003309682
1105.25,56.9630104504341
1105.5,56.9480175911863
1105.75,56.9330247319384
1106,56.9180318726906
1106.25,56.9030390134428
1106.5,56.8880461541949
1106.75,56.8730532949471
1107,56.8580604356992
1107.25,56.8430675764514
1107.5,56.8280747172035
1107.75,56.8130818579557
1108,56.8152880103371
1108.25,56.9352308843198
1108.5,57.0551737583026
1108.75,57.1751166322853
1109,57.295059506268
1109.25,57.4150023802507
1109.5,57.5349452542334
1109.75,57.6548881282162
1110,57.7748310021989
1110.25,57.8947738761816
1110.5,58.0147167501644
1110.75,58.1346596241471
1111,58.2546024981298
1111.25,58.3745453721125
1111.5,58.4944882460953
1111.75,58.614431120078
1112,58.7343739940607
1112.25,58.8543168680434
1112.5,58.9742597420262
1112.75,59.0942026160089
1113,59.2011787908326
1113.25,59.2111740303312
1113.5,59.2211692698298
1113.75,59.2311645093283
1114,59.2411597488269
1114.25,59.2511549883254
1114.5,59.261150227824
1114.75,59.2711454673226
1115,59.2811407068211
1115.25,59.2911359463197
1115.5,59.3011311858182
1115.75,59.3111264253168
1116,59.3211216648154
1116.25,59.3311169043139
1116.5,59.3411121438125
1116.75,59.351107383311
1117,59.3611026228096
1117.25,59.3710978623082
1117.5,59.3810931018067
1117.75,59.3910883413053
1118,59.3924149343731
1118.25,59.3224482578832
1118.5,59.2524815813932
1118.75,59.1825149049033
1119,59.1125482284134
1119.25,59.0425815519235
1119.5,58.9726148754335
1119.75,58.9026481989436
1120,58.8326815224537
1120.25,58.7627148459638
1120.5,58.6927481694738
1120.75,58.6227814929839
1121,58.552814816494
1121.25,58.4828481400041
1121.5,58.4128814635142
1121.75,58.3429147870242
1122,58.2729481105343
1122.25,58.2029814340444
1122.5,58.1330147575545
1122.75,58.0630480810645
1123,57.9930814045746
1123.25,57.9231147280847
1123.5,57.8531480515948
1123.75,57.7831813751048
1124,57.7132146986149
1124.25,57.643248022125
1124.5,57.5732813456351
1124.75,57.5033146691451
1125,57.4333479926552
1125.25,57.3633813161653
1125.5,57.2934146396754
1125.75,57.2234479631855
1126,57.1534812866955
1126.25,57.0835146102056
1126.5,57.0135479337157
1126.75,56.9435812572258
1127,56.8736145807358
1127.25,56.8036479042459
1127.5,56.733681227756
1127.75,56.6637145512661
1128,56.6053589644776
1128.25,56.665330401469
1128.5,56.7253018384603
1128.75,56.7852732754517
1129,56.845244712443
1129.25,56.9052161494344
1129.5,56.9651875864258
1129.75,57.0251590234171
1130,57.0851304604085
1130.25,57.1451018973999
1130.5,57.2050733343912
1130.75,57.2650447713826
1131,57.3250162083739
1131.25,57.3849876453653
1131.5,57.4449590823567
1131.75,57.504930519348
1132,57.5649019563394
1132.25,57.6248733933308
1132.5,57.6848448303221
1132.75,57.7448162673135
1133,57.7968081971301
1133.25,57.7568272391359
1133.5,57.7168462811416
1133.75,57.6768653231474
1134,57.6368843651531
1134.25,57.5969034071589
1134.5,57.5569224491646
1134.75,57.5169414911704
1135,57.4769605331762
1135.25,57.4369795751819
1135.5,57.3969986171877
1135.75,57.3570176591934
1136,57.3170367011992
1136.25,57.2770557432049
1136.5,57.2370747852107
1136.75,57.1970938272165
1137,57.1571128692222
1137.25,57.117131911228
1137.5,57.0771509532337
1137.75,57.0371699952395
1138,56.9855938158819
1138.25,56.7806914061614
1138.5,56.575788996441
1138.75,56.3708865867204
1139,56.165984177
1139.25,55.9610817672795
1139.5,55.756179357559
1139.75,55.5512769478385
1140,55.346374538118
1140.25,55.1414721283975
1140.5,54.936569718677
1140.75,54.7316673089565
1141,54.5267648992361
1141.25,54.3218624895155
1141.5,54.1169600797951
1141.75,53.9120576700746
1142,53.7071552603541
1142.25,53.5022528506336
1142.5,53.2973504409131
1142.75,53.0924480311926
1143,52.8866343254823
1143.25,52.6667390565139
1143.5,52.4468437875456
1143.75,52.2269485185773
1144,52.0070532496089
1144.25,51.7871579806406
1144.5,51.5672627116723
1144.75,51.3473674427039
1145,51.1274721737356
1145.25,50.9075769047673
1145.5,50.6876816357989
1145.75,50.4677863668306
1146,50.2478910978623
1146.25,50.0279958288939
1146.5,49.8081005599256
1146.75,49.5882052909573
1147,49.368310021989
1147.25,49.1484147530206
1147.5,48.9285194840523
1147.75,48.708624215084
1148,48.5079409697822
1148.25,48.6628671820098
1148.5,48.8177933942375
1148.75,48.9727196064652
1149,49.1276458186929
1149.25,49.2825720309206
1149.5,49.4374982431483
1149.75,49.592424455376
1150,49.7473506676037
1150.25,49.9022768798313
1150.5,50.0572030920591
1150.75,50.2121293042867
1151,50.3670555165144
1151.25,50.5219817287421
1151.5,50.6769079409698
1151.75,50.8318341531975
1152,50.9867603654252
1152.25,51.1416865776529
1152.5,51.2966127898805
1152.75,51.4515390021082
1153,51.6006256659035
1153.25,51.6156185251513
1153.5,51.6306113843992
1153.75,51.645604243647
1154,51.6605971028948
1154.25,51.6755899621427
1154.5,51.6905828213905
1154.75,51.7055756806384
1155,51.7205685398862
1155.25,51.735561399134
1155.5,51.7505542583819
1155.75,51.7655471176297
1156,51.7805399768776
1156.25,51.7955328361254
1156.5,51.8105256953732
1156.75,51.8255185546211
1157,51.8405114138689
1157.25,51.8555042731168
1157.5,51.8704971323646
1157.75,51.8854899916124
1158,51.9016095028676
1158.25,51.9515857003604
1158.5,52.0015618978532
1158.75,52.051538095346
1159,52.1015142928389
1159.25,52.1514904903316
1159.5,52.2014666878245
1159.75,52.2514428853173
1160,52.3014190828101
1160.25,52.3513952803029
1160.5,52.4013714777957
1160.75,52.4513476752885
1161,52.5013238727813
1161.25,52.5513000702741
1161.5,52.6012762677669
1161.75,52.6512524652597
1162,52.7012286627525
1162.25,52.7512048602453
1162.5,52.8011810577381
1162.75,52.8511572552309
1163,52.9002266905447
1163.25,52.9102219300433
1163.5,52.9202171695419
1163.75,52.9302124090404
1164,52.940207648539
1164.25,52.9502028880375
1164.5,52.9601981275361
1164.75,52.9701933670347
1165,52.9801886065332
1165.25,52.9901838460318
1165.5,53.0001790855303
1165.75,53.0101743250289
1166,53.0201695645275
1166.25,53.030164804026
1166.5,53.0401600435246
1166.75,53.0501552830231
1167,53.0601505225217
1167.25,53.0701457620203
1167.5,53.0801410015188
1167.75,53.0901362410174
1168,53.0987509350985
1168.25,53.0037961598622
1168.5,52.9088413846258
1168.75,52.8138866093895
1169,52.7189318341532
1169.25,52.6239770589169
1169.5,52.5290222836805
1169.75,52.4340675084442
1170,52.3391127332079
1170.25,52.2441579579716
1170.5,52.1492031827352
1170.75,52.0542484074989
1171,51.9592936322626
1171.25,51.8643388570263
1171.5,51.76938408179
1171.75,51.6744293065536
1172,51.5794745313173
1172.25,51.484519756081
1172.5,51.3895649808446
1172.75,51.2946102056083
1173,51.1998367828078
1173.25,51.1548582050643
1173.5,51.1098796273208
1173.75,51.0649010495772
1174,51.0199224718337
1174.25,50.9749438940902
1174.5,50.9299653163467
1174.75,50.8849867386031
1175,50.8400081608596
1175.25,50.7950295831161
1175.5,50.7500510053726
1175.75,50.705072427629
1176,50.6600938498855
1176.25,50.615115272142
1176.5,50.5701366943985
1176.75,50.525158116655
1177,50.4801795389114
1177.25,50.4352009611679
1177.5,50.3902223834244
1177.75,50.3452438056809
1178,50.3002652279373
1178.25,50.3149044499354
1178.5,50.3298973091832
1178.75,50.3448901684311
1179,50.3598830276789
1179.25,50.3748758869268
1179.5,50.3898687461746
1179.75,50.4048616054224
1180,50.4198544646703
1180.25,50.4348473239181
1180.5,50.449840183166
1180.75,50.4648330424138
1181,50.4798259016616
1181.25,50.4948187609095
1181.5,50.5098116201573
1181.75,50.5248044794052
1182,50.539797338653
1182.25,50.5547901979008
1182.5,50.5697830571487
1182.75,50.5847759163965
1183,50.5997687756444
1183.25,50.5901589100719
1183.5,50.5801636705733
1183.75,50.5701684310747
1184,50.5601731915762
1184.25,50.5501779520776
1184.5,50.5401827125791
1184.75,50.5301874730805
1185,50.5201922335819
1185.25,50.5101969940834
1185.5,50.5002017545848
1185.75,50.4902065150863
1186,50.4802112755877
1186.25,50.4702160360891
1186.5,50.4602207965906
1186.75,50.450225557092
1187,50.4402303175935
1187.25,50.4302350780949
1187.5,50.4202398385963
1187.75,50.4102445990978
1188,50.4002493595992
1188.25,50.3512706005032
1188.5,50.3012944030105
1188.75,50.2513182055176
1189,50.2013420080248
1189.25,50.151365810532
1189.5,50.1013896130392
1189.75,50.0514134155464
1190,50.0014372180536
1190.25,49.9514610205608
1190.5,49.901484823068
1190.75,49.8515086255752
1191,49.8015324280824
1191.25,49.7515562305896
1191.5,49.7015800330968
1191.75,49.651603835604
1192,49.6016276381112
1192.25,49.5516514406184
1192.5,49.5016752431256
1192.75,49.4516990456328
1193,49.40172284814
1193.25,49.4048253349353
1193.5,49.4098229546846
1193.75,49.4148205744338
1194,49.4198181941831
1194.25,49.4248158139324
1194.5,49.4298134336817
1194.75,49.434811053431
1195,49.4398086731802
1195.25,49.4448062929295
1195.5,49.4498039126788
1195.75,49.4548015324281
1196,49.4597991521774
1196.25,49.4647967719266
1196.5,49.4697943916759
1196.75,49.4747920114252
1197,49.4797896311745
1197.25,49.4847872509238
1197.5,49.489784870673
1197.75,49.4947824904223
1198,49.4997801101716
1198.25,49.5143331897627
1198.5,49.5293260490105
1198.75,49.5443189082583
1199,49.5593117675062
1199.25,49.574304626754
1199.5,49.5892974860019
1199.75,49.6042903452497
1200,49.6192832044975
1200.25,49.6342760637454
1200.5,49.6492689229932
1200.75,49.6642617822411
1201,49.6792546414889
1201.25,49.6942475007367
1201.5,49.7092403599846
1201.75,49.7242332192324
1202,49.7392260784803
1202.25,49.7542189377281
1202.5,49.7692117969759
1202.75,49.7842046562238
1203,49.7991975154716
1203.25,49.7621590007481
1203.5,49.7221780427538
1203.75,49.6821970847596
1204,49.6422161267653
1204.25,49.6022351687711
1204.5,49.5622542107769
1204.75,49.5222732527826
1205,49.4822922947884
1205.25,49.4423113367941
1205.5,49.4023303787999
1205.75,49.3623494208057
1206,49.3223684628114
1206.25,49.2823875048172
1206.5,49.2424065468229
1206.75,49.2024255888287
1207,49.1624446308345
1207.25,49.1224636728402
1207.5,49.082482714846
1207.75,49.0425017568517
1208,49.0025207988575
1208.25,49.2247609548206
1208.5,49.464646702786
1208.75,49.7045324507515
1209,49.944418198717
1209.25,50.1843039466824
1209.5,50.4241896946479
1209.75,50.6640754426132
1210,50.9039611905787
1210.25,51.1438469385442
1210.5,51.3837326865096
1210.75,51.6236184344751
1211,51.8635041824406
1211.25,52.103389930406
1211.5,52.3432756783715
1211.75,52.583161426337
1212,52.8230471743023
1212.25,53.0629329222678
1212.5,53.3028186702333
1212.75,53.5427044181987
1213,53.7825901661642
1213.25,53.7675555958561
1213.5,53.7325722576111
1213.75,53.6975889193662
1214,53.6626055811212
1214.25,53.6276222428762
1214.5,53.5926389046313
1214.75,53.5576555663863
1215,53.5226722281414
1215.25,53.4876888898964
1215.5,53.4527055516514
1215.75,53.4177222134065
1216,53.3827388751615
1216.25,53.3477555369166
1216.5,53.3127721986716
1216.75,53.2777888604266
1217,53.2428055221817
1217.25,53.2078221839367
1217.5,53.1728388456917
1217.75,53.1378555074468
1218,53.1028721692018
1218.25,53.0724761408202
1218.5,53.0424904223245
1218.75,53.0125047038288
1219,52.9825189853331
1219.25,52.9525332668374
1219.5,52.9225475483418
1219.75,52.8925618298461
1220,52.8625761113504
1220.25,52.8325903928547
1220.5,52.802604674359
1220.75,52.7726189558634
1221,52.7426332373677
1221.25,52.712647518872
1221.5,52.6826618003763
1221.75,52.6526760818806
1222,52.6226903633849
1222.25,52.5927046448893
1222.5,52.5627189263936
1222.75,52.5327332078979
1223,52.5027474894022
1223.25,52.4455235418131
1223.5,52.3855521048217
1223.75,52.3255806678303
1224,52.265609230839
1224.25,52.2056377938476
1224.5,52.1456663568562
1224.75,52.0856949198649
1225,52.0257234828735
1225.25,51.9657520458822
1225.5,51.9057806088908
1225.75,51.8458091718994
1226,51.7858377349081
1226.25,51.7258662979167
1226.5,51.6658948609253
1226.75,51.605923423934
1227,51.5459519869426
1227.25,51.4859805499513
1227.5,51.4260091129599
1227.75,51.3660376759685
1228,51.3060662389772
1228.25,51.3
1228.5,51.3
1228.75,51.3
1229,51.3
1229.25,51.3
1229.5,51.3
1229.75,51.3
1230,51.3
1230.25,51.3
1230.5,51.3
1230.75,51.3
1231,51.3
1231.25,51.3
1231.5,51.3
1231.75,51.3
1232,51.3
1232.25,51.3
1232.5,51.3
1232.75,51.3
1233,51.3
1233.25,51.2911110103598
1233.5,51.2811157708612
1233.75,51.2711205313626
1234,51.2611252918641
1234.25,51.2511300523655
1234.5,51.241134812867
1234.75,51.2311395733684
1235,51.2211443338698
1235.25,51.2111490943713
1235.5,51.2011538548727
1235.75,51.1911586153742
1236,51.1811633758756
1236.25,51.171168136377
1236.5,51.1611728968785
1236.75,51.1511776573799
1237,51.1411824178814
1237.25,51.1311871783828
1237.5,51.1211919388842
1237.75,51.1111966993857
1238,51.1012014598871
1238.25,51.0868093305828
1238.5,51.071816471335
1238.75,51.0568236120871
1239,51.0418307528393
1239.25,51.0268378935915
1239.5,51.0118450343436
1239.75,50.9968521750958
1240,50.9818593158479
1240.25,50.9668664566001
1240.5,50.9518735973523
1240.75,50.9368807381044
1241,50.9218878788566
1241.25,50.9068950196087
1241.5,50.8919021603609
1241.75,50.876909301113
1242,50.8619164418652
1242.25,50.8469235826174
1242.5,50.8319307233695
1242.75,50.8169378641217
1243,50.8019450048738
1243.25,50.6825693106341
1243.5,50.5476335774035
1243.75,50.4126978441729
1244,50.2777621109424
1244.25,50.1428263777118
1244.5,50.0078906444812
1244.75,49.8729549112507
1245,49.7380191780201
1245.25,49.6030834447895
1245.5,49.468147711559
1245.75,49.3332119783284
1246,49.1982762450978
1246.25,49.0633405118673
1246.5,48.9284047786367
1246.75,48.7934690454061
1247,48.6585333121756
1247.25,48.523597578945
1247.5,48.3886618457144
1247.75,48.2537261124838
1248,48.1187903792533
1248.25,48.237653752862
1248.5,48.3975775848389
1248.75,48.5575014168159
1249,48.7174252487929
1249.25,48.8773490807699
1249.5,49.0372729127469
1249.75,49.1971967447238
1250,49.3571205767008
1250.25,49.5170444086778
1250.5,49.6769682406547
1250.75,49.8368920726317
1251,49.9968159046086
1251.25,50.1567397365856
1251.5,50.3166635685626
1251.75,50.4765874005395
1252,50.6365112325165
1252.25,50.7964350644935
1252.5,50.9563588964704
1252.75,51.1162827284474
1253,51.2762065604244
1253.25,51.3510488971505
1253.5,51.4110203341419
1253.75,51.4709917711332
1254,51.5309632081246
1254.25,51.590934645116
1254.5,51.6509060821073
1254.75,51.7108775190987
1255,51.77084895609
1255.25,51.8308203930814
1255.5,51.8907918300728
1255.75,51.9507632670641
1256,52.0107347040555
1256.25,52.0707061410469
1256.5,52.1306775780382
1256.75,52.1906490150296
1257,52.2506204520209
1257.25,52.3105918890123
1257.5,52.3705633260037
1257.75,52.430534762995
1258,52.4905061999864
1258.25,52.6514329109333
1258.5,52.8313472219074
1258.75,53.0112615328815
1259,53.1911758438555
1259.25,53.3710901548297
1259.5,53.5510044658038
1259.75,53.7309187767778
1260,53.9108330877519
1260.25,54.090747398726
1260.5,54.2706617097001
1260.75,54.4505760206742
1261,54.6304903316482
1261.25,54.8104046426224
1261.5,54.9903189535965
1261.75,55.1702332645705
1262,55.3501475755446
1262.25,55.5300618865188
1262.5,55.7099761974928
1262.75,55.8898905084669
1263,56.069804819441
1263.25,56.0459347584612
1263.5,55.9809657017206
1263.75,55.9159966449799
1264,55.8510275882393
1264.25,55.7860585314986
1264.5,55.721089474758
1264.75,55.6561204180174
1265,55.5911513612767
1265.25,55.5261823045361
1265.5,55.4612132477954
1265.75,55.3962441910548
1266,55.3312751343142
1266.25,55.2663060775735
1266.5,55.2013370208328
1266.75,55.1363679640922
1267,55.0713989073516
1267.25,55.0064298506109
1267.5,54.9414607938703
1267.75,54.8764917371296
1268,54.811522680389
1268.25,54.7177748056129
1268.5,54.6178224106272
1268.75,54.5178700156416
1269,54.417917620656
1269.25,54.3179652256704
1269.5,54.2180128306848
1269.75,54.1180604356992
1270,54.0181080407136
1270.25,53.918155645728
1270.5,53.8182032507424
1270.75,53.7182508557568
1271,53.6182984607712
1271.25,53.5183460657856
1271.5,53.4183936708
1271.75,53.3184412758144
1272,53.2184888808288
1272.25,53.1185364858432
1272.5,53.0185840908576
1272.75,52.918631695872
1273,52.8186793008863
1273.25,52.7471724888355
1273.5,52.6822034320948
1273.75,52.6172343753542
1274,52.5522653186136
1274.25,52.4872962618729
1274.5,52.4223272051323
1274.75,52.3573581483916
1275,52.292389091651
1275.25,52.2274200349104
1275.5,52.1624509781697
1275.75,52.097481921429
1276,52.0325128646884
1276.25,51.9675438079478
1276.5,51.9025747512071
1276.75,51.8376056944665
1277,51.7726366377258
1277.25,51.7076675809852
1277.5,51.6426985242446
1277.75,51.5777294675039
1278,51.5127604107632
1278.25,51.5080320993811
1278.5,51.5180273388797
1278.75,51.5280225783783
1279,51.5380178178768
1279.25,51.5480130573754
1279.5,51.5580082968739
1279.75,51.5680035363725
1280,51.5779987758711
1280.25,51.5879940153696
1280.5,51.5979892548682
1280.75,51.6079844943667
1281,51.6179797338653
1281.25,51.6279749733639
1281.5,51.6379702128624
1281.75,51.647965452361
1282,51.6579606918595
1282.25,51.6679559313581
1282.5,51.6779511708567
1282.75,51.6879464103552
1283,51.6979416498538
1283.25,51.6722208872668
1283.5,51.6372375490218
1283.75,51.6022542107769
1284,51.5672708725319
1284.25,51.5322875342869
1284.5,51.497304196042
1284.75,51.462320857797
1285,51.4273375195521
1285.25,51.3923541813071
1285.5,51.3573708430621
1285.75,51.3223875048172
1286,51.2874041665722
1286.25,51.2524208283272
1286.5,51.2174374900823
1286.75,51.1824541518373
1287,51.1474708135924
1287.25,51.1124874753474
1287.5,51.0775041371024
1287.75,51.0425207988575
1288,51.0075374606125
1288.25,51.0196041983089
1288.5,51.0445922970553
1288.75,51.0695803958017
1289,51.0945684945481
1289.25,51.1195565932945
1289.5,51.1445446920409
1289.75,51.1695327907873
1290,51.1945208895337
1290.25,51.2195089882801
1290.5,51.2444970870265
1290.75,51.2694851857729
1291,51.2944732845193
1291.25,51.3194613832657
1291.5,51.3444494820121
1291.75,51.3694375807585
1292,51.3944256795049
1292.25,51.4194137782513
1292.5,51.4444018769977
1292.75,51.4693899757441
1293,51.4943780744905
1293.25,51.3799297259311
1293.5,51.2250035137034
1293.75,51.0700773014758
1294,50.9151510892481
1294.25,50.7602248770203
1294.5,50.6052986647927
1294.75,50.450372452565
1295,50.2954462403373
1295.25,50.1405200281096
1295.5,49.9855938158819
1295.75,49.8306676036542
1296,49.6757413914266
1296.25,49.5208151791989
1296.5,49.3658889669711
1296.75,49.2109627547435
1297,49.0560365425158
1297.25,48.9011103302881
1297.5,48.7461841180604
1297.75,48.5912579058327
1298,48.4363316936051
1298.25,48.3770462222021
1298.5,48.3470605037064
1298.75,48.3170747852107
1299,48.287089066715
1299.25,48.2571033482193
1299.5,48.2271176297237
1299.75,48.197131911228
1300,48.1671461927323
1300.25,48.1371604742366
1300.5,48.1071747557409
1300.75,48.0771890372452
1301,48.0472033187496
1301.25,48.0172176002539
1301.5,47.9872318817582
1301.75,47.9572461632625
1302,47.9272604447668
1302.25,47.8972747262712
1302.5,47.8672890077755
1302.75,47.8373032892798
1303,47.8073175707841
1303.25,47.7848879015256
1303.5,47.7648974225285
1303.75,47.7449069435314
1304,47.7249164645343
1304.25,47.7049259855371
1304.5,47.68493550654
1304.75,47.6649450275429
1305,47.6449545485458
1305.25,47.6249640695487
1305.5,47.6049735905515
1305.75,47.5849831115544
1306,47.5649926325573
1306.25,47.5450021535602
1306.5,47.5250116745631
1306.75,47.5050211955659
1307,47.4850307165688
1307.25,47.4650402375717
1307.5,47.4450497585746
1307.75,47.4250592795774
1308,47.4050688005803
1308.25,47.4634171332714
1308.5,47.5483766690092
1308.75,47.6333362047469
1309,47.7182957404847
1309.25,47.8032552762225
1309.5,47.8882148119602
1309.75,47.973174347698
1310,48.0581338834357
1310.25,48.1430934191735
1310.5,48.2280529549113
1310.75,48.313012490649
1311,48.3979720263868
1311.25,48.4829315621246
1311.5,48.5678910978623
1311.75,48.6528506336001
1312,48.7378101693379
1312.25,48.8227697050756
1312.5,48.9077292408134
1312.75,48.9926887765511
1313,49.0776483122889
1313.25,49.0594890395122
1313.5,49.0045152222701
1313.75,48.949541405028
1314,48.8945675877859
1314.25,48.8395937705438
1314.5,48.7846199533018
1314.75,48.7296461360597
1315,48.6746723188176
1315.25,48.6196985015755
1315.5,48.5647246843334
1315.75,48.5097508670913
1316,48.4547770498492
1316.25,48.3998032326072
1316.5,48.3448294153651
1316.75,48.289855598123
1317,48.2348817808809
1317.25,48.1799079636388
1317.5,48.1249341463967
1317.75,48.0699603291547
1318,48.0149865119126
1318.25,48.0945154489606
1318.5,48.2244535624419
1318.75,48.3543916759232
1319,48.4843297894045
1319.25,48.6142679028858
1319.5,48.7442060163671
1319.75,48.8741441298484
1320,49.0040822433296
1320.25,49.1340203568109
1320.5,49.2639584702922
1320.75,49.3938965837735
1321,49.5238346972548
1321.25,49.6537728107361
1321.5,49.7837109242173
1321.75,49.9136490376986
1322,50.04358715118
1322.25,50.1735252646612
1322.5,50.3034633781425
1322.75,50.4334014916238
1323,50.5633396051051
1323.25,50.8044934599778
1323.5,51.0893577856868
1323.75,51.3742221113957
1324,51.6590864371047
1324.25,51.9439507628136
1324.5,52.2288150885227
1324.75,52.5136794142317
1325,52.7985437399406
1325.25,53.0834080656496
1325.5,53.3682723913586
1325.75,53.6531367170675
1326,53.9380010427765
1326.25,54.2228653684855
1326.5,54.5077296941944
1326.75,54.7925940199035
1327,55.0774583456125
1327.25,55.3623226713214
1327.5,55.6471869970304
1327.75,55.9320513227394
1328,56.2169156484483
1328.25,56.3176999977331
1328.5,56.3426880964795
1328.75,56.3676761952259
1329,56.3926642939723
1329.25,56.4176523927187
1329.5,56.4426404914651
1329.75,56.4676285902115
1330,56.4926166889579
1330.25,56.5176047877043
1330.5,56.5425928864507
1330.75,56.5675809851971
1331,56.5925690839435
1331.25,56.6175571826899
1331.5,56.6425452814363
1331.75,56.6675333801827
1332,56.6925214789291
1332.25,56.7175095776755
1332.5,56.7424976764219
1332.75,56.7674857751683
1333,56.7924738739147
1333.25,56.9117566250312
1333.5,57.0716804570081
1333.75,57.2316042889851
1334,57.3915281209621
1334.25,57.551451952939
1334.5,57.711375784916
1334.75,57.871299616893
1335,58.0312234488699
1335.25,58.1911472808469
1335.5,58.3510711128239
1335.75,58.5109949448008
1336,58.6709187767778
1336.25,58.8308426087548
1336.5,58.9907664407317
1336.75,59.1506902727087
1337,59.3106141046857
1337.25,59.4705379366627
1337.5,59.6304617686397
1337.75,59.7903856006166
1338,59.9503094325936
1338.25,60.0344478951783
1338.5,60.0844240926711
1338.75,60.1344002901639
1339,60.1843764876567
1339.25,60.2343526851495
1339.5,60.2843288826423
1339.75,60.3343050801351
1340,60.3842812776279
1340.25,60.4342574751207
1340.5,60.4842336726135
1340.75,60.5342098701063
1341,60.5841860675991
1341.25,60.6341622650919
1341.5,60.6841384625847
1341.75,60.7341146600775
1342,60.7840908575703
1342.25,60.8340670550631
1342.5,60.8840432525559
1342.75,60.9340194500487
1343,60.9839956475415
1343.25,61
1343.5,61
1343.75,61
1344,61
1344.25,61
1344.5,61
1344.75,61
1345,61
1345.25,61
1345.5,61
1345.75,61
1346,61
1346.25,61
1346.5,61
1346.75,61
1347,61
1347.25,61
1347.5,61
1347.75,61
1348,61
1348.25,60.9363579897082
1348.5,60.8414032144719
1348.75,60.7464484392356
1349,60.6514936639993
1349.25,60.556538888763
1349.5,60.4615841135266
1349.75,60.3666293382903
1350,60.271674563054
1350.25,60.1767197878176
1350.5,60.0817650125813
1350.75,59.986810237345
1351,59.8918554621087
1351.25,59.7969006868723
1351.5,59.701945911636
1351.75,59.6069911363997
1352,59.5120363611634
1352.25,59.4170815859271
1352.5,59.3221268106907
1352.75,59.2271720354544
1353,59.1322172602181
1353.25,59.1297177702718
1353.5,59.1746963480153
1353.75,59.2196749257589
1354,59.2646535035024
1354.25,59.3096320812459
1354.5,59.3546106589894
1354.75,59.399589236733
1355,59.4445678144765
1355.25,59.48954639222
1355.5,59.5345249699635
1355.75,59.579503547707
1356,59.6244821254506
1356.25,59.6694607031941
1356.5,59.7144392809376
1356.75,59.7594178586811
1357,59.8043964364246
1357.25,59.8493750141682
1357.5,59.8943535919117
1357.75,59.9393321696552
1358,59.9843107473987
1358.25,59.8047378323849
1358.5,59.5048806474282
1358.75,59.2050234624714
1359,58.9051662775145
1359.25,58.6053090925578
1359.5,58.3054519076009
1359.75,58.005594722644
1360,57.7057375376873
1360.25,57.4058803527304
1360.5,57.1060231677736
1360.75,56.8061659828169
1361,56.50630879786
1361.25,56.2064516129033
1361.5,55.9065944279464
1361.75,55.6067372429895
1362,55.3068800580328
1362.25,55.0070228730759
1362.5,54.7071656881191
1362.75,54.4073085031624
1363,54.1074513182055
1363.25,54.2180599823182
1363.5,54.5578981252692
1363.75,54.8977362682203
1364,55.2375744111714
1364.25,55.5774125541224
1364.5,55.9172506970735
1364.75,56.2570888400246
1365,56.5969269829755
1365.25,56.9367651259266
1365.5,57.2766032688776
1365.75,57.6164414118287
1366,57.9562795547798
1366.25,58.2961176977308
1366.5,58.6359558406819
1366.75,58.975793983633
1367,59.315632126584
1367.25,59.6554702695351
1367.5,59.9953084124862
1367.75,60.3351465554371
1368,60.6749846983883
1368.25,60.7494534490966
1368.5,60.6694915331082
1368.75,60.5895296171197
1369,60.5095677011312
1369.25,60.4296057851427
1369.5,60.3496438691542
1369.75,60.2696819531657
1370,60.1897200371772
1370.25,60.1097581211888
1370.5,60.0297962052003
1370.75,59.9498342892118
1371,59.8698723732233
1371.25,59.7899104572348
1371.5,59.7099485412463
1371.75,59.6299866252578
1372,59.5500247092694
1372.25,59.4700627932809
1372.5,59.3901008772924
1372.75,59.3101389613039
1373,59.2301770453154
1373.25,59.1190995851563
1373.5,58.989161471675
1373.75,58.8592233581937
1374,58.7292852447124
1374.25,58.5993471312312
1374.5,58.4694090177499
1374.75,58.3394709042686
1375,58.2095327907873
1375.25,58.079594677306
1375.5,57.9496565638247
1375.75,57.8197184503434
1376,57.6897803368621
1376.25,57.5598422233809
1376.5,57.4299041098996
1376.75,57.2999659964183
1377,57.170027882937
1377.25,57.0400897694557
1377.5,56.9101516559744
1377.75,56.7802135424932
1378,56.6502754290118
1378.25,56.5111454673225
1378.5,56.3662144945934
1378.75,56.2212835218643
1379,56.0763525491352
1379.25,55.931421576406
1379.5,55.7864906036769
1379.75,55.6415596309478
1380,55.4966286582187
1380.25,55.3516976854895
1380.5,55.2067667127604
1380.75,55.0618357400313
1381,54.9169047673021
1381.25,54.771973794573
1381.5,54.6270428218439
1381.75,54.4821118491147
1382,54.3371808763857
1382.25,54.1922499036565
1382.5,54.0473189309274
1382.75,53.9023879581983
1383,53.7574569854691
1383.25,53.7663595765421
1383.5,53.8763072110262
1383.75,53.9862548455104
1384,54.0962024799945
1384.25,54.2061501144787
1384.5,54.3160977489629
1384.75,54.426045383447
1385,54.5359930179312
1385.25,54.6459406524154
1385.5,54.7558882868995
1385.75,54.8658359213837
1386,54.9757835558679
1386.25,55.085731190352
1386.5,55.1956788248362
1386.75,55.3056264593204
1387,55.4155740938045
1387.25,55.5255217282887
1387.5,55.6354693627729
1387.75,55.745416997257
1388,55.8553646317412
1388.25,55.9118749574955
1388.5,55.9318654364926
1388.75,55.9518559154898
1389,55.9718463944869
1389.25,55.991836873484
1389.5,56.0118273524811
1389.75,56.0318178314782
1390,56.0518083104754
1390.25,56.0717987894725
1390.5,56.0917892684696
1390.75,56.1117797474667
1391,56.1317702264639
1391.25,56.151760705461
1391.5,56.1717511844581
1391.75,56.1917416634552
1392,56.2117321424523
1392.25,56.2317226214495
1392.5,56.2517131004466
1392.75,56.2717035794437
1393,56.2916940584408
1393.25,56.3408958810328
1393.5,56.4108625575227
1393.75,56.4808292340127
1394,56.5507959105026
1394.25,56.6207625869925
1394.5,56.6907292634824
1394.75,56.7606959399723
1395,56.8306626164623
1395.25,56.9006292929522
1395.5,56.9705959694421
1395.75,57.040562645932
1396,57.110529322422
1396.25,57.1804959989119
1396.5,57.2504626754018
1396.75,57.3204293518918
1397,57.3903960283817
1397.25,57.4603627048716
1397.5,57.5303293813615
1397.75,57.6002960578514
1398,57.6702627343414
1398.25,57.7
1398.5,57.7
1398.75,57.7
1399,57.7
1399.25,57.7
1399.5,57.7
1399.75,57.7
1400,57.7
1400.25,57.7
1400.5,57.7
1400.75,57.7
1401,57.7
1401.25,57.7
1401.5,57.7
1401.75,57.7
1402,57.7
1402.25,57.7
1402.5,57.7
1402.75,57.7
1403,57.7
1403.25,57.6886963026772
1403.5,57.6687058236801
1403.75,57.648715344683
1404,57.6287248656859
1404.25,57.6087343866887
1404.5,57.5887439076916
1404.75,57.5687534286945
1405,57.5487629496974
1405.25,57.5287724707002
1405.5,57.5087819917031
1405.75,57.488791512706
1406,57.4688010337089
1406.25,57.4488105547118
1406.5,57.4288200757146
1406.75,57.4088295967175
1407,57.3888391177204
1407.25,57.3688486387233
1407.5,57.3488581597262
1407.75,57.328867680729
1408,57.3088772017319
1408.25,57.216650420511
1408.5,57.0667218280325
1408.75,56.9167932355541
1409,56.7668646430757
1409.25,56.6169360505973
1409.5,56.4670074581189
1409.75,56.3170788656405
1410,56.1671502731621
1410.25,56.0172216806837
1410.5,55.8672930882053
1410.75,55.7173644957269
1411,55.5674359032485
1411.25,55.4175073107701
1411.5,55.2675787182916
1411.75,55.1176501258133
1412,54.9677215333348
1412.25,54.8177929408564
1412.5,54.667864348378
1412.75,54.5179357558996
1413,54.3680071634212
1413.25,54.330037857321
1413.5,54.3850116745631
1413.75,54.4399854918051
1414,54.4949593090472
1414.25,54.5499331262893
1414.5,54.6049069435314
1414.75,54.6598807607735
1415,54.7148545780156
1415.25,54.7698283952576
1415.5,54.8248022124997
1415.75,54.8797760297418
1416,54.9347498469839
1416.25,54.989723664226
1416.5,55.0446974814681
1416.75,55.0996712987101
1417,55.1546451159522
1417.25,55.2096189331943
1417.5,55.2645927504364
1417.75,55.3195665676785
1418,55.3745403849206
1418.25,55.5180568086505
1418.5,55.7379520776189
1418.75,55.9578473465872
1419,56.1777426155555
1419.25,56.3976378845239
1419.5,56.6175331534922
1419.75,56.8374284224605
1420,57.0573236914289
1420.25,57.2772189603971
1420.5,57.4971142293655
1420.75,57.7170094983339
1421,57.9369047673021
1421.25,58.1568000362705
1421.5,58.3766953052389
1421.75,58.5965905742071
1422,58.8164858431755
1422.25,59.0363811121439
1422.5,59.2562763811121
1422.75,59.4761716500805
1423,59.6960669190489
1423.25,59.8632521025548
1423.5,59.9831949765375
1423.75,60.1031378505203
1424,60.223080724503
1424.25,60.3430235984857
1424.5,60.4629664724685
1424.75,60.5829093464512
1425,60.7028522204339
1425.25,60.8227950944166
1425.5,60.9427379683993
1425.75,61.0626808423821
1426,61.1826237163648
1426.25,61.3025665903475
1426.5,61.4225094643303
1426.75,61.542452338313
1427,61.6623952122957
1427.25,61.7823380862785
1427.5,61.9022809602611
1427.75,62.0222238342439
1428,62.1421667082266
1428.25,62.2
1428.5,62.2
1428.75,62.2
1429,62.2
1429.25,62.2
1429.5,62.2
1429.75,62.2
1430,62.2
1430.25,62.2
1430.5,62.2
1430.75,62.2
1431,62.2
1431.25,62.2
1431.5,62.2
1431.75,62.2
1432,62.2
1432.25,62.2
1432.5,62.2
1432.75,62.2
1433,62.2
1433.25,62.2
1433.5,62.2
1433.75,62.2
1434,62.2
1434.25,62.2
1434.5,62.2
1434.75,62.2
1435,62.2
1435.25,62.2
1435.5,62.2
1435.75,62.2
1436,62.2
1436.25,62.2
1436.5,62.2
1436.75,62.2
1437,62.2
1437.25,62.2
1437.5,62.2
1437.75,62.2
1438,62.2
1438.25,62.1950146215401
1438.5,62.1850193820416
1438.75,62.175024142543
1439,62.1650289030445
1439.25,62.1550336635459
1439.5,62.1450384240473
1439.75,62.1350431845488
1440,62.1250479450502
1440.25,62.1150527055517
1440.5,62.1050574660531
1440.75,62.0950622265545
1441,62.085066987056
1441.25,62.0750717475574
1441.5,62.0650765080588
1441.75,62.0550812685603
1442,62.0450860290617
1442.25,62.0350907895632
1442.5,62.0250955500646
1442.75,62.015100310566
1443,62.0051050710675
1443.25,62.0073352526466
1443.5,62.0223281118945
1443.75,62.0373209711423
1444,62.0523138303901
1444.25,62.067306689638
1444.5,62.0822995488858
1444.75,62.0972924081337
1445,62.1122852673815
1445.25,62.1272781266293
1445.5,62.1422709858772
1445.75,62.157263845125
1446,62.1722567043729
1446.25,62.1872495636207
1446.5,62.2022424228685
1446.75,62.2172352821164
1447,62.2322281413642
1447.25,62.2472210006121
1447.5,62.2622138598599
1447.75,62.2772067191077
1448,62.2921995783556
1448.25,62.2928075623966
1448.5,62.2778147031487
1448.75,62.2628218439009
1449,62.247828984653
1449.25,62.2328361254052
1449.5,62.2178432661574
1449.75,62.2028504069095
1450,62.1878575476617
1450.25,62.1728646884138
1450.5,62.157871829166
1450.75,62.1428789699182
1451,62.1278861106703
1451.25,62.1128932514225
1451.5,62.0979003921746
1451.75,62.0829075329268
1452,62.067914673679
1452.25,62.0529218144311
1452.5,62.0379289551833
1452.75,62.0229360959354
1453,62.0079432366876
1453.25,62.0117493709337
1453.5,62.0367374696801
1453.75,62.0617255684265
1454,62.0867136671729
1454.25,62.1117017659193
1454.5,62.1366898646657
1454.75,62.1616779634121
1455,62.1866660621586
1455.25,62.2116541609049
1455.5,62.2366422596514
1455.75,62.2616303583978
1456,62.2866184571442
1456.25,62.3116065558906
1456.5,62.336594654637
1456.75,62.3615827533834
1457,62.3865708521298
1457.25,62.4115589508762
1457.5,62.4365470496226
1457.75,62.461535148369
1458,62.4865232471154
1458.25,62.4838841157935
1458.5,62.4489007775486
1458.75,62.4139174393036
1459,62.3789341010586
1459.25,62.3439507628137
1459.5,62.3089674245687
1459.75,62.2739840863238
1460,62.2390007480788
1460.25,62.2040174098338
1460.5,62.1690340715889
1460.75,62.1340507333439
1461,62.0990673950989
1461.25,62.064084056854
1461.5,62.029100718609
1461.75,61.9941173803641
1462,61.9591340421191
1462.25,61.9241507038741
1462.5,61.8891673656292
1462.75,61.8541840273842
1463,61.8192006891393
1463.25,61.7842173508943
1463.5,61.7492340126493
1463.75,61.7142506744044
1464,61.6792673361594
1464.25,61.6442839979144
1464.5,61.6093006596695
1464.75,61.5743173214245
1465,61.5393339831796
1465.25,61.5043506449346
1465.5,61.4693673066896
1465.75,61.4343839684447
1466,61.3994006301997
1466.25,61.3644172919547
1466.5,61.3294339537098
1466.75,61.2944506154648
1467,61.2594672772199
1467.25,61.2244839389749
1467.5,61.1895006007299
1467.75,61.154517262485
1468,61.11953392424
1468.25,61.0867576451386
1468.5,61.0567719266429
1468.75,61.0267862081473
1469,60.9968004896516
1469.25,60.9668147711559
1469.5,60.9368290526602
1469.75,60.9068433341645
1470,60.8768576156688
1470.25,60.8468718971732
1470.5,60.8168861786775
1470.75,60.7869004601818
1471,60.7569147416861
1471.25,60.7269290231904
1471.5,60.6969433046948
1471.75,60.6669575861991
1472,60.6369718677034
1472.25,60.6069861492077
1472.5,60.577000430712
1472.75,60.5470147122163
1473,60.5170289937207
1473.25,60.52591344955
1473.5,60.5858848865414
1473.75,60.6458563235327
1474,60.7058277605241
1474.25,60.7657991975155
1474.5,60.8257706345068
1474.75,60.8857420714982
1475,60.9457135084896
1475.25,61.0056849454809
1475.5,61.0656563824723
1475.75,61.1256278194636
1476,61.185599256455
1476.25,61.2455706934464
1476.5,61.3055421304377
1476.75,61.3655135674291
1477,61.4254850044205
1477.25,61.4854564414118
1477.5,61.5454278784032
1477.75,61.6053993153946
1478,61.6653707523859
1478.25,61.7084473964591
1478.5,61.7284378754562
1478.75,61.7484283544533
1479,61.7684188334505
1479.25,61.7884093124476
1479.5,61.8083997914447
1479.75,61.8283902704418
1480,61.8483807494389
1480.25,61.8683712284361
1480.5,61.8883617074332
1480.75,61.9083521864303
1481,61.9283426654274
1481.25,61.9483331444246
1481.5,61.9683236234217
1481.75,61.9883141024188
1482,62.0083045814159
1482.25,62.028295060413
1482.5,62.0482855394102
1482.75,62.0682760184073
1483,62.0882664974044
1483.25,62.1144497087027
1483.5,62.1494330469476
1483.75,62.1844163851926
1484,62.2193997234375
1484.25,62.2543830616825
1484.5,62.2893663999275
1484.75,62.3243497381724
1485,62.3593330764174
1485.25,62.3943164146623
1485.5,62.4292997529073
1485.75,62.4642830911523
1486,62.4992664293972
1486.25,62.5342497676422
1486.5,62.5692331058872
1486.75,62.6042164441321
1487,62.6391997823771
1487.25,62.674183120622
1487.5,62.709166458867
1487.75,62.744149797112
1488,62.7791331353569
1488.25,62.7879001654841
1488.5,62.7579144469884
1488.75,62.7279287284927
1489,62.697943009997
1489.25,62.6679572915014
1489.5,62.6379715730057
1489.75,62.60798585451
1490,62.5780001360143
1490.25,62.5480144175186
1490.5,62.518028699023
1490.75,62.4880429805273
1491,62.4580572620316
1491.25,62.4280715435359
1491.5,62.3980858250402
1491.75,62.3681001065446
1492,62.3381143880489
1492.25,62.3081286695532
1492.5,62.2781429510575
1492.75,62.2481572325618
1493,62.2181715140662
1493.25,62.1901548296421
1493.5,62.1651667308957
1493.75,62.1401786321493
1494,62.1151905334029
1494.25,62.0902024346565
1494.5,62.06521433591
1494.75,62.0402262371636
1495,62.0152381384173
1495.25,61.9902500396708
1495.5,61.9652619409244
1495.75,61.940273842178
1496,61.9152857434316
1496.25,61.8902976446852
1496.5,61.8653095459388
1496.75,61.8403214471924
1497,61.815333348446
1497.25,61.7903452496996
1497.5,61.7653571509532
1497.75,61.7403690522068
1498,61.7153809534604
1498.25,61.7057642871716
1498.5,61.7207571464194
1498.75,61.7357500056673
1499,61.7507428649151
1499.25,61.7657357241629
1499.5,61.7807285834108
1499.75,61.7957214426586
1500,61.8107143019065
1500.25,61.8257071611543
1500.5,61.8407000204022
1500.75,61.85569287965
1501,61.8706857388978
1501.25,61.8856785981457
1501.5,61.9006714573935
1501.75,61.9156643166414
1502,61.9306571758892
1502.25,61.945650035137
1502.5,61.9606428943849
1502.75,61.9756357536327
1503,61.9906286128806
1503.25,61.9868832317004
1503.5,61.9518998934554
1503.75,61.9169165552105
1504,61.8819332169655
1504.25,61.8469498787206
1504.5,61.8119665404756
1504.75,61.7769832022306
1505,61.7419998639857
1505.25,61.7070165257407
1505.5,61.6720331874957
1505.75,61.6370498492508
1506,61.6020665110058
1506.25,61.5670831727609
1506.5,61.5320998345159
1506.75,61.4971164962709
1507,61.462133158026
1507.25,61.427149819781
1507.5,61.392166481536
1507.75,61.3571831432911
1508,61.3221998050461
1508.25,61.3255670663977
1508.5,61.3955337428876
1508.75,61.4655004193775
1509,61.5354670958674
1509.25,61.6054337723574
1509.5,61.6754004488473
1509.75,61.7453671253372
1510,61.8153338018271
1510.25,61.8853004783171
1510.5,61.955267154807
1510.75,62.0252338312969
1511,62.0952005077868
1511.25,62.1651671842768
1511.5,62.2351338607667
1511.75,62.3051005372566
1512,62.3750672137465
1512.25,62.4450338902364
1512.5,62.5150005667264
1512.75,62.5849672432163
1513,62.6549339197062
1513.25,62.6893283159159
1513.5,62.6593425974203
1513.75,62.6293568789246
1514,62.5993711604289
1514.25,62.5693854419332
1514.5,62.5393997234375
1514.75,62.5094140049418
1515,62.4794282864462
1515.25,62.4494425679505
1515.5,62.4194568494548
1515.75,62.3894711309591
1516,62.3594854124634
1516.25,62.3294996939678
1516.5,62.2995139754721
1516.75,62.2695282569764
1517,62.2395425384807
1517.25,62.209556819985
1517.5,62.1795711014894
1517.75,62.1495853829937
1518,62.119599664498
1518.25,62.1051930269988
1518.5,62.1201858862467
1518.75,62.1351787454945
1519,62.1501716047424
1519.25,62.1651644639902
1519.5,62.180157323238
1519.75,62.1951501824859
1520,62.2101430417337
1520.25,62.2251359009816
1520.5,62.2401287602294
1520.75,62.2551216194773
1521,62.2701144787251
1521.25,62.2851073379729
1521.5,62.3001001972208
1521.75,62.3150930564686
1522,62.3300859157165
1522.25,62.3450787749643
1522.5,62.3600716342121
1522.75,62.37506449346
1523,62.3900573527078
1523.25,62.3882161721035
1523.5,62.3532328338585
1523.75,62.3182494956135
1524,62.2832661573686
1524.25,62.2482828191236
1524.5,62.2132994808786
1524.75,62.1783161426337
1525,62.1433328043887
1525.25,62.1083494661438
1525.5,62.0733661278988
1525.75,62.0383827896538
1526,62.0033994514089
1526.25,61.9684161131639
1526.5,61.933432774919
1526.75,61.898449436674
1527,61.863466098429
1527.25,61.8284827601841
1527.5,61.7934994219391
1527.75,61.7585160836942
1528,61.7235327454492
1528.25,61.6934568041167
1528.5,61.6734663251196
1528.75,61.6534758461225
1529,61.6334853671253
1529.25,61.6134948881282
1529.5,61.5935044091311
1529.75,61.573513930134
1530,61.5535234511369
1530.25,61.5335329721397
1530.5,61.5135424931426
1530.75,61.4935520141455
1531,61.4735615351484
1531.25,61.4535710561512
1531.5,61.4335805771541
1531.75,61.413590098157
1532,61.3935996191599
1532.25,61.3736091401628
1532.5,61.3536186611656
1532.75,61.3336281821685
1533,61.3136377031714
1533.25,61.2920590302178
1533.5,61.2670709314714
1533.75,61.242082832725
1534,61.2170947339786
1534.25,61.1921066352322
1534.5,61.1671185364858
1534.75,61.1421304377394
1535,61.117142338993
1535.25,61.0921542402466
1535.5,61.0671661415002
1535.75,61.0421780427538
1536,61.0171899440074
1536.25,60.992201845261
1536.5,60.9672137465146
1536.75,60.9422256477682
1537,60.9172375490218
1537.25,60.8922494502754
1537.5,60.867261351529
1537.75,60.8422732527826
1538,60.8172851540362
1538.25,60.7661070432752
1538.5,60.6561594087911
1538.75,60.5462117743069
1539,60.4362641398227
1539.25,60.3263165053386
1539.5,60.2163688708544
1539.75,60.1064212363702
1540,59.9964736018861
1540.25,59.8865259674019
1540.5,59.7765783329177
1540.75,59.6666306984336
1541,59.5566830639494
1541.25,59.4467354294652
1541.5,59.3367877949811
1541.75,59.2268401604969
1542,59.1168925260127
1542.25,59.0069448915286
1542.5,58.8969972570444
1542.75,58.7870496225602
1543,58.6771019880761
1543.25,58.6223947589146
1543.5,58.6973590551538
1543.75,58.772323351393
1544,58.8472876476322
1544.25,58.9222519438714
1544.5,58.9972162401106
1544.75,59.0721805363498
1545,59.147144832589
1545.25,59.2221091288283
1545.5,59.2970734250674
1545.75,59.3720377213067
1546,59.4470020175459
1546.25,59.5219663137851
1546.5,59.5969306100243
1546.75,59.6718949062635
1547,59.7468592025027
1547.25,59.8218234987419
1547.5,59.8967877949811
1547.75,59.9717520912203
1548,60.0467163874595
1548.25,60.1
1548.5,60.1
1548.75,60.1
1549,60.1
1549.25,60.1
1549.5,60.1
1549.75,60.1
1550,60.1
1550.25,60.1
1550.5,60.1
1550.75,60.1
1551,60.1
1551.25,60.1
1551.5,60.1
1551.75,60.1
1552,60.1
1552.25,60.1
1552.5,60.1
1552.75,60.1
1553,60.1
1553.25,60.1013977738989
1553.5,60.1063953936481
1553.75,60.1113930133974
1554,60.1163906331467
1554.25,60.121388252896
1554.5,60.1263858726453
1554.75,60.1313834923945
1555,60.1363811121438
1555.25,60.1413787318931
1555.5,60.1463763516424
1555.75,60.1513739713917
1556,60.1563715911409
1556.25,60.1613692108902
1556.5,60.1663668306395
1556.75,60.1713644503888
1557,60.1763620701381
1557.25,60.1813596898873
1557.5,60.1863573096366
1557.75,60.1913549293859
1558,60.1963525491352
1558.25,60.2
1558.5,60.2
1558.75,60.2
1559,60.2
1559.25,60.2
1559.5,60.2
1559.75,60.2
1560,60.2
1560.25,60.2
1560.5,60.2
1560.75,60.2
1561,60.2
1561.25,60.2
1561.5,60.2
1561.75,60.2
1562,60.2
1562.25,60.2
1562.5,60.2
1562.75,60.2
1563,60.2
1563.25,60.2
1563.5,60.2
1563.75,60.2
1564,60.2
1564.25,60.2
1564.5,60.2
1564.75,60.2
1565,60.2
1565.25,60.2
1565.5,60.2
1565.75,60.2
1566,60.2
1566.25,60.2
1566.5,60.2
1566.75,60.2
1567,60.2
1567.25,60.2
1567.5,60.2
1567.75,60.2
1568,60.2
1568.25,60.196235123433
1568.5,60.1812422641852
1568.75,60.1662494049373
1569,60.1512565456895
1569.25,60.1362636864416
1569.5,60.1212708271938
1569.75,60.106277967946
1570,60.0912851086981
1570.25,60.0762922494503
1570.5,60.0612993902024
1570.75,60.0463065309546
1571,60.0313136717068
1571.25,60.0163208124589
1571.5,60.0013279532111
1571.75,59.9863350939632
1572,59.9713422347154
1572.25,59.9563493754675
1572.5,59.9413565162197
1572.75,59.9263636569719
1573,59.911370797724
1573.25,59.9036220615238
1573.5,59.9186149207717
1573.75,59.9336077800195
1574,59.9486006392673
1574.25,59.9635934985152
1574.5,59.978586357763
1574.75,59.9935792170109
1575,60.0085720762587
1575.25,60.0235649355065
1575.5,60.0385577947544
1575.75,60.0535506540022
1576,60.0685435132501
1576.25,60.0835363724979
1576.5,60.0985292317458
1576.75,60.1135220909936
1577,60.1285149502414
1577.25,60.1435078094893
1577.5,60.1585006687371
1577.75,60.173493527985
1578,60.1884863872328
1578.25,60.2
1578.5,60.2
1578.75,60.2
1579,60.2
1579.25,60.2
1579.5,60.2
1579.75,60.2
1580,60.2
1580.25,60.2
1580.5,60.2
1580.75,60.2
1581,60.2
1581.25,60.2
1581.5,60.2
1581.75,60.2
1582,60.2
1582.25,60.2
1582.5,60.2
1582.75,60.2
1583,60.2
1583.25,60.2
1583.5,60.2
1583.75,60.2
1584,60.2
1584.25,60.2
1584.5,60.2
1584.75,60.2
1585,60.2
1585.25,60.2
1585.5,60.2
1585.75,60.2
1586,60.2
1586.25,60.2
1586.5,60.2
1586.75,60.2
1587,60.2
1587.25,60.2
1587.5,60.2
1587.75,60.2
1588,60.2
1588.25,60.2
1588.5,60.2
1588.75,60.2
1589,60.2
1589.25,60.2
1589.5,60.2
1589.75,60.2
1590,60.2
1590.25,60.2
1590.5,60.2
1590.75,60.2
1591,60.2
1591.25,60.2
1591.5,60.2
1591.75,60.2
1592,60.2
1592.25,60.2
1592.5,60.2
1592.75,60.2
1593,60.2
1593.25,60.2010169337837
1593.5,60.206014553533
1593.75,60.2110121732823
1594,60.2160097930315
1594.25,60.2210074127808
1594.5,60.2260050325301
1594.75,60.2310026522794
1595,60.2360002720287
1595.25,60.2409978917779
1595.5,60.2459955115272
1595.75,60.2509931312765
1596,60.2559907510258
1596.25,60.2609883707751
1596.5,60.2659859905243
1596.75,60.2709836102736
1597,60.2759812300229
1597.25,60.2809788497722
1597.5,60.2859764695215
1597.75,60.2909740892707
1598,60.29597170902
1598.25,60.3038773150772
1598.5,60.3238677940743
1598.75,60.3438582730714
1599,60.3638487520685
1599.25,60.3838392310657
1599.5,60.4038297100628
1599.75,60.4238201890599
1600,60.443810668057
1600.25,60.4638011470542
1600.5,60.4837916260513
1600.75,60.5037821050484
1601,60.5237725840455
1601.25,60.5437630630426
1601.5,60.5637535420398
1601.75,60.5837440210369
1602,60.603734500034
1602.25,60.6237249790311
1602.5,60.6437154580282
1602.75,60.6637059370254
1603,60.6836964160225
1603.25,60.6935479337157
1603.5,60.6585645954707
1603.75,60.6235812572258
1604,60.5885979189808
1604.25,60.5536145807358
1604.5,60.5186312424909
1604.75,60.4836479042459
1605,60.4486645660009
1605.25,60.413681227756
1605.5,60.378697889511
1605.75,60.3437145512661
1606,60.3087312130211
1606.25,60.2737478747761
1606.5,60.2387645365312
1606.75,60.2037811982862
1607,60.1687978600413
1607.25,60.1338145217963
1607.5,60.0988311835513
1607.75,60.0638478453064
1608,60.0288645070614
1608.25,59.9877623376329
1608.5,59.917795661143
1608.75,59.8478289846531
1609,59.7778623081631
1609.25,59.7078956316732
1609.5,59.6379289551833
1609.75,59.5679622786934
1610,59.4979956022034
1610.25,59.4280289257135
1610.5,59.3580622492236
1610.75,59.2880955727336
1611,59.2181288962437
1611.25,59.1481622197538
1611.5,59.0781955432639
1611.75,59.008228866774
1612,58.938262190284
1612.25,58.8682955137941
1612.5,58.7983288373042
1612.75,58.7283621608143
1613,58.6583954843244
1613.25,58.6033060549045
1613.5,58.6232965339016
1613.75,58.6432870128987
1614,58.6632774918958
1614.25,58.6832679708929
1614.5,58.7032584498901
1614.75,58.7232489288872
1615,58.7432394078843
1615.25,58.7632298868814
1615.5,58.7832203658785
1615.75,58.8032108448757
1616,58.8232013238728
1616.25,58.8431918028699
1616.5,58.863182281867
1616.75,58.8831727608641
1617,58.9031632398613
1617.25,58.9231537188584
1617.5,58.9431441978555
1617.75,58.9631346768526
1618,58.9831251558497
1618.25,58.5404438600864
1618.5,55.5918482080105
1618.75,52.6432525559361
1619,49.6946569038602
1619.25,46.7460612517844
1619.5,43.7974655997099
1619.75,40.8488699476341
1620,37.9002742955583
1620.25,34.9516786434838
1620.5,32.003082991408
1620.75,29.0544873393322
1621,26.1058916872577
1621.25,23.1572960351818
1621.5,20.2087003831074
1621.75,17.2601047310315
1622,14.3115090789557
1622.25,11.3629134268812
1622.5,8.41431777480541
1622.75,5.46572212272959
1623,2.5171264706551
1623.25,0
1623.5,0
1623.75,0
1624,0
1624.25,0
1624.5,0
1624.75,0
1625,0
1625.25,0
1625.5,0
1625.75,0
1626,0
1626.25,0
1626.5,0
1626.75,0
1627,0
1627.25,0
1627.5,0
1627.75,0
1628,0
1628.25,0
1628.5,0
1628.75,0
1629,0
1629.25,0
1629.5,0
1629.75,0
1630,0
1630.25,0
1630.5,0
1630.75,0
1631,0
1631.25,0
1631.5,0
1631.75,0
1632,0
1632.25,0
1632.5,0
1632.75,0
1633,0
1633.25,0
1633.5,0
1633.75,0
1634,0
1634.25,0
1634.5,0
1634.75,0
1635,0
1635.25,0
1635.5,0
1635.75,0
1636,0
1636.25,0
1636.5,0
1636.75,0
1637,0
1637.25,0
1637.5,0
1637.75,0
1638,0
1638.25,0.349562260558528
1638.5,3.31814839163147
1638.75,6.28673452270307
1639,9.25532065377602
1639.25,12.223906784849
1639.5,15.1924929159206
1639.75,18.1610790469935
1640,21.1296651780651
1640.25,24.0982513091381
1640.5,27.066837440211
1640.75,30.0354235712826
1641,33.0040097023555
1641.25,35.9725958334285
1641.5,38.9411819645001
1641.75,41.909768095573
1642,44.878354226646
1642.25,47.8469403577176
1642.5,50.8155264887905
1642.75,53.7841126198635
1643,56.7526987509351
1643.25,59.4005408836397
1643.5,59.405538503389
1643.75,59.4105361231383
1644,59.4155337428876
1644.25,59.4205313626369
1644.5,59.4255289823861
1644.75,59.4305266021354
1645,59.4355242218847
1645.25,59.440521841634
1645.5,59.4455194613833
1645.75,59.4505170811325
1646,59.4555147008818
1646.25,59.4605123206311
1646.5,59.4655099403804
1646.75,59.4705075601297
1647,59.475505179879
1647.25,59.4805027996282
1647.5,59.4855004193775
1647.75,59.4904980391268
1648,59.4954956588761
1648.25,59.5088790152563
1648.5,59.5988361707433
1648.75,59.6887933262304
1649,59.7787504817174
1649.25,59.8687076372044
1649.5,59.9586647926915
1649.75,60.0486219481786
1650,60.1385791036656
1650.25,60.2285362591526
1650.5,60.3184934146397
1650.75,60.4084505701267
1651,60.4984077256138
1651.25,60.5883648811008
1651.5,60.6783220365879
1651.75,60.7682791920749
1652,60.858236347562
1652.25,60.948193503049
1652.5,61.038150658536
1652.75,61.1281078140231
1653,61.2180649695101
1653.25,61.2844014236166
1653.5,61.1094847323918
1653.75,60.934568041167
1654,60.7596513499422
1654.25,60.5847346587174
1654.5,60.4098179674926
1654.75,60.2349012762677
1655,60.059984585043
1655.25,59.8850678938181
1655.5,59.7101512025933
1655.75,59.5352345113685
1656,59.3603178201437
1656.25,59.1854011289189
1656.5,59.0104844376941
1656.75,58.8355677464693
1657,58.6606510552444
1657.25,58.4857343640197
1657.5,58.3108176727948
1657.75,58.1359009815701
1658,57.9609842903452
1658.25,57.8019903429828
1658.5,57.8269784417292
1658.75,57.8519665404756
1659,57.876954639222
1659.25,57.9019427379684
1659.5,57.9269308367148
1659.75,57.9519189354612
1660,57.9769070342076
1660.25,58.001895132954
1660.5,58.0268832317004
1660.75,58.0518713304468
1661,58.0768594291932
1661.25,58.1018475279396
1661.5,58.126835626686
1661.75,58.1518237254324
1662,58.1768118241788
1662.25,58.2017999229252
1662.5,58.2267880216716
1662.75,58.251776120418
1663,58.2767642191644
1663.25,58.2908879468637
1663.5,58.1609498333825
1663.75,58.0310117199012
1664,57.9010736064198
1664.25,57.7711354929386
1664.5,57.6411973794573
1664.75,57.511259265976
1665,57.3813211524947
1665.25,57.2513830390134
1665.5,57.1214449255321
1665.75,56.9915068120509
1666,56.8615686985696
1666.25,56.7316305850883
1666.5,56.601692471607
1666.75,56.4717543581257
1667,56.3418162446445
1667.25,56.2118781311631
1667.5,56.0819400176818
1667.75,55.9520019042006
1668,55.8220637907193
1668.25,55.7124172012786
1668.5,55.917319610999
1668.75,56.1222220207195
1669,56.3271244304401
1669.25,56.5320268401605
1669.5,56.736929249881
1669.75,56.9418316596015
1670,57.146734069322
1670.25,57.3516364790425
1670.5,57.556538888763
1670.75,57.7614412984834
1671,57.966343708204
1671.25,58.1712461179245
1671.5,58.3761485276449
1671.75,58.5810509373654
1672,58.7859533470859
1672.25,58.9908557568064
1672.5,59.1957581665269
1672.75,59.4006605762473
1673,59.6055629859679
1673.25,59.7811112370502
1673.5,59.4112873756036
1673.75,59.0414635141568
1674,58.67163965271
1674.25,58.3018157912632
1674.5,57.9319919298166
1674.75,57.5621680683699
1675,57.192344206923
1675.25,56.8225203454763
1675.5,56.4526964840297
1675.75,56.0828726225827
1676,55.7130487611361
1676.25,55.3432248996895
1676.5,54.9734010382425
1676.75,54.6035771767959
1677,54.2337533153492
1677.25,53.8639294539023
1677.5,53.4941055924557
1677.75,53.124281731009
1678,52.7544578695621
1678.25,52.3981311631492
1678.5,52.3531525854057
1678.75,52.3081740076622
1679,52.2631954299186
1679.25,52.2182168521751
1679.5,52.1732382744316
1679.75,52.128259696688
1680,52.0832811189445
1680.25,52.038302541201
1680.5,51.9933239634575
1680.75,51.948345385714
1681,51.9033668079705
1681.25,51.8583882302269
1681.5,51.8134096524834
1681.75,51.7684310747399
1682,51.7234524969963
1682.25,51.6784739192528
1682.5,51.6334953415093
1682.75,51.5885167637658
1683,51.5435381860223
1683.25,51.4926379978692
1683.5,51.2627474894021
1683.75,51.0328569809353
1684,50.8029664724685
1684.25,50.5730759640014
1684.5,50.3431854555346
1684.75,50.1132949470678
1685,49.8834044386008
1685.25,49.6535139301339
1685.5,49.4236234216671
1685.75,49.1937329132001
1686,48.9638424047332
1686.25,48.7339518962664
1686.5,48.5040613877994
1686.75,48.2741708793326
1687,48.0442803708657
1687.25,47.8143898623987
1687.5,47.5844993539319
1687.75,47.3546088454651
1688,47.1247183369982
1688.25,46.8987631763879
1688.5,46.8437893591458
1688.75,46.7888155419038
1689,46.7338417246616
1689.25,46.6788679074196
1689.5,46.6238940901775
1689.75,46.5689202729354
1690,46.5139464556933
1690.25,46.4589726384513
1690.5,46.4039988212091
1690.75,46.3490250039671
1691,46.294051186725
1691.25,46.2390773694829
1691.5,46.1841035522408
1691.75,46.1291297349988
1692,46.0741559177566
1692.25,46.0191821005146
1692.5,45.9642082832725
1692.75,45.9092344660304
1693,45.8542606487883
1693.25,45.8005835014621
1693.5,45.8455620792057
1693.75,45.8905406569492
1694,45.9355192346927
1694.25,45.9804978124363
1694.5,46.0254763901798
1694.75,46.0704549679233
1695,46.1154335456668
1695.25,46.1604121234103
1695.5,46.2053907011539
1695.75,46.2503692788974
1696,46.2953478566409
1696.25,46.3403264343844
1696.5,46.385305012128
1696.75,46.4302835898715
1697,46.475262167615
1697.25,46.5202407453585
1697.5,46.565219323102
1697.75,46.6101979008456
1698,46.6551764785891
1698.25,46.7006202253305
1698.5,46.8805345363045
1698.75,47.0604488472785
1699,47.2403631582527
1699.25,47.4202774692268
1699.5,47.6001917802008
1699.75,47.780106091175
1700,47.960020402149
1700.25,48.1399347131231
1700.5,48.3198490240973
1700.75,48.4997633350713
1701,48.6796776460453
1701.25,48.8595919570195
1701.5,49.0395062679936
1701.75,49.2194205789676
1702,49.3993348899418
1702.25,49.5792492009159
1702.5,49.7591635118899
1702.75,49.9390778228641
1703,50.1189921338381
1703.25,50.2989064448122
1703.5,50.6328052954913
1703.75,50.967645818693
1704,51.3024863418946
1704.25,51.6373268650966
1704.5,51.9721673882983
1704.75,52.3070079115
1705,52.641848434702
1705.25,52.9766889579036
1705.5,53.3115294811053
1705.75,53.6463700043073
1706,53.981210527509
1706.25,54.3160510507107
1706.5,54.6508915739123
1706.75,54.9857320971143
1707,55.320572620316
1707.25,55.6554131435177
1707.5,55.9902536667197
1707.75,56.3250941899213
1708,56.659934713123
1708.25,56.994775236325
1708.5,56.8524108539433
1708.75,56.7024822614649
1709,56.5525536689864
1709.25,56.402625076508
1709.5,56.2526964840297
1709.75,56.1027678915512
1710,55.9528392990728
1710.25,55.8029107065945
1710.5,55.652982114116
1710.75,55.5030535216376
1711,55.3531249291592
1711.25,55.2031963366807
1711.5,55.0532677442024
1711.75,54.903339151724
1712,54.7534105592455
1712.25,54.6034819667671
1712.5,54.4535533742888
1712.75,54.3036247818103
1713,54.1536961893319
1713.25,54.0037675968536
1713.5,53.6979339423751
1713.75,53.3880815179198
1714,53.0782290934645
1714.25,52.768376669009
1714.5,52.4585242445537
1714.75,52.1486718200984
1715,51.8388193956431
1715.25,51.5289669711875
1715.5,51.2191145467323
1715.75,50.909262122277
1716,50.5994096978214
1716.25,50.2895572733661
1716.5,49.9797048489108
1716.75,49.6698524244553
1717,49.36
1717.25,49.0501475755447
1717.5,48.7402951510891
1717.75,48.4304427266338
1718,48.1205903021786
1718.25,47.810737877723
1718.5,47.6070228730759
1718.75,47.4071180831048
1719,47.2072132931335
1719.25,47.0073085031623
1719.5,46.8074037131912
1719.75,46.6074989232198
1720,46.4075941332487
1720.25,46.2076893432775
1720.5,46.0077845533062
1720.75,45.807879763335
1721,45.6079749733639
1721.25,45.4080701833926
1721.5,45.2081653934214
1721.75,45.0082606034503
1722,44.8083558134789
1722.25,44.6084510235078
1722.5,44.4085462335366
1722.75,44.2086414435653
1723,44.0087366535941
1723.25,43.808831863623
1723.5,43.8429914084284
1723.75,43.8879699861719
1724,43.9329485639154
1724.25,43.9779271416589
1724.5,44.0229057194025
1724.75,44.067884297146
1725,44.1128628748895
1725.25,44.157841452633
1725.5,44.2028200303765
1725.75,44.24779860812
1726,44.2927771858636
1726.25,44.3377557636071
1726.5,44.3827343413506
1726.75,44.4277129190942
1727,44.4726914968377
1727.25,44.5176700745812
1727.5,44.5626486523247
1727.75,44.6076272300682
1728,44.6526058078117
1728.25,44.6975843855553
1728.5,44.9033563802054
1728.75,45.1182540294244
1729,45.3331516786436
1729.25,45.5480493278626
1729.5,45.7629469770816
1729.75,45.9778446263007
1730,46.1927422755197
1730.25,46.4076399247387
1730.5,46.6225375739579
1730.75,46.8374352231769
1731,47.0523328723959
1731.25,47.2672305216151
1731.5,47.482128170834
1731.75,47.697025820053
1732,47.9119234692722
1732.25,48.1268211184912
1732.5,48.3417187677102
1732.75,48.5566164169294
1733,48.7715140661484
1733.25,48.9864117153673
1733.5,49.2293990433658
1733.75,49.4742824110807
1734,49.7191657787954
1734.25,49.96404914651
1734.5,50.2089325142249
1734.75,50.4538158819396
1735,50.6986992496542
1735.25,50.9435826173691
1735.5,51.1884659850838
1735.75,51.4333493527984
1736,51.6782327205133
1736.25,51.923116088228
1736.5,52.1679994559426
1736.75,52.4128828236575
1737,52.6577661913722
1737.25,52.9026495590868
1737.5,53.1475329268017
1737.75,53.3924162945164
1738,53.637299662231
1738.25,53.8821830299459
1738.5,53.7702477727654
1738.75,53.6303144197856
1739,53.4903810668056
1739.25,53.3504477138258
1739.5,53.210514360846
1739.75,53.0705810078661
1740,52.9306476548863
1740.25,52.7907143019065
1740.5,52.6507809489265
1740.75,52.5108475959467
1741,52.3709142429669
1741.25,52.230980889987
1741.5,52.0910475370072
1741.75,51.9511141840274
1742,51.8111808310475
1742.25,51.6712474780677
1742.5,51.5313141250878
1742.75,51.391380772108
1743,51.2514474191281
1743.25,51.1115140661483
1743.5,51.0495495658876
1743.75,50.9945757486455
1744,50.9396019314034
1744.25,50.8846281141614
1744.5,50.8296542969193
1744.75,50.7746804796772
1745,50.7197066624351
1745.25,50.664732845193
1745.5,50.6097590279509
1745.75,50.5547852107089
1746,50.4998113934668
1746.25,50.4448375762247
1746.5,50.3898637589826
1746.75,50.3348899417405
1747,50.2799161244984
1747.25,50.2249423072564
1747.5,50.1699684900143
1747.75,50.1149946727722
1748,50.0600208555301
1748.25,50.005047038288
1748.5,49.8774524516582
1748.75,49.7425167184277
1749,49.607580985197
1749.25,49.4726452519665
1749.5,49.337709518736
1749.75,49.2027737855053
1750,49.0678380522748
1750.25,48.9329023190443
1750.5,48.7979665858136
1750.75,48.6630308525831
1751,48.5280951193526
1751.25,48.3931593861219
1751.5,48.2582236528914
1751.75,48.1232879196609
1752,47.9883521864303
1752.25,47.8534164531997
1752.5,47.7184807199692
1752.75,47.5835449867386
1753,47.448609253508
1753.25,47.3136735202775
1753.5,47.3853326683744
1753.75,47.4802874436108
1754,47.5752422188471
1754.25,47.6701969940834
1754.5,47.7651517693197
1754.75,47.860106544556
1755,47.9550613197923
1755.25,48.0500160950287
1755.5,48.144970870265
1755.75,48.2399256455013
1756,48.3348804207377
1756.25,48.429835195974
1756.5,48.5247899712103
1756.75,48.6197447464467
1757,48.714699521683
1757.25,48.8096542969193
1757.5,48.9046090721556
1757.75,48.9995638473919
1758,49.0945186226282
1758.25,49.1894733978646
1758.5,48.9911513612767
1758.75,48.7562632330606
1759,48.5213751048443
1759.25,48.2864869766282
1759.5,48.0515988484121
1759.75,47.8167107201957
1760,47.5818225919796
1760.25,47.3469344637635
1760.5,47.1120463355472
1760.75,46.8771582073311
1761,46.642270079115
1761.25,46.4073819508989
1761.5,46.1724938226826
1761.75,45.9376056944665
1762,45.7027175662504
1762.25,45.4678294380341
1762.5,45.232941309818
1762.75,44.9980531816019
1763,44.7631650533855
1763.25,44.5282769251694
1763.5,44.5
1763.75,44.5
1764,44.5
1764.25,44.5
1764.5,44.5
1764.75,44.5
1765,44.5
1765.25,44.5
1765.5,44.5
1765.75,44.5
1766,44.5
1766.25,44.5
1766.5,44.5
1766.75,44.5
1767,44.5
1767.25,44.5
1767.5,44.5
1767.75,44.5
1768,44.5
1768.25,44.5
1768.5,44.556528914379
1768.75,44.6214979711196
1769,44.6864670278603
1769.25,44.7514360846009
1769.5,44.8164051413415
1769.75,44.8813741980822
1770,44.9463432548229
1770.25,45.0113123115635
1770.5,45.0762813683041
1770.75,45.1412504250448
1771,45.2062194817854
1771.25,45.271188538526
1771.5,45.3361575952667
1771.75,45.4011266520073
1772,45.466095708748
1772.25,45.5310647654887
1772.5,45.5960338222293
1772.75,45.6610028789699
1773,45.7259719357106
1773.25,45.7909409924512
1773.5,45.7354884047787
1773.75,45.6605241085394
1774,45.5855598123002
1774.25,45.510595516061
1774.5,45.4356312198218
1774.75,45.3606669235826
1775,45.2857026273434
1775.25,45.2107383311042
1775.5,45.135774034865
1775.75,45.0608097386258
1776,44.9858454423866
1776.25,44.9108811461474
1776.5,44.8359168499082
1776.75,44.7609525536689
1777,44.6859882574298
1777.25,44.6110239611906
1777.5,44.5360596649513
1777.75,44.4610953687122
1778,44.386131072473
1778.25,44.3111667762337
1778.5,44.3340253440029
1778.75,44.3740063019971
1779,44.4139872599914
1779.25,44.4539682179856
1779.5,44.4939491759799
1779.75,44.5339301339741
1780,44.5739110919684
1780.25,44.6138920499626
1780.5,44.6538730079568
1780.75,44.6938539659511
1781,44.7338349239453
1781.25,44.7738158819396
1781.5,44.8137968399338
1781.75,44.8537777979281
1782,44.8937587559223
1782.25,44.9337397139166
1782.5,44.9737206719108
1782.75,45.013701629905
1783,45.0536825878993
1783.25,45.0936635458935
1783.5,45.0873833110421
1783.75,45.0723904517942
1784,45.0573975925464
1784.25,45.0424047332986
1784.5,45.0274118740507
1784.75,45.0124190148029
1785,44.9974261555551
1785.25,44.9824332963072
1785.5,44.9674404370594
1785.75,44.9524475778115
1786,44.9374547185637
1786.25,44.9224618593158
1786.5,44.907469000068
1786.75,44.8924761408202
1787,44.8774832815723
1787.25,44.8624904223245
1787.5,44.8474975630766
1787.75,44.8325047038288
1788,44.817511844581
1788.25,44.8025189853331
1788.5,44.8956330333462
1788.75,45.0105782875796
1789,45.125523541813
1789.25,45.2404687960465
1789.5,45.35541405028
1789.75,45.4703593045134
1790,45.5853045587469
1790.25,45.7002498129803
1790.5,45.8151950672137
1790.75,45.9301403214472
1791,46.0450855756806
1791.25,46.1600308299141
1791.5,46.2749760841476
1791.75,46.389921338381
1792,46.5048665926144
1792.25,46.6198118468479
1792.5,46.7347571010813
1792.75,46.8497023553147
1793,46.9646476095483
1793.25,47.0795928637817
1793.5,47.0465654115567
1793.75,46.981596354816
1794,46.9166272980754
1794.25,46.8516582413348
1794.5,46.7866891845941
1794.75,46.7217201278535
1795,46.6567510711128
1795.25,46.5917820143722
1795.5,46.5268129576315
1795.75,46.4618439008909
1796,46.3968748441502
1796.25,46.3319057874096
1796.5,46.266936730669
1796.75,46.2019676739283
1797,46.1369986171877
1797.25,46.072029560447
1797.5,46.0070605037064
1797.75,45.9420914469657
1798,45.8771223902251
1798.25,45.8121533334845
1798.5,45.8
1798.75,45.8
1799,45.8
1799.25,45.8
1799.5,45.8
1799.75,45.8
1800,45.8
1800.25,45.8
1800.5,45.8
1800.75,45.8
1801,45.8
1801.25,45.8
1801.5,45.8
1801.75,45.8
1802,45.8
1802.25,45.8
1802.5,45.8
1802.75,45.8
1803,45.8
1803.25,45.8
1803.5,45.7678788565729
1803.75,45.7278978985786
1804,45.6879169405844
1804.25,45.6479359825902
1804.5,45.6079550245959
1804.75,45.5679740666017
1805,45.5279931086074
1805.25,45.4880121506132
1805.5,45.4480311926189
1805.75,45.4080502346247
1806,45.3680692766305
1806.25,45.3280883186362
1806.5,45.288107360642
1806.75,45.2481264026478
1807,45.2081454446535
1807.25,45.1681644866593
1807.5,45.128183528665
1807.75,45.0882025706708
1808,45.0482216126765
1808.25,45.0082406546823
1808.5,44.972227234602
1808.75,44.9372438963571
1809,44.9022605581121
1809.25,44.8672772198671
1809.5,44.8322938816222
1809.75,44.7973105433772
1810,44.7623272051323
1810.25,44.7273438668873
1810.5,44.6923605286424
1810.75,44.6573771903974
1811,44.6223938521524
1811.25,44.5874105139075
1811.5,44.5524271756625
1811.75,44.5174438374175
1812,44.4824604991726
1812.25,44.4474771609276
1812.5,44.4124938226826
1812.75,44.3775104844377
1813,44.3425271461927
1813.25,44.3075438079478
1813.5,44.2843202684016
1813.75,44.2643297894045
1814,44.2443393104074
1814.25,44.2243488314102
1814.5,44.2043583524131
1814.75,44.184367873416
1815,44.1643773944189
1815.25,44.1443869154217
1815.5,44.1243964364246
1815.75,44.1044059574275
1816,44.0844154784304
1816.25,44.0644249994333
1816.5,44.0444345204361
1816.75,44.024444041439
1817,44.0044535624419
1817.25,43.9844630834448
1817.5,43.9644726044477
1817.75,43.9444821254505
1818,43.9244916464534
1818.25,43.9045011674563
1818.5,43.8961276721148
1818.75,43.8911300523655
1819,43.8861324326162
1819.25,43.881134812867
1819.5,43.8761371931177
1819.75,43.8711395733684
1820,43.8661419536191
1820.25,43.8611443338698
1820.5,43.8561467141206
1820.75,43.8511490943713
1821,43.846151474622
1821.25,43.8411538548727
1821.5,43.8361562351234
1821.75,43.8311586153742
1822,43.8261609956249
1822.25,43.8211633758756
1822.5,43.8161657561263
1822.75,43.811168136377
1823,43.8061705166277
1823.25,43.8011728968785
1823.5,43.8
1823.75,43.8
1824,43.8
1824.25,43.8
1824.5,43.8
1824.75,43.8
1825,43.8
1825.25,43.8
1825.5,43.8
1825.75,43.8
1826,43.8
1826.25,43.8
1826.5,43.8
1826.75,43.8
1827,43.8
1827.25,43.8
1827.5,43.8
1827.75,43.8
1828,43.8
1828.25,43.8
1828.5,43.8151084714257
1828.75,43.8350989504228
1829,43.8550894294199
1829.25,43.875079908417
1829.5,43.8950703874141
1829.75,43.9150608664113
1830,43.9350513454084
1830.25,43.9550418244055
1830.5,43.9750323034026
1830.75,43.9950227823998
1831,44.0150132613969
1831.25,44.035003740394
1831.5,44.0549942193911
1831.75,44.0749846983882
1832,44.0949751773854
1832.25,44.1149656563825
1832.5,44.1349561353796
1832.75,44.1549466143767
1833,44.1749370933738
1833.25,44.194927572371
1833.5,44.207459025684
1833.75,44.2174542651826
1834,44.2274495046812
1834.25,44.2374447441797
1834.5,44.2474399836783
1834.75,44.2574352231768
1835,44.2674304626754
1835.25,44.277425702174
1835.5,44.2874209416725
1835.75,44.2974161811711
1836,44.3074114206696
1836.25,44.3174066601682
1836.5,44.3274018996668
1836.75,44.3373971391653
1837,44.3473923786639
1837.25,44.3573876181624
1837.5,44.367382857661
1837.75,44.3773780971596
1838,44.3873733366581
1838.25,44.3973685761567
1838.5,44.4220914469658
1838.75,44.4520771654614
1839,44.4820628839571
1839.25,44.5120486024528
1839.5,44.5420343209485
1839.75,44.5720200394441
1840,44.6020057579399
1840.25,44.6319914764355
1840.5,44.6619771949312
1840.75,44.6919629134269
1841,44.7219486319226
1841.25,44.7519343504182
1841.5,44.7819200689139
1841.75,44.8119057874096
1842,44.8418915059053
1842.25,44.871877224401
1842.5,44.9018629428967
1842.75,44.9318486613923
1843,44.961834379888
1843.25,44.9918200983837
1843.5,45.0327087253191
1843.75,45.0776873030626
1844,45.1226658808061
1844.25,45.1676444585496
1844.5,45.2126230362931
1844.75,45.2576016140367
1845,45.3025801917802
1845.25,45.3475587695237
1845.5,45.3925373472673
1845.75,45.4375159250108
1846,45.4824945027543
1846.25,45.5274730804978
1846.5,45.5724516582413
1846.75,45.6174302359848
1847,45.6624088137284
1847.25,45.7073873914719
1847.5,45.7523659692154
1847.75,45.797344546959
1848,45.8423231247025
1848.25,45.887301702446
1848.5,44.2537057103338
1848.75,41.9597982454148
1849,39.6658907804958
1849.25,37.3719833155748
1849.5,35.0780758506558
1849.75,32.7841683857369
1850,30.4902609208158
1850.25,28.1963534558969
1850.5,25.9024459909779
1850.75,23.6085385260568
1851,21.3146310611379
1851.25,19.0207235962189
1851.5,16.7268161312979
1851.75,14.4329086663789
1852,12.13900120146
1852.25,9.84509373654099
1852.5,7.55118627161994
1852.75,5.25727880670098
1853,2.96337134178202
1853.25,0.669463876860968
1853.5,0
1853.75,0
1854,0
1854.25,0
1854.5,0
1854.75,0
1855,0
1855.25,0
1855.5,0
1855.75,0
1856,0
1856.25,0
1856.5,0
1856.75,0
1857,0
1857.25,0
1857.5,0
1857.75,0
1858,0
1858.25,0
1858.5,0
1858.75,0
1859,0
1859.25,0
1859.5,0
1859.75,0
1860,0
1860.25,0
1860.5,0
1860.75,0
1861,0
1861.25,0
1861.5,0
1861.75,0
1862,0
1862.25,0
1862.5,0
1862.75,0
1863,0
1863.25,0
1863.5,0
1863.75,0
1864,0
1864.25,0
1864.5,0
1864.75,0
1865,0
1865.25,0
1865.5,0
1865.75,0
1866,0
1866.25,0
1866.5,0
1866.75,0
1867,0
1867.25,0
1867.5,0
1867.75,0
1868,0
1868.25,0
1868.5,0
1868.75,0
1869,0
1869.25,0
1869.5,0
1869.75,0
1870,0
1870.25,0
1870.5,0
1870.75,0
1871,0
1871.25,0
1871.5,0
1871.75,0
1872,0
1872.25,0
1872.5,0
1872.75,0
1873,0
1873.25,0
1873.5,0
1873.75,0
1874,0
1874.25,0
1874.5,0
1874.75,0
1875,0
1875.25,0
1875.5,0
1875.75,0
1876,0
1876.25,0
1876.5,0
1876.75,0
1877,0
1877.25,0
1877.5,0
1877.75,0
1878,0
1878.25,0
1878.5,0
1878.75,0
1879,0
1879.25,0
1879.5,0
1879.75,0
1880,0
1880.25,0
1880.5,0
1880.75,0
1881,0
1881.25,0
1881.5,0
1881.75,0
1882,0
1882.25,0
1882.5,0
1882.75,0
1883,0
1883.25,0
1883.5,1.26885045224785
1883.75,3.21792215446658
1884,5.16699385668708
1884.25,7.1160655589058
1884.5,9.06513726112453
1884.75,11.014208963345
1885,12.9632806655638
1885.25,14.9123523677825
1885.5,16.861424070003
1885.75,18.8104957722217
1886,20.7595674744404
1886.25,22.7086391766609
1886.5,24.6577108788797
1886.75,26.6067825810984
1887,28.5558542833189
1887.25,30.5049259855376
1887.5,32.4539976877563
1887.75,34.4030693899768
1888,36.3521410921956
1888.25,38.3012127944143
1888.5,38.9935882846326
1888.75,38.9835930451341
1889,38.9735978056355
1889.25,38.963602566137
1889.5,38.9536073266384
1889.75,38.9436120871398
1890,38.9336168476413
1890.25,38.9236216081427
1890.5,38.9136263686442
1890.75,38.9036311291456
1891,38.893635889647
1891.25,38.8836406501485
1891.5,38.8736454106499
1891.75,38.8636501711514
1892,38.8536549316528
1892.25,38.8436596921542
1892.5,38.8336644526557
1892.75,38.8236692131571
1893,38.8136739736586
1893.25,38.80367873416
1893.5,38.7810504839843
1893.75,38.7510647654886
1894,38.7210790469929
1894.25,38.6910933284973
1894.5,38.6611076100016
1894.75,38.6311218915059
1895,38.6011361730102
1895.25,38.5711504545145
1895.5,38.5411647360188
1895.75,38.5111790175232
1896,38.4811932990275
1896.25,38.4512075805318
1896.5,38.4212218620361
1896.75,38.3912361435405
1897,38.3612504250448
1897.25,38.3312647065491
1897.5,38.3012789880534
1897.75,38.2712932695577
1898,38.241307551062
1898.25,38.2113218325664
1898.5,38.1844467617256
1898.75,38.1594586629792
1899,38.1344705642328
1899.25,38.1094824654864
1899.5,38.08449436674
1899.75,38.0595062679936
1900,38.0345181692472
1900.25,38.0095300705008
1900.5,37.9845419717544
1900.75,37.959553873008
1901,37.9345657742616
1901.25,37.9095776755152
1901.5,37.8845895767688
1901.75,37.8596014780223
1902,37.834613379276
1902.25,37.8096252805296
1902.5,37.7846371817831
1902.75,37.7596490830367
1903,37.7346609842904
1903.25,37.7096728855439
1903.5,37.6693695735951
1903.75,37.6193933761023
1904,37.5694171786095
1904.25,37.5194409811167
1904.5,37.4694647836239
1904.75,37.4194885861311
1905,37.3695123886383
1905.25,37.3195361911455
1905.5,37.2695599936526
1905.75,37.2195837961599
1906,37.1696075986671
1906.25,37.1196314011742
1906.5,37.0696552036814
1906.75,37.0196790061887
1907,36.9697028086959
1907.25,36.919726611203
1907.5,36.8697504137103
1907.75,36.8197742162175
1908,36.7697980187246
1908.25,36.7198218212318
1908.5,36.7482470020175
1908.75,36.8282089180061
1909,36.9081708339945
1909.25,36.988132749983
1909.5,37.0680946659715
1909.75,37.14805658196
1910,37.2280184979484
1910.25,37.307980413937
1910.5,37.3879423299254
1910.75,37.4679042459139
1911,37.5478661619024
1911.25,37.6278280778909
1911.5,37.7077899938793
1911.75,37.7877519098679
1912,37.8677138258563
1912.25,37.9476757418448
1912.5,38.0276376578333
1912.75,38.1075995738218
1913,38.1875614898103
1913.25,38.2675234057988
1913.5,38.3
1913.75,38.3
1914,38.3
1914.25,38.3
1914.5,38.3
1914.75,38.3
1915,38.3
1915.25,38.3
1915.5,38.3
1915.75,38.3
1916,38.3
1916.25,38.3
1916.5,38.3
1916.75,38.3
1917,38.3
1917.25,38.3
1917.5,38.3
1917.75,38.3
1918,38.3
1918.25,38.3
1918.5,38.2532763584431
1918.75,38.1733144424546
1919,38.0933525264661
1919.25,38.0133906104777
1919.5,37.9334286944891
1919.75,37.8534667785007
1920,37.7735048625122
1920.25,37.6935429465237
1920.5,37.6135810305352
1920.75,37.5336191145467
1921,37.4536571985582
1921.25,37.3736952825698
1921.5,37.2937333665813
1921.75,37.2137714505928
1922,37.1338095346043
1922.25,37.0538476186158
1922.5,36.9738857026273
1922.75,36.8939237866388
1923,36.8139618706504
1923.25,36.7339999546619
1923.5,36.7
1923.75,36.7
1924,36.7
1924.25,36.7
1924.5,36.7
1924.75,36.7
1925,36.7
1925.25,36.7
1925.5,36.7
1925.75,36.7
1926,36.7
1926.25,36.7
1926.5,36.7
1926.75,36.7
1927,36.7
1927.25,36.7
1927.5,36.7
1927.75,36.7
1928,36.7
1928.25,36.7
1928.5,36.6604497540408
1928.75,36.5904830775508
1929,36.5205164010609
1929.25,36.450549724571
1929.5,36.380583048081
1929.75,36.3106163715911
1930,36.2406496951012
1930.25,36.1706830186113
1930.5,36.1007163421214
1930.75,36.0307496656315
1931,35.9607829891415
1931.25,35.8908163126516
1931.5,35.8208496361617
1931.75,35.7508829596717
1932,35.6809162831818
1932.25,35.6109496066919
1932.5,35.5409829302019
1932.75,35.471016253712
1933,35.4010495772221
1933.25,35.3310829007322
1933.5,35.3361063632036
1933.75,35.4010754199442
1934,35.4660444766849
1934.25,35.5310135334255
1934.5,35.5959825901662
1934.75,35.6609516469068
1935,35.7259207036475
1935.25,35.7908897603881
1935.5,35.8558588171287
1935.75,35.9208278738694
1936,35.98579693061
1936.25,36.0507659873507
1936.5,36.1157350440913
1936.75,36.180704100832
1937,36.2456731575726
1937.25,36.3106422143133
1937.5,36.3756112710539
1937.75,36.4405803277945
1938,36.5055493845352
1938.25,36.5705184412758
1938.5,36.5781615396822
1938.75,36.5381805816879
1939,36.4981996236937
1939.25,36.4582186656995
1939.5,36.4182377077052
1939.75,36.378256749711
1940,36.3382757917167
1940.25,36.2982948337225
1940.5,36.2583138757282
1940.75,36.218332917734
1941,36.1783519597397
1941.25,36.1383710017455
1941.5,36.0983900437513
1941.75,36.058409085757
1942,36.0184281277628
1942.25,35.9784471697686
1942.5,35.9384662117743
1942.75,35.8984852537801
1943,35.8585042957858
1943.25,35.8185233377916
1943.5,35.7731779747467
1943.75,35.7232017772539
1944,35.6732255797611
1944.25,35.6232493822682
1944.5,35.5732731847755
1944.75,35.5232969872827
1945,35.4733207897898
1945.25,35.423344592297
1945.5,35.3733683948043
1945.75,35.3233921973114
1946,35.2734159998186
1946.25,35.2234398023259
1946.5,35.173463604833
1946.75,35.1234874073402
1947,35.0735112098474
1947.25,35.0235350123546
1947.5,34.9735588148618
1947.75,34.923582617369
1948,34.8736064198762
1948.25,34.8236302223834
1948.5,34.8526919502187
1948.75,34.9526443452044
1949,35.05259674019
1949.25,35.1525491351756
1949.5,35.2525015301612
1949.75,35.3524539251468
1950,35.4524063201324
1950.25,35.552358715118
1950.5,35.6523111101036
1950.75,35.7522635050892
1951,35.8522159000749
1951.25,35.9521682950604
1951.5,36.052120690046
1951.75,36.1520730850317
1952,36.2520254800173
1952.25,36.3519778750028
1952.5,36.4519302699885
1952.75,36.5518826649741
1953,36.6518350599596
1953.25,36.7517874549452
1953.5,36.8724357899032
1953.75,37.0123691428831
1954,37.1523024958629
1954.25,37.2922358488428
1954.5,37.4321692018226
1954.75,37.5721025548024
1955,37.7120359077823
1955.25,37.8519692607621
1955.5,37.9919026137419
1955.75,38.1318359667219
1956,38.2717693197017
1956.25,38.4117026726815
1956.5,38.5516360256614
1956.75,38.6915693786412
1957,38.831502731621
1957.25,38.971436084601
1957.5,39.1113694375808
1957.75,39.2513027905606
1958,39.3912361435405
1958.25,39.5311694965203
1958.5,39.6939573368395
1958.75,39.8788692675629
1959,40.0637811982863
1959.25,40.2486931290096
1959.5,40.4336050597331
1959.75,40.6185169904564
1960,40.8034289211797
1960.25,40.9883408519032
1960.5,41.1732527826265
1960.75,41.3581647133498
1961,41.5430766440733
1961.25,41.7279885747966
1961.5,41.9129005055199
1961.75,42.0978124362434
1962,42.2827243669667
1962.25,42.46763629769
1962.5,42.6525482284133
1962.75,42.8374601591368
1963,43.0223720898601
1963.25,43.2072840205835
1963.5,43.2551479155804
1963.75,43.1651907600934
1964,43.0752336046064
1964.25,42.9852764491193
1964.5,42.8953192936323
1964.75,42.8053621381452
1965,42.7154049826581
1965.25,42.6254478271711
1965.5,42.5354906716841
1965.75,42.445533516197
1966,42.35557636071
1966.25,42.265619205223
1966.5,42.1756620497359
1966.75,42.0857048942488
1967,41.9957477387618
1967.25,41.9057905832747
1967.5,41.8158334277877
1967.75,41.7258762723007
1968,41.6359191168136
1968.25,41.5459619613266
1968.5,41.4731140480131
1968.75,41.4181402307709
1969,41.3631664135289
1969.25,41.3081925962868
1969.5,41.2532187790447
1969.75,41.1982449618026
1970,41.1432711445606
1970.25,41.0882973273184
1970.5,41.0333235100764
1970.75,40.9783496928343
1971,40.9233758755922
1971.25,40.8684020583501
1971.5,40.8134282411081
1971.75,40.758454423866
1972,40.7034806066239
1972.25,40.6485067893818
1972.5,40.5935329721397
1972.75,40.5385591548976
1973,40.4835853376556
1973.25,40.4286115204135
1973.5,40.3640514134155
1973.75,40.2890871171763
1974,40.2141228209372
1974.25,40.1391585246979
1974.5,40.0641942284587
1974.75,39.9892299322195
1975,39.9142656359803
1975.25,39.8393013397411
1975.5,39.7643370435019
1975.75,39.6893727472627
1976,39.6144084510235
1976.25,39.5394441547843
1976.5,39.4644798585451
1976.75,39.3895155623059
1977,39.3145512660667
1977.25,39.2395869698275
1977.5,39.1646226735883
1977.75,39.0896583773491
1978,39.0146940811098
1978.25,38.9397297848707
1978.5,38.9023489674246
1978.75,38.9073465871738
1979,38.9123442069231
1979.25,38.9173418266724
1979.5,38.9223394464217
1979.75,38.927337066171
1980,38.9323346859202
1980.25,38.9373323056695
1980.5,38.9423299254188
1980.75,38.9473275451681
1981,38.9523251649174
1981.25,38.9573227846667
1981.5,38.9623204044159
1981.75,38.9673180241652
1982,38.9723156439145
1982.25,38.9773132636638
1982.5,38.982310883413
1982.75,38.9873085031623
1983,38.9923061229116
1983.25,38.9973037426609
1983.5,38.9631782014372
1983.75,38.8832162854487
1984,38.8032543694603
1984.25,38.7232924534717
1984.5,38.6433305374833
1984.75,38.5633686214948
1985,38.4834067055063
1985.25,38.4034447895178
1985.5,38.3234828735294
1985.75,38.2435209575408
1986,38.1635590415524
1986.25,38.0835971255639
1986.5,38.0036352095754
1986.75,37.9236732935869
1987,37.8437113775984
1987.25,37.7637494616099
1987.5,37.6837875456214
1987.75,37.603825629633
1988,37.5238637136445
1988.25,37.443901797656
1988.5,37.4135225443747
1988.75,37.4435082628704
1989,37.473493981366
1989.25,37.5034796998617
1989.5,37.5334654183574
1989.75,37.5634511368531
1990,37.5934368553488
1990.25,37.6234225738444
1990.5,37.6534082923401
1990.75,37.6833940108358
1991,37.7133797293315
1991.25,37.7433654478272
1991.5,37.7733511663229
1991.75,37.8033368848185
1992,37.8333226033142
1992.25,37.8633083218099
1992.5,37.8932940403056
1992.75,37.9232797588013
1993,37.9532654772969
1993.25,37.9832511957926
1993.5,38.0308861333394
1993.75,38.1008528098293
1994,38.1708194863192
1994.25,38.2407861628092
1994.5,38.3107528392991
1994.75,38.380719515789
1995,38.450686192279
1995.25,38.5206528687689
1995.5,38.5906195452588
1995.75,38.6605862217487
1996,38.7305528982386
1996.25,38.8005195747285
1996.5,38.8704862512185
1996.75,38.9404529277084
1997,39.0104196041983
1997.25,39.0803862806883
1997.5,39.1503529571782
1997.75,39.2203196336681
1998,39.290286310158
1998.25,39.3602529866479
1998.5,39.3611461473942
1998.75,39.2711889919072
1999,39.1812318364201
1999.25,39.0912746809331
1999.5,39.001317525446
1999.75,38.9113603699589
2000,38.8214032144719
2000.25,38.7314460589849
2000.5,38.6414889034978
2000.75,38.5515317480108
2001,38.4615745925238
2001.25,38.3716174370367
2001.5,38.2816602815496
2001.75,38.1917031260626
2002,38.1017459705755
2002.25,38.0117888150885
2002.5,37.9218316596015
2002.75,37.8318745041144
2003,37.7419173486274
2003.25,37.6519601931404
2003.5,37.610554711763
2003.75,37.6355428105094
2004,37.6605309092558
2004.25,37.6855190080022
2004.5,37.7105071067486
2004.75,37.735495205495
2005,37.7604833042414
2005.25,37.7854714029878
2005.5,37.8104595017342
2005.75,37.8354476004806
2006,37.860435699227
2006.25,37.8854237979734
2006.5,37.9104118967198
2006.75,37.9353999954662
2007,37.9603880942126
2007.25,37.985376192959
2007.5,38.0103642917054
2007.75,38.0353523904518
2008,38.0603404891982
2008.25,38.0853285879446
2008.5,38.0442898918686
2008.75,37.9093541586381
2009,37.7744184254074
2009.25,37.6394826921769
2009.5,37.5045469589464
2009.75,37.3696112257157
2010,37.2346754924852
2010.25,37.0997397592547
2010.5,36.964804026024
2010.75,36.8298682927935
2011,36.694932559563
2011.25,36.5599968263323
2011.5,36.4250610931018
2011.75,36.2901253598713
2012,36.1551896266406
2012.25,36.0202538934101
2012.5,35.8853181601796
2012.75,35.7503824269489
2013,35.6154466937184
2013.25,35.4805109604879
2013.5,35.3596853535239
2013.75,35.2597329585383
2014,35.1597805635527
2014.25,35.059828168567
2014.5,34.9598757735815
2014.75,34.8599233785959
2015,34.7599709836102
2015.25,34.6600185886246
2015.5,34.5600661936391
2015.75,34.4601137986534
2016,34.3601614036678
2016.25,34.2602090086822
2016.5,34.1602566136966
2016.75,34.060304218711
2017,33.9603518237254
2017.25,33.8603994287399
2017.5,33.7604470337542
2017.75,33.6604946387686
2018,33.560542243783
2018.25,33.4605898487974
2018.5,33.3960637453812
2018.75,33.3860685058826
2019,33.3760732663841
2019.25,33.3660780268855
2019.5,33.3560827873869
2019.75,33.3460875478884
2020,33.3360923083898
2020.25,33.3260970688913
2020.5,33.3161018293927
2020.75,33.3061065898941
2021,33.2961113503956
2021.25,33.286116110897
2021.5,33.2761208713985
2021.75,33.2661256318999
2022,33.2561303924013
2022.25,33.2461351529028
2022.5,33.2361399134042
2022.75,33.2261446739057
2023,33.2161494344071
2023.25,33.2061541949085
2023.5,33.1846358216399
2023.75,33.1446548636456
2024,33.1046739056514
2024.25,33.0646929476571
2024.5,33.0247119896629
2024.75,32.9847310316687
2025,32.9447500736744
2025.25,32.9047691156802
2025.5,32.8647881576859
2025.75,32.8248071996917
2026,32.7848262416974
2026.25,32.7448452837032
2026.5,32.704864325709
2026.75,32.6648833677147
2027,32.6249024097205
2027.25,32.5849214517263
2027.5,32.544940493732
2027.75,32.5049595357378
2028,32.4649785777435
2028.25,32.4249976197493
2028.5,32.3981270827194
2028.75,32.3931294629701
2029,32.3881318432208
2029.25,32.3831342234715
2029.5,32.3781366037223
2029.75,32.373138983973
2030,32.3681413642237
2030.25,32.3631437444744
2030.5,32.3581461247251
2030.75,32.3531485049759
2031,32.3481508852266
2031.25,32.3431532654773
2031.5,32.338155645728
2031.75,32.3331580259787
2032,32.3281604062295
2032.25,32.3231627864802
2032.5,32.3181651667309
2032.75,32.3131675469816
2033,32.3081699272323
2033.25,32.3031723074831
2033.5,32.2926987509351
2033.75,32.272708271938
2034,32.2527177929409
2034.25,32.2327273139437
2034.5,32.2127368349466
2034.75,32.1927463559495
2035,32.1727558769524
2035.25,32.1527653979552
2035.5,32.1327749189581
2035.75,32.112784439961
2036,32.0927939609639
2036.25,32.0728034819668
2036.5,32.0528130029697
2036.75,32.0328225239725
2037,32.0128320449754
2037.25,31.9928415659783
2037.5,31.9728510869812
2037.75,31.952860607984
2038,31.9328701289869
2038.25,31.9128796499898
2038.5,31.8946668782445
2038.75,31.8796740189967
2039,31.8646811597488
2039.25,31.849688300501
2039.5,31.8346954412531
2039.75,31.8197025820053
2040,31.8047097227575
2040.25,31.7897168635096
2040.5,31.7747240042618
2040.75,31.7597311450139
2041,31.7447382857661
2041.25,31.7297454265183
2041.5,31.7147525672704
2041.75,31.6997597080226
2042,31.6847668487747
2042.25,31.6697739895269
2042.5,31.6547811302791
2042.75,31.6397882710312
2043,31.6247954117834
2043.25,31.6098025525355
2043.5,31.6051903067123
2043.75,31.6201831659602
2044,31.635176025208
2044.25,31.6501688844558
2044.5,31.6651617437037
2044.75,31.6801546029515
2045,31.6951474621993
2045.25,31.7101403214472
2045.5,31.725133180695
2045.75,31.7401260399429
2046,31.7551188991907
2046.25,31.7701117584386
2046.5,31.7851046176864
2046.75,31.8000974769342
2047,31.8150903361821
2047.25,31.8300831954299
2047.5,31.8450760546778
2047.75,31.8600689139256
2048,31.8750617731734
2048.25,31.8900546324213
2048.5,31.9084124861152
2048.75,31.9334005848616
2049,31.958388683608
2049.25,31.9833767823544
2049.5,32.0083648811008
2049.75,32.0333529798472
2050,32.0583410785936
2050.25,32.08332917734
2050.5,32.1083172760864
2050.75,32.1333053748328
2051,32.1582934735792
2051.25,32.1832815723256
2051.5,32.208269671072
2051.75,32.2332577698184
2052,32.2582458685648
2052.25,32.2832339673112
2052.5,32.3082220660576
2052.75,32.333210164804
2053,32.3581982635504
2053.25,32.3831863622968
2053.5,32.4261582753383
2053.75,32.5061201913268
2054,32.5860821073153
