2167,43.696021890511
2167.25,43.8209741641062
2167.5,43.9459264377012
2167.75,44.0708787112962
2168,44.1958309848912
2168.25,44.3207832584863
2168.5,44.4457355320813
2168.75,44.5706878056763
2169,44.6956400792713
2169.25,44.8205923528663
2169.5,44.8781385792985
2169.75,44.8181614879729
2170,44.7581843966473
2170.25,44.6982073053217
2170.5,44.6382302139961
2170.75,44.5782531226705
2171,44.5182760313449
2171.25,44.4582989400193
2171.5,44.3983218486937
2171.75,44.338344757368
2172,44.2783676660424
2172.25,44.2183905747168
2172.5,44.1584134833912
2172.75,44.0984363920656
2173,44.03845930074
2173.25,43.9784822094144
2173.5,43.9185051180888
2173.75,43.8585280267631
2174,43.7985509354375
2174.25,43.7385738441119
2174.5,43.7267540590171
2174.75,43.8017254231741
2175,43.8766967873312
2175.25,43.9516681514882
2175.5,44.0266395156452
2175.75,44.1016108798022
2176,44.1765822439592
2176.25,44.2515536081162
2176.5,44.3265249722732
2176.75,44.4014963364302
2177,44.4764677005873
2177.25,44.5514390647443
2177.5,44.6264104289013
2177.75,44.7013817930583
2178,44.7763531572153
2178.25,44.8513245213724
2178.5,44.9262958855294
2178.75,45.0012672496864
2179,45.0762386138434
2179.25,45.1512099780004
2179.5,45.196509154379
2179.75,45.1865129724914
2180,45.1765167906038
2180.25,45.1665206087162
2180.5,45.1565244268286
2180.75,45.146528244941
2181,45.1365320630534
2181.25,45.1265358811658
2181.5,45.1165396992782
2181.75,45.1065435173906
2182,45.096547335503
2182.25,45.0865511536154
2182.5,45.0765549717278
2182.75,45.0665587898402
2183,45.0565626079526
2183.25,45.046566426065
2183.5,45.0365702441774
2183.75,45.0265740622898
2184,45.0165778804022
2184.25,45.0065816985146
2184.5,44.9351248159125
2184.75,44.7451973600479
2185,44.5552699041835
2185.25,44.3653424483191
2185.5,44.1754149924547
2185.75,43.9854875365902
2186,43.7955600807258
2186.25,43.6056326248614
2186.5,43.415705168997
2186.75,43.2257777131326
2187,43.035850257268
2187.25,42.8459228014036
2187.5,42.6559953455392
2187.75,42.4660678896748
2188,42.2761404338102
2188.25,42.0862129779458
2188.5,41.8962855220814
2188.75,41.706358066217
2189,41.5164306103525
2189.25,41.3265031544881
2189.5,41.1983309394375
2189.75,41.1933328484937
2190,41.1883347575499
2190.25,41.1833366666061
2190.5,41.1783385756623
2190.75,41.1733404847185
2191,41.1683423937747
2191.25,41.1633443028309
2191.5,41.1583462118871
2191.75,41.1533481209433
2192,41.1483500299995
2192.25,41.1433519390557
2192.5,41.1383538481119
2192.75,41.1333557571681
2193,41.1283576662243
2193.25,41.1233595752805
2193.5,41.1183614843366
2193.75,41.1133633933928
2194,41.1083653024491
2194.25,41.1033672115053
2194.5,41.0820603261759
2194.75,41.0270813257941
2195,40.9721023254123
2195.25,40.9171233250305
2195.5,40.8621443246487
2195.75,40.8071653242668
2196,40.752186323885
2196.25,40.6972073235032
2196.5,40.6422283231214
2196.75,40.5872493227396
2197,40.5322703223578
2197.25,40.477291321976
2197.5,40.4223123215942
2197.75,40.3673333212123
2198,40.3123543208305
2198.25,40.2573753204487
2198.5,40.2023963200669
2198.75,40.1474173196851
2199,40.0924383193033
2199.25,40.0374593189215
2199.5,40.0191123797749
2199.75,40.0790894711005
2200,40.1390665624262
2200.25,40.1990436537518
2200.5,40.2590207450774
2200.75,40.318997836403
2201,40.3789749277286
2201.25,40.4389520190542
2201.5,40.4989291103798
2201.75,40.5589062017054
2202,40.618883293031
2202.25,40.6788603843567
2202.5,40.7388374756823
2202.75,40.7988145670079
2203,40.8587916583335
2203.25,40.9187687496591
2203.5,40.9787458409847
2203.75,41.0387229323103
2204,41.0987000236359
2204.25,41.1586771149616
2204.5,41.1720186905692
2204.75,41.0820530535808
2205,40.9920874165924
2205.25,40.902121779604
2205.5,40.8121561426156
2205.75,40.7221905056272
2206,40.6322248686388
2206.25,40.5422592316504
2206.5,40.4522935946619
2206.75,40.3623279576735
2207,40.2723623206851
2207.25,40.1823966836967
2207.5,40.0924310467083
2207.75,40.0024654097198
2208,39.9124997727314
2208.25,39.822534135743
2208.5,39.7325684987546
2208.75,39.6426028617661
2209,39.5526372247777
2209.25,39.4626715877893
2209.5,39.4166796967328
2209.75,39.4716586971146
2210,39.5266376974964
2210.25,39.5816166978782
2210.5,39.63659569826
2210.75,39.6915746986418
2211,39.7465536990237
2211.25,39.8015326994055
2211.5,39.8565116997873
2211.75,39.9114907001691
2212,39.9664697005509
2212.25,40.0214487009327
2212.5,40.0764277013145
2212.75,40.1314067016963
2213,40.1863857020782
2213.25,40.24136470246
2213.5,40.2963437028418
2213.75,40.3513227032236
2214,40.4063017036054
2214.25,40.4612807039872
2214.5,40.5872111416156
2214.75,40.8820985072998
2215,41.176985872984
2215.25,41.4718732386685
2215.5,41.7667606043527
2215.75,42.0616479700369
2216,42.3565353357211
2216.25,42.6514227014056
2216.5,42.9463100670898
2216.75,43.241197432774
2217,43.5360847984582
2217.25,43.8309721641424
2217.5,44.1258595298268
2217.75,44.420746895511
2218,44.7156342611952
2218.25,45.0105216268794
2218.5,45.3054089925639
2218.75,45.6002963582481
2219,45.8951837239323
2219.25,46.1900710896165
2219.5,46.4345593716477
2219.75,46.554513554299
2220,46.6744677369502
2220.25,46.7944219196014
2220.5,46.9143761022526
2220.75,47.034330284904
2221,47.1542844675552
2221.25,47.2742386502064
2221.5,47.3941928328575
2221.75,47.5141470155089
2222,47.6341011981601
2222.25,47.7540553808113
2222.5,47.8740095634625
2222.75,47.9939637461137
2223,48.113917928765
2223.25,48.2338721114162
2223.5,48.3538262940674
2223.75,48.4737804767186
2224,48.5937346593699
2224.25,48.7136888420211
2224.5,48.7817766949692
2224.75,48.7168015126998
2225,48.6518263304303
2225.25,48.5868511481609
2225.5,48.5218759658915
2225.75,48.4569007836221
2226,48.3919256013527
2226.25,48.3269504190833
2226.5,48.2619752368139
2226.75,48.1970000545445
2227,48.1320248722751
2227.25,48.0670496900056
2227.5,48.0020745077362
2227.75,47.9370993254668
2228,47.8721241431974
2228.25,47.807148960928
2228.5,47.7421737786586
2228.75,47.6771985963892
2229,47.6122234141198
2229.25,47.5472482318504
2229.5,47.5081816694242
2229.75,47.538170215087
2230,47.5681587607498
2230.25,47.5981473064126
2230.5,47.6281358520754
2230.75,47.6581243977382
2231,47.688112943401
2231.25,47.7181014890638
2231.5,47.7480900347266
2231.75,47.7780785803895
2232,47.8080671260523
2232.25,47.8380556717151
2232.5,47.8680442173779
2232.75,47.8980327630407
2233,47.9280213087035
2233.25,47.9580098543663
2233.5,47.9879984000291
2233.75,48.0179869456919
2234,48.0479754913547
2234.25,48.0779640370175
2234.5,48.0377047690042
2234.75,47.8027944946456
2235,47.5678842202868
2235.25,47.3329739459282
2235.5,47.0980636715696
2235.75,46.863153397211
2236,46.6282431228522
2236.25,46.3933328484936
2236.5,46.158422574135
2236.75,45.9235122997764
2237,45.6886020254176
2237.25,45.453691751059
2237.5,45.2187814767004
2237.75,44.9838712023418
2238,44.7489609279832
2238.25,44.5140506536244
2238.5,44.2791403792658
2238.75,44.0442301049072
2239,43.8093198305486
2239.25,43.5744095561898
2239.5,43.4244577371321
2239.75,43.5194214650643
2240,43.6143851929965
2240.25,43.7093489209287
2240.5,43.804312648861
2240.75,43.8992763767932
2241,43.9942401047254
2241.25,44.0892038326576
2241.5,44.1841675605898
2241.75,44.279131288522
2242,44.3740950164542
2242.25,44.4690587443864
2242.5,44.5640224723187
2242.75,44.6589862002509
2243,44.7539499281831
2243.25,44.8489136561153
2243.5,44.9438773840475
2243.75,45.0388411119798
2244,45.133804839912
2244.25,45.2287685678442
2244.5,45.3
2244.75,45.3
2245,45.3
2245.25,45.3
2245.5,45.3
2245.75,45.3
2246,45.3
2246.25,45.3
2246.5,45.3
2246.75,45.3
2247,45.3
2247.25,45.3
2247.5,45.3
2247.75,45.3
2248,45.3
2248.25,45.3
2248.5,45.3
2248.75,45.3
2249,45.3
2249.25,45.3
2249.5,45.2963673387757
2249.75,45.2813730659443
2250,45.2663787931129
2250.25,45.2513845202814
2250.5,45.23639024745
2250.75,45.2213959746186
2251,45.2064017017872
2251.25,45.1914074289558
2251.5,45.1764131561244
2251.75,45.161418883293
2252,45.1464246104616
2252.25,45.1314303376302
2252.5,45.1164360647988
2252.75,45.1014417919674
2253,45.086447519136
2253.25,45.0714532463046
2253.5,45.0564589734732
2253.75,45.0414647006418
2254,45.0264704278104
2254.25,45.011476154979
2254.5,45.0492536499337
2254.75,45.2591734695733
2255,45.4690932892129
2255.25,45.6790131088525
2255.5,45.8889329284921
2255.75,46.0988527481319
2256,46.3087725677715
2256.25,46.5186923874111
2256.5,46.7286122070507
2256.75,46.9385320266905
2257,47.1484518463301
2257.25,47.3583716659697
2257.5,47.5682914856093
2257.75,47.7782113052491
2258,47.9881311248887
2258.25,48.1980509445283
2258.5,48.4079707641679
2258.75,48.6178905838075
2259,48.8278104034473
2259.25,49.0377302230869
2259.5,49.1965964255195
2259.75,49.1816021526881
2260,49.1666078798567
2260.25,49.1516136070253
2260.5,49.1366193341939
2260.75,49.1216250613625
2261,49.1066307885311
2261.25,49.0916365156997
2261.5,49.0766422428683
2261.75,49.0616479700369
2262,49.0466536972055
2262.25,49.0316594243741
2262.5,49.0166651515427
2262.75,49.0016708787113
2263,48.9866766058799
2263.25,48.9716823330485
2263.5,48.9566880602171
2263.75,48.9416937873857
2264,48.9266995145543
2264.25,48.9117052417229
2264.5,48.9098670933256
2264.75,48.9548499118198
2265,48.999832730314
2265.25,49.0448155488082
2265.5,49.0897983673024
2265.75,49.1347811857966
2266,49.1797640042908
2266.25,49.224746822785
2266.5,49.2697296412793
2266.75,49.3147124597735
2267,49.3596952782677
2267.25,49.4046780967619
2267.5,49.4496609152561
2267.75,49.4946437337503
2268,49.5396265522445
2268.25,49.5846093707387
2268.5,49.6295921892329
2268.75,49.6745750077272
2269,49.7195578262213
2269.25,49.7645406447155
2269.5,49.7185214814277
2269.75,49.3336684787548
2270,48.9488154760822
2270.25,48.5639624734096
2270.5,48.179109470737
2270.75,47.7942564680644
2271,47.4094034653914
2271.25,47.0245504627188
2271.5,46.6396974600462
2271.75,46.2548444573736
2272,45.8699914547007
2272.25,45.4851384520281
2272.5,45.1002854493555
2272.75,44.7154324466829
2273,44.3305794440099
2273.25,43.9457264413373
2273.5,43.5608734386647
2273.75,43.1760204359921
2274,42.7911674333195
2274.25,42.4063144306466
2274.5,42.0796003709023
2274.75,41.9796385520263
2275,41.8796767331503
2275.25,41.7797149142742
2275.5,41.6797530953982
2275.75,41.5797912765223
2276,41.4798294576462
2276.25,41.3798676387703
2276.5,41.2799058198942
2276.75,41.1799440010182
2277,41.0799821821422
2277.25,40.9800203632662
2277.5,40.8800585443901
2277.75,40.7800967255141
2278,40.6801349066381
2278.25,40.5801730877621
2278.5,40.480211268886
2278.75,40.38024945001
2279,40.280287631134
2279.25,40.180325812258
2279.5,40.1186542062871
2279.75,40.2136179342194
2280,40.3085816621516
2280.25,40.4035453900838
2280.5,40.498509118016
2280.75,40.5934728459483
2281,40.6884365738805
2281.25,40.7834003018127
2281.5,40.8783640297449
2281.75,40.9733277576772
2282,41.0682914856094
2282.25,41.1632552135416
2282.5,41.2582189414738
2282.75,41.353182669406
2283,41.4481463973383
2283.25,41.5431101252705
2283.5,41.6380738532027
2283.75,41.7330375811349
2284,41.8280013090671
2284.25,41.9229650369993
2284.5,42.0084925728623
2284.75,42.0534753913565
2285,42.0984582098507
2285.25,42.143441028345
2285.5,42.1884238468392
2285.75,42.2334066653333
2286,42.2783894838276
2286.25,42.3233723023218
2286.5,42.368355120816
2286.75,42.4133379393102
2287,42.4583207578044
2287.25,42.5033035762986
2287.5,42.5482863947928
2287.75,42.593269213287
2288,42.6382520317812
2288.25,42.6832348502754
2288.5,42.7282176687697
2288.75,42.7732004872639
2289,42.8181833057581
2289.25,42.8631661242523
2289.5,42.9117706950783
2289.75,42.9767458773477
2290,43.0417210596171
2290.25,43.1066962418865
2290.5,43.171671424156
2290.75,43.2366466064254
2291,43.3016217886948
2291.25,43.3665969709642
2291.5,43.4315721532336
2291.75,43.496547335503
2292,43.5615225177724
2292.25,43.6264977000418
2292.5,43.6914728823112
2292.75,43.7564480645807
2293,43.8214232468501
2293.25,43.8863984291195
2293.5,43.9513736113889
2293.75,44.0163487936583
2294,44.0813239759277
2294.25,44.1462991581971
2294.5,44.1705132633952
2294.75,44.000578171306
2295,43.8306430792167
2295.25,43.6607079871275
2295.5,43.4907728950383
2295.75,43.3208378029491
2296,43.1509027108597
2296.25,42.9809676187705
2296.5,42.8110325266813
2296.75,42.6410974345921
2297,42.4711623425028
2297.25,42.3012272504136
2297.5,42.1312921583244
2297.75,41.9613570662352
2298,41.791421974146
2298.25,41.6214868820566
2298.5,41.4515517899674
2298.75,41.2816166978782
2299,41.111681605789
2299.25,40.9417465136997
2299.5,40.8041453791749
2299.75,40.8291358338939
2300,40.8541262886129
2300.25,40.8791167433319
2300.5,40.904107198051
2300.75,40.9290976527699
2301,40.954088107489
2301.25,40.9790785622079
2301.5,41.004069016927
2301.75,41.029059471646
2302,41.054049926365
2302.25,41.079040381084
2302.5,41.104030835803
2302.75,41.129021290522
2303,41.154011745241
2303.25,41.17900219996
2303.5,41.203992654679
2303.75,41.228983109398
2304,41.253973564117
2304.25,41.278964018836
2304.5,41.309490736532
2304.75,41.3694678278577
2305,41.4294449191833
2305.25,41.4894220105089
2305.5,41.5493991018345
2305.75,41.6093761931602
2306,41.6693532844858
2306.25,41.7293303758114
2306.5,41.789307467137
2306.75,41.8492845584626
2307,41.9092616497882
2307.25,41.9692387411138
2307.5,42.0292158324394
2307.75,42.089192923765
2308,42.1491700150907
2308.25,42.2091471064163
2308.5,42.2691241977419
2308.75,42.3291012890675
2309,42.3890783803931
2309.25,42.4490554717187
2309.5,42.5210759804367
2309.75,42.6610225268631
2310,42.8009690732895
2310.25,42.9409156197161
2310.5,43.0808621661425
2310.75,43.2208087125689
2311,43.3607552589952
2311.25,43.5007018054218
2311.5,43.6406483518482
2311.75,43.7805948982746
2312,43.920541444701
2312.25,44.0604879911274
2312.5,44.2004345375539
2312.75,44.3403810839803
2313,44.4803276304067
2313.25,44.6202741768331
2313.5,44.7602207232596
2313.75,44.900167269686
2314,45.0401138161124
2314.25,45.1800603625388
2314.5,45.2949982727587
2314.75,45.2600116361521
2315,45.2250249995455
2315.25,45.1900383629389
2315.5,45.1550517263323
2315.75,45.1200650897256
2316,45.085078453119
2316.25,45.0500918165124
2316.5,45.0151051799058
2316.75,44.9801185432992
2317,44.9451319066926
2317.25,44.910145270086
2317.5,44.8751586334794
2317.75,44.8401719968728
2318,44.8051853602662
2318.25,44.7701987236596
2318.5,44.735212087053
2318.75,44.7002254504464
2319,44.6652388138397
2319.25,44.6302521772331
2319.5,44.5939128379484
2319.75,44.5489300194542
2320,44.50394720096
2320.25,44.4589643824658
2320.5,44.4139815639716
2320.75,44.3689987454774
2321,44.3240159269831
2321.25,44.2790331084889
2321.5,44.2340502899947
2321.75,44.1890674715005
2322,44.1440846530063
2322.25,44.0991018345121
2322.5,44.0541190160179
2322.75,44.0091361975237
2323,43.9641533790295
2323.25,43.9191705605353
2323.5,43.874187742041
2323.75,43.8292049235468
2324,43.7842221050526
2324.25,43.7392392865585
2324.5,43.7102107234414
2324.75,43.7901801785422
2325,43.870149633643
2325.25,43.9501190887438
2325.5,44.0300885438447
2325.75,44.1100579989455
2326,44.1900274540463
2326.25,44.2699969091471
2326.5,44.349966364248
2326.75,44.4299358193488
2327,44.5099052744496
2327.25,44.5898747295504
2327.5,44.6698441846512
2327.75,44.749813639752
2328,44.8297830948528
2328.25,44.9097525499536
2328.5,44.9897220050544
2328.75,45.0696914601553
2329,45.1496609152561
2329.25,45.2296303703569
2329.5,45.3497990945618
2329.75,45.7646406428976
2330,46.179482191233
2330.25,46.5943237395684
2330.5,47.0091652879038
2330.75,47.4240068362392
2331,47.838848384575
2331.25,48.2536899329104
2331.5,48.6685314812458
2331.75,49.0833730295812
2332,49.4982145779169
2332.25,49.9130561262523
2332.5,50.3278976745877
2332.75,50.7427392229231
2333,51.1575807712589
2333.25,51.5724223195943
2333.5,51.9872638679297
2333.75,52.4021054162651
2334,52.8169469646005
2334.25,53.2317885129363
2334.5,53.6067416956055
2334.75,53.6667187869311
2335,53.7266958782567
2335.25,53.7866729695824
2335.5,53.846650060908
2335.75,53.9066271522336
2336,53.9666042435592
2336.25,54.0265813348848
2336.5,54.0865584262105
2336.75,54.1465355175361
2337,54.2065126088617
2337.25,54.2664897001873
2337.5,54.3264667915129
2337.75,54.3864438828385
2338,54.4464209741641
2338.25,54.5063980654897
2338.5,54.5663751568154
2338.75,54.626352248141
2339,54.6863293394666
2339.25,54.7463064307922
2339.5,54.7979054926274
2339.75,54.7779131288522
2340,54.757920765077
2340.25,54.7379284013018
2340.5,54.7179360375266
2340.75,54.6979436737514
2341,54.6779513099762
2341.25,54.657958946201
2341.5,54.6379665824258
2341.75,54.6179742186506
2342,54.5979818548754
2342.25,54.5779894911002
2342.5,54.557997127325
2342.75,54.5380047635498
2343,54.5180123997745
2343.25,54.4980200359993
2343.5,54.4780276722241
2343.75,54.4580353084489
2344,54.4380429446737
2344.25,54.4180505808985
2344.5,54.3781549426374
2344.75,54.1532408501664
2345,53.9283267576952
2345.25,53.7034126652242
2345.5,53.4784985727532
2345.75,53.2535844802822
2346,53.0286703878112
2346.25,52.80375629534
2346.5,52.578842202869
2346.75,52.353928110398
2347,52.129014017927
2347.25,51.9040999254558
2347.5,51.6791858329848
2347.75,51.4542717405138
2348,51.2293576480428
2348.25,51.0044435555718
2348.5,50.7795294631006
2348.75,50.5546153706296
2349,50.3297012781586
2349.25,50.1047871856876
2349.5,49.8731641242885
2349.75,49.5732786676605
2350,49.2733932110325
2350.25,48.9735077544045
2350.5,48.6736222977763
2350.75,48.3737368411483
2351,48.0738513845203
2351.25,47.7739659278923
2351.5,47.4740804712643
2351.75,47.174195014636
2352,46.874309558008
2352.25,46.57442410138
2352.5,46.274538644752
2352.75,45.9746531881237
2353,45.6747677314957
2353.25,45.3748822748677
2353.5,45.0749968182397
2353.75,44.7751113616115
2354,44.4752259049835
2354.25,44.1753404483555
2354.5,43.8963182487591
2354.75,43.8513354302649
2355,43.8063526117707
2355.25,43.7613697932765
2355.5,43.7163869747823
2355.75,43.6714041562881
2356,43.6264213377938
2356.25,43.5814385192996
2356.5,43.5364557008054
2356.75,43.4914728823112
2357,43.446490063817
2357.25,43.4015072453228
2357.5,43.3565244268286
2357.75,43.3115416083344
2358,43.2665587898402
2358.25,43.221575971346
2358.5,43.1765931528518
2358.75,43.1316103343576
2359,43.0866275158634
2359.25,43.0416446973691
2359.5,43.0007418046945
2359.75,43.0107379865821
2360,43.0207341684697
2360.25,43.0307303503573
2360.5,43.0407265322449
2360.75,43.0507227141325
2361,43.0607188960201
2361.25,43.0707150779077
2361.5,43.0807112597953
2361.75,43.0907074416829
2362,43.1007036235705
2362.25,43.1106998054581
2362.5,43.1206959873457
2362.75,43.1306921692333
2363,43.1406883511209
2363.25,43.1506845330085
2363.5,43.1606807148961
2363.75,43.1706768967837
2364,43.1806730786713
2364.25,43.1906692605589
2364.5,43.215970618716
2364.75,43.4558789840186
2365,43.695787349321
2365.25,43.9356957146234
2365.5,44.1756040799258
2365.75,44.4155124452284
2366,44.6554208105308
2366.25,44.8953291758332
2366.5,45.1352375411356
2366.75,45.375145906438
2367,45.6150542717406
2367.25,45.854962637043
2367.5,46.0948710023454
2367.75,46.3347793676478
2368,46.5746877329504
2368.25,46.8145960982528
2368.5,47.0545044635552
2368.75,47.2944128288576
2369,47.53432119416
2369.25,47.7742295594626
2369.5,47.9926364975182
2369.75,47.8676842239232
2370,47.7427319503282
2370.25,47.6177796767331
2370.5,47.4928274031381
2370.75,47.3678751295431
2371,47.2429228559481
2371.25,47.117970582353
2371.5,46.993018308758
2371.75,46.868066035163
2372,46.743113761568
2372.25,46.618161487973
2372.5,46.4932092143779
2372.75,46.3682569407829
2373,46.2433046671879
2373.25,46.1183523935929
2373.5,45.9934001199978
2373.75,45.8684478464028
2374,45.7434955728078
2374.25,45.6185432992128
2374.5,45.489489282013
2374.75,45.2845675533172
2375,45.0796458246214
2375.25,44.8747240959256
2375.5,44.6698023672298
2375.75,44.4648806385338
2376,44.259958909838
2376.25,44.0550371811422
2376.5,43.8501154524464
2376.75,43.6451937237504
2377,43.4402719950546
2377.25,43.2353502663588
2377.5,43.030428537663
2377.75,42.825506808967
2378,42.6205850802712
2378.25,42.4156633515754
2378.5,42.2107416228796
2378.75,42.0058198941838
2379,41.8008981654878
2379.25,41.595976436792
2379.5,41.3945455537172
2379.75,41.2695932801222
2380,41.1446410065271
2380.25,41.0196887329321
2380.5,40.8947364593371
2380.75,40.7697841857421
2381,40.6448319121471
2381.25,40.519879638552
2381.5,40.394927364957
2381.75,40.269975091362
2382,40.145022817767
2382.25,40.0200705441719
2382.5,39.8951182705769
2382.75,39.7701659969819
2383,39.6452137233869
2383.25,39.5202614497918
2383.5,39.3953091761968
2383.75,39.2703569026018
2384,39.1454046290068
2384.25,39.0204523554118
2384.5,38.901619970546
2384.75,38.9466027890402
2385,38.9915856075344
2385.25,39.0365684260286
2385.5,39.0815512445228
2385.75,39.126534063017
2386,39.1715168815112
2386.25,39.2164997000054
2386.5,39.2614825184997
2386.75,39.3064653369939
2387,39.3514481554881
2387.25,39.3964309739823
2387.5,39.4414137924765
2387.75,39.4863966109707
2388,39.5313794294649
2388.25,39.5763622479591
2388.5,39.6213450664533
2388.75,39.6663278849476
2389,39.7113107034418
2389.25,39.756293521936
2389.5,39.812905219905
2389.75,40.2677314957912
2390,40.722557771677
2390.25,41.1773840475628
2390.5,41.6322103234486
2390.75,42.0870365993344
2391,42.5418628752206
2391.25,42.9966891511064
2391.5,43.4515154269922
2391.75,43.906341702878
2392,44.3611679787642
2392.25,44.81599425465
2392.5,45.2708205305358
2392.75,45.7256468064216
2393,46.1804730823074
2393.25,46.6352993581936
2393.5,47.0901256340794
2393.75,47.5449519099652
2394,47.999778185851
2394.25,48.4546044617372
2394.5,48.900829075835
2394.75,48.9408138033854
2395,48.9807985309358
2395.25,49.0207832584862
2395.5,49.0607679860366
2395.75,49.100752713587
2396,49.1407374411374
2396.25,49.1807221686878
2396.5,49.2207068962383
2396.75,49.2606916237887
2397,49.3006763513391
2397.25,49.3406610788895
2397.5,49.3806458064399
2397.75,49.4206305339903
2398,49.4606152615407
2398.25,49.5005999890911
2398.5,49.5405847166415
2398.75,49.5805694441919
2399,49.6205541717423
2399.25,49.6605388992927
2399.5,49.6971855057182
2399.75,49.4822675951346
2400,49.2673496845512
2400.25,49.0524317739678
2400.5,48.8375138633844
2400.75,48.6225959528008
2401,48.4076780422174
2401.25,48.192760131634
2401.5,47.9778422210506
2401.75,47.762924310467
2402,47.5480063998836
2402.25,47.3330884893002
2402.5,47.1181705787168
2402.75,46.9032526681334
2403,46.6883347575498
2403.25,46.4734168469664
2403.5,46.258498936383
2403.75,46.0435810257996
2404,45.828663115216
2404.25,45.6137452046326
2404.5,45.3981182160324
2404.75,45.0532499409102
2405,44.708381665788
2405.25,44.3635133906655
2405.5,44.0186451155433
2405.75,43.6737768404211
2406,43.3289085652989
2406.25,42.9840402901764
2406.5,42.6391720150542
2406.75,42.294303739932
2407,41.9494354648098
2407.25,41.6045671896873
2407.5,41.2596989145651
2407.75,40.9148306394429
2408,40.5699623643207
2408.25,40.2250940891985
2408.5,39.880225814076
2408.75,39.5353575389538
2409,39.1904892638316
2409.25,38.8456209887094
2409.5,38.5007527135869
2409.75,38.5797949128198
2410,38.6597643679206
2410.25,38.7397338230214
2410.5,38.8197032781223
2410.75,38.899672733223
2411,38.9796421883239
2411.25,39.0596116434247
2411.5,39.1395810985255
2411.75,39.2195505536263
2412,39.2995200087271
2412.25,39.3794894638279
2412.5,39.4594589189287
2412.75,39.5394283740296
2413,39.6193978291304
2413.25,39.6993672842312
2413.5,39.779336739332
2413.75,39.8593061944329
2414,39.9392756495337
2414.25,40.0192451046345
2414.5,40.0992145597353
2414.75,40.0752549953637
2415,40.0502645406447
2415.25,40.0252740859257
2415.5,40.0002836312067
2415.75,39.9752931764877
2416,39.9503027217687
2416.25,39.9253122670497
2416.5,39.9003218123307
2416.75,39.8753313576117
2417,39.8503409028927
2417.25,39.8253504481737
2417.5,39.8003599934547
2417.75,39.7753695387357
2418,39.7503790840167
2418.25,39.7253886292976
2418.5,39.7003981745786
2418.75,39.6754077198596
2419,39.6504172651406
2419.25,39.6254268104216
2419.5,39.6004363557026
2419.75,39.6098216396066
2420,39.6198178214942
2420.25,39.6298140033818
2420.5,39.6398101852694
2420.75,39.649806367157
2421,39.6598025490446
2421.25,39.6697987309322
2421.5,39.6797949128198
2421.75,39.6897910947074
2422,39.699787276595
2422.25,39.7097834584826
2422.5,39.7197796403702
2422.75,39.7297758222578
2423,39.7397720041454
2423.25,39.749768186033
2423.5,39.7597643679206
2423.75,39.7697605498082
2424,39.7797567316958
2424.25,39.7897529135834
2424.5,39.799749095471
2424.75,39.9023254122653
2425,40.0072853220851
2425.25,40.1122452319049
2425.5,40.2172051417247
2425.75,40.3221650515446
2426,40.4271249613644
2426.25,40.5320848711842
2426.5,40.637044781004
2426.75,40.7420046908238
2427,40.8469646006437
2427.25,40.9519245104635
2427.5,41.0568844202833
2427.75,41.1618443301031
2428,41.266804239923
2428.25,41.3717641497428
2428.5,41.4767240595625
2428.75,41.5816839693824
2429,41.6866438792022
2429.25,41.791603789022
2429.5,41.8965636988418
2429.75,41.9580134906638
2430,42.0179905819894
2430.25,42.0779676733151
2430.5,42.1379447646407
2430.75,42.1979218559663
2431,42.2578989472918
2431.25,42.3178760386175
2431.5,42.3778531299431
2431.75,42.4378302212687
2432,42.4978073125943
2432.25,42.5577844039199
2432.5,42.6177614952456
2432.75,42.6777385865712
2433,42.7377156778968
2433.25,42.7976927692224
2433.5,42.857669860548
2433.75,42.9176469518736
2434,42.9776240431992
2434.25,43.0376011345248
2434.5,43.0975782258505
2434.75,43.3062398865476
2435,43.521157797131
2435.25,43.7360757077144
2435.5,43.9509936182978
2435.75,44.1659115288814
2436,44.3808294394648
2436.25,44.5957473500482
2436.5,44.8106652606316
2436.75,45.0255831712152
2437,45.2405010817986
2437.25,45.455418992382
2437.5,45.6703369029654
2437.75,45.8852548135489
2438,46.1001727241323
2438.25,46.3150906347157
2438.5,46.5300085452991
2438.75,46.7449264558825
2439,46.9598443664661
2439.25,47.1747622770495
2439.5,47.3896801876329
2439.75,47.052659042563
2440,46.6877984036652
2440.25,46.3229377647678
2440.5,45.9580771258704
2440.75,45.593216486973
2441,45.2283558480756
2441.25,44.8634952091779
2441.5,44.4986345702805
2441.75,44.1337739313831
2442,43.7689132924857
2442.25,43.404052653588
2442.5,43.0391920146906
2442.75,42.6743313757932
2443,42.3094707368958
2443.25,41.9446100979981
2443.5,41.5797494591007
2443.75,41.2148888202033
2444,40.8500281813059
2444.25,40.4851675424085
2444.5,40.1203069035107
2444.75,40.1047199141834
2445,40.1097180051272
2445.25,40.114716096071
2445.5,40.1197141870148
2445.75,40.1247122779586
2446,40.1297103689024
2446.25,40.1347084598462
2446.5,40.13970655079
2446.75,40.1447046417338
2447,40.1497027326776
2447.25,40.1547008236214
2447.5,40.1596989145652
2447.75,40.164697005509
2448,40.1696950964528
2448.25,40.1746931873966
2448.5,40.1796912783404
2448.75,40.1846893692842
2449,40.189687460228
2449.25,40.1946855511718
2449.5,40.1996836421156
2449.75,40.2608625297722
2450,40.3258377120416
2450.25,40.390812894311
2450.5,40.4557880765804
2450.75,40.5207632588498
2451,40.5857384411193
2451.25,40.6507136233887
2451.5,40.7156888056581
2451.75,40.7806639879275
2452,40.8456391701969
2452.25,40.9106143524663
2452.5,40.9755895347357
2452.75,41.0405647170051
2453,41.1055398992745
2453.25,41.170515081544
2453.5,41.2354902638134
2453.75,41.3004654460828
2454,41.3654406283522
2454.25,41.4304158106216
2454.5,41.495390992891
2454.75,41.5
2455,41.5
2455.25,41.5
2455.5,41.5
2455.75,41.5
2456,41.5
2456.25,41.5
2456.5,41.5
2456.75,41.5
2457,41.5
2457.25,41.5
2457.5,41.5
2457.75,41.5
2458,41.5
2458.25,41.5
2458.5,41.5
2458.75,41.5
2459,41.5
2459.25,41.5
2459.5,41.5
2459.75,41.4815785167542
2460,41.461586152979
2460.25,41.4415937892038
2460.5,41.4216014254286
2460.75,41.4016090616534
2461,41.3816166978782
2461.25,41.361624334103
2461.5,41.3416319703278
2461.75,41.3216396065526
2462,41.3016472427774
2462.25,41.2816548790022
2462.5,41.261662515227
2462.75,41.2416701514518
2463,41.2216777876766
2463.25,41.2016854239014
2463.5,41.1816930601262
2463.75,41.161700696351
2464,41.1417083325758
2464.25,41.1217159688006
2464.5,41.1017236050254
2464.75,41.0086562062508
2465,40.9086943873748
2465.25,40.8087325684987
2465.5,40.7087707496227
2465.75,40.6088089307467
2466,40.5088471118707
2466.25,40.4088852929946
2466.5,40.3089234741186
2466.75,40.2089616552426
2467,40.1089998363666
2467.25,40.0090380174905
2467.5,39.9090761986145
2467.75,39.8091143797386
2468,39.7091525608625
2468.25,39.6091907419866
2468.5,39.5092289231105
2468.75,39.4092671042345
2469,39.3093052853585
2469.25,39.2093434664825
2469.5,39.1093816476064
2469.75,39.5166687878403
2470,39.9764931546699
2470.25,40.4363175214995
2470.5,40.8961418883295
2470.75,41.3559662551591
2471,41.8157906219887
2471.25,42.2756149888183
2471.5,42.7354393556479
2471.75,43.1952637224779
2472,43.6550880893075
2472.25,44.1149124561371
2472.5,44.5747368229667
2472.75,45.0345611897967
2473,45.4943855566263
2473.25,45.9542099234559
2473.5,46.4140342902855
2473.75,46.8738586571155
2474,47.3336830239451
2474.25,47.7935073907747
2474.5,48.2533317576043
2474.75,48.2146742786495
2475,48.1197105507172
2475.25,48.024746822785
2475.5,47.9297830948528
2475.75,47.8348193669206
2476,47.7398556389883
2476.25,47.6448919110561
2476.5,47.5499281831239
2476.75,47.4549644551917
2477,47.3600007272595
2477.25,47.2650369993273
2477.5,47.1700732713951
2477.75,47.0751095434629
2478,46.9801458155307
2478.25,46.8851820875984
2478.5,46.7902183596662
2478.75,46.695254631734
2479,46.6002909038018
2479.25,46.5053271758695
2479.5,46.4103634479373
2479.75,46.3821894147379
2480,46.3621970509627
2480.25,46.3422046871875
2480.5,46.3222123234123
2480.75,46.3022199596371
2481,46.2822275958619
2481.25,46.2622352320867
2481.5,46.2422428683115
2481.75,46.2222505045363
2482,46.2022581407611
2482.25,46.1822657769859
2482.5,46.1622734132107
2482.75,46.1422810494355
2483,46.1222886856603
2483.25,46.1022963218851
2483.5,46.0823039581099
2483.75,46.0623115943346
2484,46.0423192305594
2484.25,46.0223268667842
2484.5,46.002334503009
2484.75,45.8808094398283
2485,45.7458609843457
2485.25,45.6109125288631
2485.5,45.4759640733805
2485.75,45.3410156178978
2486,45.2060671624152
2486.25,45.0711187069326
2486.5,44.93617025145
2486.75,44.8012217959674
2487,44.6662733404847
2487.25,44.5313248850021
2487.5,44.3963764295195
2487.75,44.2614279740369
2488,44.1264795185541
2488.25,43.9915310630715
2488.5,43.8565826075889
2488.75,43.7216341521064
2489,43.5866856966238
2489.25,43.451737241141
2489.5,43.3167887856584
2489.75,43.2737422955946
2490,43.2437537499318
2490.25,43.213765204269
2490.5,43.1837766586062
2490.75,43.1537881129434
2491,43.1237995672806
2491.25,43.0938110216178
2491.5,43.063822475955
2491.75,43.0338339302922
2492,43.0038453846294
2492.25,42.9738568389666
2492.5,42.9438682933038
2492.75,42.9138797476409
2493,42.8838912019782
2493.25,42.8539026563153
2493.5,42.8239141106526
2493.75,42.7939255649897
2494,42.7639370193269
2494.25,42.7339484736641
2494.5,42.7039599280013
2494.75,42.7216905147179
2495,42.7466809694369
2495.25,42.7716714241559
2495.5,42.7966618788749
2495.75,42.8216523335939
2496,42.8466427883129
2496.25,42.871633243032
2496.5,42.896623697751
2496.75,42.92161415247
2497,42.946604607189
2497.25,42.971595061908
2497.5,42.996585516627
2497.75,43.021575971346
2498,43.046566426065
2498.25,43.071556880784
2498.5,43.096547335503
2498.75,43.121537790222
2499,43.146528244941
2499.25,43.17151869966
2499.5,43.196509154379
2499.75,43.2300994527372
2500,43.2650860893438
2500.25,43.3000727259504
2500.5,43.3350593625571
2500.75,43.3700459991637
2501,43.4050326357703
2501.25,43.4400192723769
2501.5,43.4750059089835
2501.75,43.5099925455901
2502,43.5449791821967
2502.25,43.5799658188033
2502.5,43.6149524554099
2502.75,43.6499390920165
2503,43.6849257286231
2503.25,43.7199123652297
2503.5,43.7548990018363
2503.75,43.7898856384429
2504,43.8248722750495
2504.25,43.8598589116561
2504.5,43.8948455482627
2504.75,43.9
2505,43.9
2505.25,43.9
2505.5,43.9
2505.75,43.9
2506,43.9
2506.25,43.9
2506.5,43.9
2506.75,43.9
2507,43.9
2507.25,43.9
2507.5,43.9
2507.75,43.9
2508,43.9
2508.25,43.9
2508.5,43.9
2508.75,43.9
2509,43.9
2509.25,43.9
2509.5,43.9
2509.75,43.8873293212851
2510,43.8723350484537
2510.25,43.8573407756223
2510.5,43.8423465027909
2510.75,43.8273522299595
2511,43.8123579571281
2511.25,43.7973636842967
2511.5,43.7823694114652
2511.75,43.7673751386338
2512,43.7523808658024
2512.25,43.737386592971
2512.5,43.7223923201396
2512.75,43.7073980473082
2513,43.6924037744768
2513.25,43.6774095016454
2513.5,43.662415228814
2513.75,43.6474209559826
2514,43.6324266831512
2514.25,43.6174324103198
2514.5,43.6024381374884
2514.75,43.6
2515,43.6
2515.25,43.6
2515.5,43.6
2515.75,43.6
2516,43.6
2516.25,43.6
2516.5,43.6
2516.75,43.6
2517,43.6
2517.25,43.6
2517.5,43.6
2517.75,43.6
2518,43.6
2518.25,43.6
2518.5,43.6
2518.75,43.6
2519,43.6
2519.25,43.6
2519.5,43.6
2519.75,43.6
2520,43.6
2520.25,43.6
2520.5,43.6
2520.75,43.6
2521,43.6
2521.25,43.6
2521.5,43.6
2521.75,43.6
2522,43.6
2522.25,43.6
2522.5,43.6
2522.75,43.6
2523,43.6
2523.25,43.6
2523.5,43.6
2523.75,43.6
2524,43.6
2524.25,43.6
2524.5,43.6
2524.75,43.5794549190015
2525,43.5544644642825
2525.25,43.5294740095635
2525.5,43.5044835548445
2525.75,43.4794931001255
2526,43.4545026454065
2526.25,43.4295121906875
2526.5,43.4045217359685
2526.75,43.3795312812494
2527,43.3545408265304
2527.25,43.3295503718114
2527.5,43.3045599170924
2527.75,43.2795694623734
2528,43.2545790076544
2528.25,43.2295885529354
2528.5,43.2045980982164
2528.75,43.1796076434974
2529,43.1546171887784
2529.25,43.1296267340594
2529.5,43.1046362793404
2529.75,42.9778749477282
2530,42.8279322194142
2530.25,42.6779894911002
2530.5,42.5280467627862
2530.75,42.3781040344722
2531,42.2281613061582
2531.25,42.0782185778439
2531.5,41.9282758495299
2531.75,41.7783331212159
2532,41.6283903929019
2532.25,41.4784476645879
2532.5,41.3285049362739
2532.75,41.1785622079599
2533,41.0286194796459
2533.25,40.8786767513317
2533.5,40.7287340230177
2533.75,40.5787912947037
2534,40.4288485663897
2534.25,40.2789058380757
2534.5,40.1289631097617
2534.75,40.132261231614
2535,40.1722459591644
2535.25,40.2122306867148
2535.5,40.2522154142652
2535.75,40.2922001418156
2536,40.332184869366
2536.25,40.3721695969164
2536.5,40.4121543244668
2536.75,40.4521390520172
2537,40.4921237795676
2537.25,40.532108507118
2537.5,40.5720932346684
2537.75,40.6120779622189
2538,40.6520626897693
2538.25,40.6920474173197
2538.5,40.7320321448701
2538.75,40.7720168724205
2539,40.8120015999709
2539.25,40.8519863275213
2539.5,40.8919710550717
2539.75,40.7681823966838
2540,40.6032453955381
2540.25,40.4383083943927
2540.5,40.2733713932473
2540.75,40.1084343921019
2541,39.9434973909565
2541.25,39.7785603898111
2541.5,39.6136233886657
2541.75,39.4486863875203
2542,39.2837493863746
2542.25,39.1188123852292
2542.5,38.9538753840839
2542.75,38.7889383829384
2543,38.6240013817931
2543.25,38.4590643806477
2543.5,38.2941273795023
2543.75,38.1291903783569
2544,37.9642533772115
2544.25,37.7993163760658
2544.5,37.6343793749204
2544.75,37.6
2545,37.6
2545.25,37.6
2545.5,37.6
2545.75,37.6
2546,37.6
2546.25,37.6
2546.5,37.6
2546.75,37.6
2547,37.6
2547.25,37.6
2547.5,37.6
2547.75,37.6
2548,37.6
2548.25,37.6
2548.5,37.6
2548.75,37.6
2549,37.6
2549.25,37.6
2549.5,37.6
2549.75,37.721461427974
2550,37.8764022472318
2550.25,38.0313430664896
2550.5,38.1862838857474
2550.75,38.3412247050055
2551,38.4961655242633
2551.25,38.6511063435211
2551.5,38.8060471627789
2551.75,38.9609879820367
2552,39.1159288012945
2552.25,39.2708696205523
2552.5,39.4258104398101
2552.75,39.5807512590679
2553,39.735692078326
2553.25,39.8906328975838
2553.5,40.0455737168416
2553.75,40.2005145360994
2554,40.3554553553572
2554.25,40.510396174615
2554.5,40.6653369938728
2554.75,40.7504390829257
2555,40.8154142651951
2555.25,40.8803894474646
2555.5,40.945364629734
2555.75,41.0103398120034
2556,41.0753149942728
2556.25,41.1402901765422
2556.5,41.2052653588116
2556.75,41.270240541081
2557,41.3352157233504
2557.25,41.40019090562
2557.5,41.4651660878894
2557.75,41.5301412701588
2558,41.5951164524282
2558.25,41.6600916346976
2558.5,41.725066816967
2558.75,41.7900419992364
2559,41.8550171815058
2559.25,41.9199923637752
2559.5,41.9849675460447
2559.75,41.8271213250667
2560,41.6022072325957
2560.25,41.3772931401247
2560.5,41.1523790476537
2560.75,40.9274649551827
2561,40.7025508627117
2561.25,40.4776367702407
2561.5,40.2527226777697
2561.75,40.0278085852983
2562,39.8028944928273
2562.25,39.5779804003563
2562.5,39.3530663078853
2562.75,39.1281522154143
2563,38.9032381229433
2563.25,38.6783240304723
2563.5,38.4534099380013
2563.75,38.2284958455303
2564,38.0035817530589
2564.25,37.7786676605879
2564.5,37.5537535681169
2564.75,37.6217141506518
2565,37.7816530608534
2565.25,37.941591971055
2565.5,38.1015308812566
2565.75,38.2614697914582
2566,38.4214087016601
2566.25,38.5813476118617
2566.5,38.7412865220633
2566.75,38.9012254322649
2567,39.0611643424665
2567.25,39.2211032526681
2567.5,39.3810421628697
2567.75,39.5409810730713
2568,39.7009199832729
2568.25,39.8608588934748
2568.5,40.0207978036764
2568.75,40.180736713878
2569,40.3406756240796
2569.25,40.5006145342812
2569.5,40.6605534444828
2569.75,40.6284576644061
2570,40.5334939364739
2570.25,40.4385302085417
2570.5,40.3435664806094
2570.75,40.2486027526772
2571,40.153639024745
2571.25,40.0586752968128
2571.5,39.9637115688806
2571.75,39.8687478409484
2572,39.7737841130162
2572.25,39.678820385084
2572.5,39.5838566571516
2572.75,39.4888929292194
2573,39.3939292012872
2573.25,39.298965473355
2573.5,39.2040017454228
2573.75,39.1090380174906
2574,39.0140742895584
2574.25,38.9191105616262
2574.5,38.824146833694
2574.75,38.8
2575,38.8
2575.25,38.8
2575.5,38.8
2575.75,38.8
2576,38.8
2576.25,38.8
2576.5,38.8
2576.75,38.8
2577,38.8
2577.25,38.8
2577.5,38.8
2577.75,38.8
2578,38.8
2578.25,38.8
2578.5,38.8
2578.75,38.8
2579,38.8
2579.25,38.8
2579.5,38.8
2579.75,38.8590243813749
2580,38.9389938364757
2580.25,39.0189632915765
2580.5,39.0989327466773
2580.75,39.1789022017781
2581,39.2588716568789
2581.25,39.3388411119799
2581.5,39.4188105670807
2581.75,39.4987800221815
2582,39.5787494772823
2582.25,39.6587189323831
2582.5,39.7386883874839
2582.75,39.8186578425846
2583,39.8986272976855
2583.25,39.9785967527863
2583.5,40.0585662078872
2583.75,40.138535662988
2584,40.2185051180888
2584.25,40.2984745731896
2584.5,40.3784440282904
2584.75,40.3963491572881
2585,40.3913510663442
2585.25,40.3863529754004
2585.5,40.3813548844566
2585.75,40.3763567935128
2586,40.371358702569
2586.25,40.3663606116252
2586.5,40.3613625206814
2586.75,40.3563644297376
2587,40.3513663387938
2587.25,40.34636824785
2587.5,40.3413701569062
2587.75,40.3363720659624
2588,40.3313739750186
2588.25,40.3263758840748
2588.5,40.321377793131
2588.75,40.3163797021872
2589,40.3113816112434
2589.25,40.3063835202996
2589.5,40.3013854293558
2589.75,40.3
2590,40.3
2590.25,40.3
2590.5,40.3
2590.75,40.3
2591,40.3
2591.25,40.3
2591.5,40.3
2591.75,40.3
2592,40.3
2592.25,40.3
2592.5,40.3
2592.75,40.3
2593,40.3
2593.25,40.3
2593.5,40.3
2593.75,40.3
2594,40.3
2594.25,40.3
2594.5,40.3
2594.75,40.5680860347996
2595,40.9429428555846
2595.25,41.3177996763696
2595.5,41.6926564971546
2595.75,42.0675133179396
2596,42.4423701387246
2596.25,42.8172269595096
2596.5,43.1920837802952
2596.75,43.5669406010802
2597,43.9417974218652
2597.25,44.3166542426502
2597.5,44.6915110634352
2597.75,45.0663678842202
2598,45.4412247050052
2598.25,45.8160815257902
2598.5,46.1909383465752
2598.75,46.5657951673609
2599,46.9406519881459
2599.25,47.3155088089309
2599.5,47.6903656297159
2599.75,47.8353629934001
2600,47.8853439028381
2600.25,47.9353248122761
2600.5,47.9853057217141
2600.75,48.0352866311521
2601,48.0852675405902
2601.25,48.1352484500282
2601.5,48.1852293594662
2601.75,48.2352102689042
2602,48.2851911783422
2602.25,48.3351720877802
2602.5,48.3851529972182
2602.75,48.4351339066562
2603,48.4851148160942
2603.25,48.5350957255323
2603.5,48.5850766349703
2603.75,48.6350575444083
2604,48.6850384538463
2604.25,48.7350193632843
2604.5,48.7850002727223
2604.75,48.8314830639443
2605,48.8764658824385
2605.25,48.9214487009328
2605.5,48.9664315194269
2605.75,49.0114143379212
2606,49.0563971564154
2606.25,49.1013799749095
2606.5,49.1463627934038
2606.75,49.191345611898
2607,49.2363284303921
2607.25,49.2813112488863
2607.5,49.3262940673806
2607.75,49.3712768858748
2608,49.416259704369
2608.25,49.4612425228632
2608.5,49.5062253413574
2608.75,49.5512081598516
2609,49.5961909783458
2609.25,49.64117379684
2609.5,49.6861566153342
2609.75,49.7
2610,49.7
2610.25,49.7
2610.5,49.7
2610.75,49.7
2611,49.7
2611.25,49.7
2611.5,49.7
2611.75,49.7
2612,49.7
2612.25,49.7
2612.5,49.7
2612.75,49.7
2613,49.7
2613.25,49.7
2613.5,49.7
2613.75,49.7
2614,49.7
2614.25,49.7
2614.5,49.7
2614.75,49.3304503554479
2615,48.7906565335175
2615.25,48.2508627115871
2615.5,47.7110688896567
2615.75,47.1712750677263
2616,46.631481245796
2616.25,46.0916874238646
2616.5,45.5518936019342
2616.75,45.0120997800038
2617,44.4723059580734
2617.25,43.932512136143
2617.5,43.3927183142126
2617.75,42.8529244922822
2618,42.3131306703518
2618.25,41.7733368484214
2618.5,41.23354302649
2618.75,40.6937492045596
2619,40.1539553826292
2619.25,39.6141615606988
2619.5,39.0743677387684
2619.75,39.4447555498989
2620,40.2494481918507
2620.25,41.0541408338025
2620.5,41.8588334757543
2620.75,42.6635261177075
2621,43.4682187596593
2621.25,44.2729114016111
2621.5,45.0776040435629
2621.75,45.8822966855147
2622,46.6869893274665
2622.25,47.4916819694183
2622.5,48.2963746113701
2622.75,49.1010672533234
2623,49.9057598952752
2623.25,50.710452537227
2623.5,51.5151451791788
2623.75,52.3198378211306
2624,53.1245304630824
2624.25,53.9292231050342
2624.5,54.733915746986
2624.75,55.0635624806821
2625,55.1585262086145
2625.25,55.2534899365467
2625.5,55.3484536644789
2625.75,55.4434173924111
2626,55.5383811203433
2626.25,55.6333448482755
2626.5,55.7283085762077
2626.75,55.8232723041399
2627,55.9182360320721
2627.25,56.0131997600044
2627.5,56.1081634879366
2627.75,56.2031272158688
2628,56.298090943801
2628.25,56.3930546717332
2628.5,56.4880183996654
2628.75,56.5829821275976
2629,56.6779458555298
2629.25,56.7729095834622
2629.5,56.8678733113944
2629.75,56.9
2630,56.9
2630.25,56.9
2630.5,56.9
2630.75,56.9
2631,56.9
2631.25,56.9
2631.5,56.9
2631.75,56.9
2632,56.9
2632.25,56.9
2632.5,56.9
2632.75,56.9
2633,56.9
2633.25,56.9
2633.5,56.9
2633.75,56.9
2634,56.9
2634.25,56.9
2634.5,56.9
2634.75,56.8640406538063
2635,56.8090616534245
2635.25,56.7540826530427
2635.5,56.6991036526609
2635.75,56.6441246522791
2636,56.5891456518972
2636.25,56.5341666515154
2636.5,56.4791876511336
2636.75,56.4242086507518
2637,56.36922965037
2637.25,56.3142506499882
2637.5,56.2592716496064
2637.75,56.2042926492246
2638,56.1493136488427
2638.25,56.0943346484609
2638.5,56.0393556480791
2638.75,55.9843766476973
2639,55.9293976473155
2639.25,55.8744186469337
2639.5,55.8194396465519
2639.75,55.5253777204053
2640,55.1005399901823
2640.25,54.6757022599585
2640.5,54.2508645297356
2640.75,53.8260267995126
2641,53.4011890692896
2641.25,52.9763513390666
2641.5,52.5515136088436
2641.75,52.1266758786206
2642,51.7018381483976
2642.25,51.2770004181746
2642.5,50.8521626879508
2642.75,50.4273249577278
2643,50.0024872275048
2643.25,49.5776494972818
2643.5,49.1528117670588
2643.75,48.7279740368358
2644,48.3031363066128
2644.25,47.8782985763898
2644.5,47.4534608461668
2644.75,47.3095780076726
2645,47.324572280504
2645.25,47.3395665533354
2645.5,47.3545608261668
2645.75,47.3695550989982
2646,47.3845493718296
2646.25,47.399543644661
2646.5,47.4145379174924
2646.75,47.4295321903238
2647,47.4445264631552
2647.25,47.4595207359866
2647.5,47.474515008818
2647.75,47.4895092816494
2648,47.5045035544808
2648.25,47.5194978273122
2648.5,47.5344921001436
2648.75,47.549486372975
2649,47.5644806458065
2649.25,47.5794749186379
2649.5,47.5944691914693
2649.75,47.4864384283922
2650,47.3065071544154
2650.25,47.1265758804386
2650.5,46.9466446064618
2650.75,46.766713332485
2651,46.5867820585082
2651.25,46.4068507845311
2651.5,46.2269195105543
2651.75,46.0469882365775
2652,45.8670569626007
2652.25,45.6871256886239
2652.5,45.5071944146471
2652.75,45.3272631406703
2653,45.1473318666935
2653.25,44.9674005927163
2653.5,44.7874693187395
2653.75,44.6075380447627
2654,44.4276067707859
2654.25,44.2476754968091
2654.5,44.0677442228323
2654.75,43.9626043162852
2655,43.9026272249596
2655.25,43.842650133634
2655.5,43.7826730423083
2655.75,43.7226959509827
2656,43.6627188596571
2656.25,43.6027417683315
2656.5,43.5427646770059
2656.75,43.4827875856803
2657,43.4228104943547
2657.25,43.3628334030291
2657.5,43.3028563117035
2657.75,43.2428792203778
2658,43.1829021290522
2658.25,43.1229250377266
2658.5,43.062947946401
2658.75,43.0029708550754
2659,42.9429937637498
2659.25,42.8830166724242
2659.5,42.8230395810986
2659.75,42.824625006818
2660,42.8646097343685
2660.25,42.9045944619189
2660.5,42.9445791894693
2660.75,42.9845639170197
2661,43.0245486445701
2661.25,43.0645333721205
2661.5,43.1045180996709
2661.75,43.1445028272213
2662,43.1844875547718
2662.25,43.2244722823222
2662.5,43.2644570098726
2662.75,43.304441737423
2663,43.3444264649734
2663.25,43.3844111925238
2663.5,43.4243959200742
2663.75,43.4643806476246
2664,43.504365375175
2664.25,43.5443501027254
2664.5,43.5843348302758
2664.75,43.6182396683697
2665,43.6482282140325
2665.25,43.6782167596953
2665.5,43.7082053053581
2665.75,43.7381938510209
2666,43.7681823966837
2666.25,43.7981709423465
2666.5,43.8281594880093
2666.75,43.8581480336721
2667,43.8881365793349
2667.25,43.9181251249977
2667.5,43.9481136706605
2667.75,43.9781022163233
2668,44.0080907619861
2668.25,44.0380793076489
2668.5,44.0680678533117
2668.75,44.0980563989746
2669,44.1280449446374
2669.25,44.1580334903002
2669.5,44.188022035963
2669.75,44.3350793621934
2670,44.5599934546644
2670.25,44.7849075471354
2670.5,45.0098216396064
2670.75,45.2347357320778
2671,45.4596498245488
2671.25,45.6845639170198
2671.5,45.9094780094908
2671.75,46.1343921019618
2672,46.3593061944328
2672.25,46.5842202869038
2672.5,46.8091343793748
2672.75,47.0340484718458
2673,47.2589625643172
2673.25,47.4838766567882
2673.5,47.7087907492592
2673.75,47.9337048417302
2674,48.1586189342012
2674.25,48.3835330266722
2674.5,48.6084471191432
2674.75,48.6851820875984
2675,48.6601916328794
2675.25,48.6352011781604
2675.5,48.6102107234414
2675.75,48.5852202687224
2676,48.5602298140034
2676.25,48.5352393592844
2676.5,48.5102489045654
2676.75,48.4852584498464
2677,48.4602679951274
2677.25,48.4352775404083
2677.5,48.4102870856893
2677.75,48.3852966309703
2678,48.3603061762513
2678.25,48.3353157215323
2678.5,48.3103252668133
2678.75,48.2853348120943
2679,48.2603443573753
2679.25,48.2353539026563
2679.5,48.2103634479373
2679.75,48.2
2680,48.2
2680.25,48.2
2680.5,48.2
2680.75,48.2
2681,48.2
2681.25,48.2
2681.5,48.2
2681.75,48.2
2682,48.2
2682.25,48.2
2682.5,48.2
2682.75,48.2
2683,48.2
2683.25,48.2
2683.5,48.2
2683.75,48.2
2684,48.2
2684.25,48.2
2684.5,48.2
2684.75,48.2
2685,48.2
2685.25,48.2
2685.5,48.2
2685.75,48.2
2686,48.2
2686.25,48.2
2686.5,48.2
2686.75,48.2
2687,48.2
2687.25,48.2
2687.5,48.2
2687.75,48.2
2688,48.2
2688.25,48.2
2688.5,48.2
2688.75,48.2
2689,48.2
2689.25,48.2
2689.5,48.2
2689.75,48.2
2690,48.2
2690.25,48.2
2690.5,48.2
2690.75,48.2
2691,48.2
2691.25,48.2
2691.5,48.2
2691.75,48.2
2692,48.2
2692.25,48.2
2692.5,48.2
2692.75,48.2
2693,48.2
2693.25,48.2
2693.5,48.2
2693.75,48.2
2694,48.2
2694.25,48.2
2694.5,48.2
2694.75,48.1437828403119
2695,48.0438210214359
2695.25,47.9438592025599
2695.5,47.8438973836839
2695.75,47.7439355648079
2696,47.6439737459319
2696.25,47.5440119270559
2696.5,47.4440501081799
2696.75,47.3440882893039
2697,47.2441264704277
2697.25,47.1441646515517
2697.5,47.0442028326757
2697.75,46.9442410137997
2698,46.8442791949237
2698.25,46.7443173760477
2698.5,46.6443555571717
2698.75,46.5443937382957
2699,46.4444319194197
2699.25,46.3444701005436
2699.5,46.2445082816675
2699.75,46.127910401629
2700,45.9979600370902
2700.25,45.8680096725514
2700.5,45.7380593080126
2700.75,45.6081089434738
2701,45.478158578935
2701.25,45.348208214396
2701.5,45.2182578498572
2701.75,45.0883074853184
2702,44.9583571207796
2702.25,44.8284067562408
2702.5,44.698456391702
2702.75,44.5685060271632
2703,44.4385556626244
2703.25,44.3086052980856
2703.5,44.1786549335466
2703.75,44.0487045690078
2704,43.918754204469
2704.25,43.7888038399302
2704.5,43.6588534753914
2704.75,43.6
2705,43.6
2705.25,43.6
2705.5,43.6
2705.75,43.6
2706,43.6
2706.25,43.6
2706.5,43.6
2706.75,43.6
2707,43.6
2707.25,43.6
2707.5,43.6
2707.75,43.6
2708,43.6
2708.25,43.6
2708.5,43.6
2708.75,43.6
2709,43.6
2709.25,43.6
2709.5,43.6
2709.75,43.6
2710,43.6
2710.25,43.6
2710.5,43.6
2710.75,43.6
2711,43.6
2711.25,43.6
2711.5,43.6
2711.75,43.6
2712,43.6
2712.25,43.6
2712.5,43.6
2712.75,43.6
2713,43.6
2713.25,43.6
2713.5,43.6
2713.75,43.6
2714,43.6
2714.25,43.6
2714.5,43.6
2714.75,43.6451882693042
2715,43.7301558153488
2715.25,43.8151233613934
2715.5,43.900090907438
2715.75,43.9850584534826
2716,44.0700259995272
2716.25,44.1549935455718
2716.5,44.2399610916164
2716.75,44.3249286376612
2717,44.4098961837058
2717.25,44.4948637297504
2717.5,44.579831275795
2717.75,44.6647988218396
2718,44.7497663678842
2718.25,44.8347339139288
2718.5,44.9197014599734
2718.75,45.0046690060181
2719,45.0896365520627
2719.25,45.1746040981073
2719.5,45.2595716441519
2719.75,45.2607007145325
2720,45.1857293503755
2720.25,45.1107579862185
2720.5,45.0357866220615
2720.75,44.9608152579045
2721,44.8858438937473
2721.25,44.8108725295903
2721.5,44.7359011654333
2721.75,44.6609298012763
2722,44.5859584371193
2722.25,44.5109870729623
2722.5,44.4360157088053
2722.75,44.3610443446483
2723,44.2860729804913
2723.25,44.2111016163342
2723.5,44.1361302521772
2723.75,44.0611588880202
2724,43.9861875238632
2724.25,43.9112161597062
2724.5,43.8362447955492
2724.75,43.8
2725,43.8
2725.25,43.8
2725.5,43.8
2725.75,43.8
2726,43.8
2726.25,43.8
2726.5,43.8
2726.75,43.8
2727,43.8
2727.25,43.8
2727.5,43.8
2727.75,43.8
2728,43.8
2728.25,43.8
2728.5,43.8
2728.75,43.8
2729,43.8
2729.25,43.8
2729.5,43.8
2729.75,43.7160615261539
2730,43.5511245250085
2730.25,43.3861875238631
2730.5,43.2212505227177
2730.75,43.0563135215723
2731,42.8913765204269
2731.25,42.7264395192815
2731.5,42.5615025181361
2731.75,42.3965655169907
2732,42.231628515845
2732.25,42.0666915146996
2732.5,41.9017545135542
2732.75,41.7368175124088
2733,41.5718805112634
2733.25,41.406943510118
2733.5,41.2420065089726
2733.75,41.0770695078272
2734,40.9121325066815
2734.25,40.7471955055361
2734.5,40.5822585043908
2734.75,40.4924837730223
2735,40.4774895001909
2735.25,40.4624952273595
2735.5,40.4475009545281
2735.75,40.4325066816967
2736,40.4175124088653
2736.25,40.4025181360339
2736.5,40.3875238632025
2736.75,40.3725295903711
2737,40.3575353175397
2737.25,40.3425410447083
2737.5,40.3275467718769
2737.75,40.3125524990455
2738,40.2975582262141
2738.25,40.2825639533827
2738.5,40.2675696805513
2738.75,40.2525754077199
2739,40.2375811348885
2739.25,40.2225868620571
2739.5,40.2075925892257
2739.75,40.3603698114579
2740,40.6852457228049
2740.25,41.0101216341519
2740.5,41.3349975454989
2740.75,41.6598734568465
2741,41.9847493681935
2741.25,42.3096252795405
2741.5,42.6345011908875
2741.75,42.9593771022345
2742,43.2842530135815
2742.25,43.6091289249285
2742.5,43.9340048362755
2742.75,44.2588807476231
2743,44.5837566589701
2743.25,44.9086325703171
2743.5,45.2335084816641
2743.75,45.5583843930111
2744,45.8832603043581
2744.25,46.2081362157051
2744.5,46.5330121270521
2744.75,46.6587062053418
2745,46.573738659297
2745.25,46.4887711132524
2745.5,46.4038035672078
2745.75,46.3188360211632
2746,46.2338684751186
2746.25,46.148900929074
2746.5,46.0639333830294
2746.75,45.9789658369848
2747,45.8939982909402
2747.25,45.8090307448955
2747.5,45.7240631988509
2747.75,45.6390956528063
2748,45.5541281067617
2748.25,45.4691605607171
2748.5,45.3841930146725
2748.75,45.2992254686279
2749,45.2142579225833
2749.25,45.1292903765387
2749.5,45.0443228304939
2749.75,44.9880456718969
2750,44.9630552171779
2750.25,44.9380647624589
2750.5,44.9130743077399
2750.75,44.8880838530209
2751,44.8630933983019
2751.25,44.8381029435829
2751.5,44.8131124888638
2751.75,44.7881220341448
2752,44.7631315794258
2752.25,44.7381411247068
2752.5,44.7131506699878
2752.75,44.6881602152688
2753,44.6631697605498
2753.25,44.6381793058308
2753.5,44.6131888511118
2753.75,44.5881983963928
2754,44.5632079416738
2754.25,44.5382174869548
2754.5,44.5132270322358
2754.75,44.4952946310067
2755,44.4852984491191
2755.25,44.4753022672315
2755.5,44.4653060853439
2755.75,44.4553099034563
2756,44.4453137215687
2756.25,44.4353175396811
2756.5,44.4253213577935
2756.75,44.4153251759059
2757,44.4053289940183
2757.25,44.3953328121307
2757.5,44.3853366302431
2757.75,44.3753404483555
2758,44.3653442664679
2758.25,44.3553480845803
2758.5,44.3453519026927
2758.75,44.3353557208051
2759,44.3253595389175
2759.25,44.3153633570299
2759.5,44.3053671751423
2759.75,44.2537099325467
2760,44.1537481136707
2760.25,44.0537862947945
2760.5,43.9538244759186
2760.75,43.8538626570426
2761,43.7539008381666
2761.25,43.6539390192906
2761.5,43.5539772004146
2761.75,43.4540153815386
2762,43.3540535626626
2762.25,43.2540917437866
2762.5,43.1541299249104
2762.75,43.0541681060344
2763,42.9542062871584
2763.25,42.8542444682824
2763.5,42.7542826494064
2763.75,42.6543208305304
2764,42.5543590116544
2764.25,42.4543971927784
2764.5,42.3544353739024
2764.75,42.2977236777513
2765,42.2927255868075
2765.25,42.2877274958637
2765.5,42.2827294049199
2765.75,42.2777313139761
2766,42.2727332230323
2766.25,42.2677351320885
2766.5,42.2627370411447
2766.75,42.2577389502009
2767,42.2527408592571
2767.25,42.2477427683133
2767.5,42.2427446773695
2767.75,42.2377465864257
2768,42.2327484954819
2768.25,42.2277504045381
2768.5,42.2227523135943
2768.75,42.2177542226505
2769,42.2127561317067
2769.25,42.2077580407629
2769.5,42.2027599498191
2769.75,42.253715386993
2770,42.3736695696442
2770.25,42.4936237522954
2770.5,42.6135779349466
2770.75,42.7335321175978
2771,42.853486300249
2771.25,42.9734404829004
2771.5,43.0933946655516
2771.75,43.2133488482028
2772,43.333303030854
2772.25,43.4532572135052
2772.5,43.5732113961564
2772.75,43.6931655788076
2773,43.8131197614588
2773.25,43.93307394411
2773.5,44.0530281267614
2773.75,44.1729823094126
2774,44.2929364920638
2774.25,44.412890674715
2774.5,44.5328448573662
2774.75,44.4944019199652
2775,44.2544935546628
2775.25,44.0145851893604
2775.5,43.7746768240575
2775.75,43.5347684587551
2776,43.2948600934527
2776.25,43.0549517281503
2776.5,42.8150433628479
2776.75,42.5751349975455
2777,42.3352266322431
2777.25,42.0953182669407
2777.5,41.8554099016383
2777.75,41.6155015363355
2778,41.3755931710331
2778.25,41.1356848057307
2778.5,40.8957764404283
2778.75,40.6558680751259
2779,40.4159597098235
2779.25,40.1760513445211
2779.5,39.9361429792187
2779.75,39.7675733168488
2780,39.6926019526917
2780.25,39.6176305885347
2780.5,39.5426592243777
2780.75,39.4676878602207
2781,39.3927164960637
2781.25,39.3177451319067
2781.5,39.2427737677497
2781.75,39.1678024035927
2782,39.0928310394356
2782.25,39.0178596752786
2782.5,38.9428883111216
2782.75,38.8679169469646
2783,38.7929455828076
2783.25,38.7179742186506
2783.5,38.6430028544936
2783.75,38.5680314903366
2784,38.4930601261796
2784.25,38.4180887620224
2784.5,38.3431173978654
2784.75,38.2851348157306
2785,38.250148179124
2785.25,38.2151615425174
2785.5,38.1801749059108
2785.75,38.1451882693042
2786,38.1102016326976
2786.25,38.075214996091
2786.5,38.0402283594843
2786.75,38.0052417228777
2787,37.9702550862711
2787.25,37.9352684496645
2787.5,37.9002818130579
2787.75,37.8652951764513
2788,37.8303085398447
2788.25,37.7953219032381
2788.5,37.7603352666315
2788.75,37.7253486300249
2789,37.6903619934183
2789.25,37.6553753568117
2789.5,37.6203887202051
2789.75,37.6271104161742
2790,37.6920855984436
2790.25,37.757060780713
2790.5,37.8220359629824
2790.75,37.887011145252
2791,37.9519863275214
2791.25,38.0169615097908
2791.5,38.0819366920602
2791.75,38.1469118743296
2792,38.211887056599
2792.25,38.2768622388684
2792.5,38.3418374211378
2792.75,38.4068126034072
2793,38.4717877856767
2793.25,38.5367629679461
2793.5,38.6017381502155
2793.75,38.6667133324849
2794,38.7316885147543
2794.25,38.7966636970237
2794.5,38.8616388792931
2794.75,38.9409447100961
2795,39.0409065289721
2795.25,39.1408683478483
2795.5,39.2408301667243
2795.75,39.3407919856003
2796,39.4407538044763
2796.25,39.5407156233523
2796.5,39.6406774422283
2796.75,39.7406392611043
2797,39.8406010799803
2797.25,39.9405628988563
2797.5,40.0405247177325
2797.75,40.1404865366085
2798,40.2404483554845
2798.25,40.3404101743605
2798.5,40.4403719932365
2798.75,40.5403338121125
2799,40.6402956309885
2799.25,40.7402574498645
2799.5,40.8402192687407
2799.75,40.9180814894275
2800,40.9630643079217
2800.25,41.0080471264159
2800.5,41.0530299449101
2800.75,41.0980127634043
2801,41.1429955818985
2801.25,41.1879784003927
2801.5,41.2329612188869
2801.75,41.2779440373812
2802,41.3229268558754
2802.25,41.3679096743696
2802.5,41.4128924928638
2802.75,41.457875311358
2803,41.5028581298522
2803.25,41.5478409483464
2803.5,41.5928237668406
2803.75,41.6378065853348
2804,41.6827894038291
2804.25,41.7277722223233
2804.5,41.7727550408175
2804.75,41.7960582534863
2805,41.7860620715987
2805.25,41.7760658897111
2805.5,41.7660697078235
2805.75,41.7560735259359
2806,41.7460773440483
2806.25,41.7360811621607
2806.5,41.7260849802731
2806.75,41.7160887983855
2807,41.7060926164979
2807.25,41.6960964346103
2807.5,41.6861002527227
2807.75,41.6761040708351
2808,41.6661078889475
2808.25,41.6561117070599
2808.5,41.6461155251723
2808.75,41.6361193432847
2809,41.6261231613971
2809.25,41.6161269795095
2809.5,41.6061307976219
2809.75,41.6077307685315
2810,41.6277231323067
2810.25,41.6477154960819
2810.5,41.6677078598571
2810.75,41.6877002236323
2811,41.7076925874075
2811.25,41.7276849511827
2811.5,41.7476773149579
2811.75,41.7676696787331
2812,41.7876620425083
2812.25,41.8076544062835
2812.5,41.8276467700587
2812.75,41.8476391338339
2813,41.8676314976091
2813.25,41.8876238613843
2813.5,41.9076162251595
2813.75,41.9276085889347
2814,41.9476009527099
2814.25,41.9675933164851
2814.5,41.9875856802603
2814.75,41.9014854275374
2815,41.6415846984598
2815.25,41.3816839693822
2815.5,41.1217832403047
2815.75,40.8618825112271
2816,40.6019817821495
2816.25,40.3420810530719
2816.5,40.0821803239943
2816.75,39.8222795949167
2817,39.5623788658386
2817.25,39.302478136761
2817.5,39.0425774076834
2817.75,38.7826766786058
2818,38.5227759495282
2818.25,38.2628752204506
2818.5,38.002974491373
2818.75,37.7430737622954
2819,37.4831730332178
2819.25,37.2232723041397
2819.5,36.9633715750621
2819.75,36.7610170724168
2820,36.656057162597
2820.25,36.5510972527772
2820.5,36.4461373429574
2820.75,36.3411774331376
2821,36.2362175233178
2821.25,36.131257613498
2821.5,36.026297703678
2821.75,35.9213377938582
2822,35.8163778840384
2822.25,35.7114179742186
2822.5,35.6064580643988
2822.75,35.501498154579
2823,35.3965382447592
2823.25,35.2915783349394
2823.5,35.1866184251194
2823.75,35.0816585152997
2824,34.9766986054799
2824.25,34.8717386956601
2824.5,34.7667787858403
2824.75,34.6963637024781
2825,34.6863675205905
2825.25,34.6763713387029
2825.5,34.6663751568153
2825.75,34.6563789749277
2826,34.6463827930401
2826.25,34.6363866111525
2826.5,34.6263904292649
2826.75,34.6163942473773
2827,34.6063980654897
2827.25,34.5964018836021
2827.5,34.5864057017145
2827.75,34.5764095198269
2828,34.5664133379393
2828.25,34.5564171560517
2828.5,34.5464209741641
2828.75,34.5364247922765
2829,34.5264286103889
2829.25,34.5164324285013
2829.5,34.5064362466137
2829.75,34.4822003236305
2830,34.4322194141924
2830.25,34.3822385047544
2830.5,34.3322575953164
2830.75,34.2822766858784
2831,34.2322957764404
2831.25,34.1823148670024
2831.5,34.1323339575644
2831.75,34.0823530481264
2832,34.0323721386884
2832.25,33.9823912292503
2832.5,33.9324103198123
2832.75,33.8824294103743
2833,33.8324485009363
2833.25,33.7824675914983
2833.5,33.7324866820603
2833.75,33.6825057726223
2834,33.6325248631843
2834.25,33.5825439537463
2834.5,33.5325630443082
2834.75,33.5174178651298
2835,33.5673987745678
2835.25,33.6173796840058
2835.5,33.6673605934438
2835.75,33.7173415028818
2836,33.7673224123198
2836.25,33.8173033217578
2836.5,33.8672842311958
2836.75,33.9172651406338
2837,33.9672460500718
2837.25,34.0172269595098
2837.5,34.0672078689478
2837.75,34.1171887783858
2838,34.1671696878238
2838.25,34.2171505972618
2838.5,34.2671315066998
2838.75,34.3171124161379
2839,34.3670933255759
2839.25,34.4170742350139
2839.5,34.4670551444519
2839.75,34.5528117670588
2840,34.7077525863166
2840.25,34.8626934055744
2840.5,35.0176342248322
2840.75,35.17257504409
2841,35.3275158633481
2841.25,35.4824566826059
2841.5,35.6373975018637
2841.75,35.7923383211215
2842,35.9472791403793
2842.25,36.1022199596371
2842.5,36.2571607788949
2842.75,36.4121015981527
2843,36.5670424174105
2843.25,36.7219832366685
2843.5,36.8769240559263
2843.75,37.0318648751841
2844,37.1868056944419
2844.25,37.3417465136997
2844.5,37.4966873329575
2844.75,37.6266467882402
2845,37.706616243341
2845.25,37.7865856984418
2845.5,37.8665551535427
2845.75,37.9465246086435
2846,38.0264940637443
2846.25,38.1064635188451
2846.5,38.1864329739459
2846.75,38.2664024290467
2847,38.3463718841475
2847.25,38.4263413392483
2847.5,38.5063107943493
2847.75,38.5862802494501
2848,38.6662497045509
2848.25,38.7462191596517
2848.5,38.8261886147525
2848.75,38.9061580698533
2849,38.9861275249541
2849.25,39.0660969800549
2849.5,39.1460664351557
2849.75,39.2
2850,39.2
2850.25,39.2
2850.5,39.2
2850.75,39.2
2851,39.2
2851.25,39.2
2851.5,39.2
2851.75,39.2
2852,39.2
2852.25,39.2
2852.5,39.2
2852.75,39.2
2853,39.2
2853.25,39.2
2853.5,39.2
2853.75,39.2
2854,39.2
2854.25,39.2
2854.5,39.2
2854.75,39.2
2855,39.2
2855.25,39.2
2855.5,39.2
2855.75,39.2
2856,39.2
2856.25,39.2
2856.5,39.2
2856.75,39.2
2857,39.2
2857.25,39.2
2857.5,39.2
2857.75,39.2
2858,39.2
2858.25,39.2
2858.5,39.2
2858.75,39.2
2859,39.2
2859.25,39.2
2859.5,39.2
2859.75,39.2
2860,39.2
2860.25,39.2
2860.5,39.2
2860.75,39.2
2861,39.2
2861.25,39.2
2861.5,39.2
2861.75,39.2
2862,39.2
2862.25,39.2
2862.5,39.2
2862.75,39.2
2863,39.2
2863.25,39.2
2863.5,39.2
2863.75,39.2
2864,39.2
2864.25,39.2
2864.5,39.2
2864.75,39.3119397829128
2865,39.6817985127546
2865.25,40.0516572425958
2865.5,40.421515972437
2865.75,40.7913747022782
2866,41.1612334321194
2866.25,41.5310921619606
2866.5,41.9009508918018
2866.75,42.270809621643
2867,42.6406683514842
2867.25,43.0105270813261
2867.5,43.3803858111673
2867.75,43.7502445410085
2868,44.1201032708497
2868.25,44.4899620006909
2868.5,44.8598207305321
2868.75,45.2296794603733
2869,45.5995381902145
2869.25,45.9693969200557
2869.5,46.3392556498976
2869.75,46.7223850475448
2870,47.1372265958802
2870.25,47.5520681442156
2870.5,47.966909692551
2870.75,48.3817512408864
2871,48.7965927892218
2871.25,49.2114343375572
2871.5,49.6262758858934
2871.75,50.0411174342288
2872,50.4559589825642
2872.25,50.8708005308996
2872.5,51.2856420792349
2872.75,51.7004836275704
2873,52.1153251759057
2873.25,52.5301667242411
2873.5,52.9450082725765
2873.75,53.3598498209127
2874,53.7746913692481
2874.25,54.1895329175835
2874.5,54.6043744659189
2874.75,54.8310557989855
2875,54.5911474336831
2875.25,54.3512390683807
2875.5,54.1113307030783
2875.75,53.8714223377759
2876,53.631513972473
2876.25,53.3916056071706
2876.5,53.1516972418682
2876.75,52.9117888765658
2877,52.6718805112634
2877.25,52.431972145961
2877.5,52.1920637806586
2877.75,51.9521554153562
2878,51.7122470500538
2878.25,51.472338684751
2878.5,51.2324303194486
2878.75,50.9925219541462
2879,50.7526135888438
2879.25,50.5127052235414
2879.5,50.272796858239
2879.75,50.0664442464683
2880,49.9464900638171
2880.25,49.8265358811657
2880.5,49.7065816985145
2880.75,49.5866275158633
2881,49.4666733332121
2881.25,49.3467191505609
2881.5,49.2267649679097
2881.75,49.1068107852585
2882,48.9868566026073
2882.25,48.8669024199561
2882.5,48.7469482373047
2882.75,48.6269940546535
2883,48.5070398720023
2883.25,48.3870856893511
2883.5,48.2671315066999
2883.75,48.1471773240487
2884,48.0272231413975
2884.25,47.9072689587463
2884.5,47.7873147760951
2884.75,47.7217596043709
2885,47.8017290594717
2885.25,47.8816985145725
2885.5,47.9616679696733
2885.75,48.0416374247741
2886,48.1216068798749
2886.25,48.2015763349757
2886.5,48.2815457900765
2886.75,48.3615152451774
2887,48.4414847002782
2887.25,48.521454155379
2887.5,48.6014236104798
2887.75,48.6813930655806
2888,48.7613625206814
2888.25,48.8413319757822
2888.5,48.921301430883
2888.75,49.0012708859838
2889,49.0812403410848
2889.25,49.1612097961856
2889.5,49.2411792512864
2889.75,49.2722423228668
2890,49.167282413047
2890.25,49.0623225032272
2890.5,48.9573625934074
2890.75,48.8524026835876
2891,48.7474427737678
2891.25,48.6424828639478
2891.5,48.537522954128
2891.75,48.4325630443082
2892,48.3276031344884
2892.25,48.2226432246686
2892.5,48.1176833148488
2892.75,48.0127234050291
2893,47.9077634952092
2893.25,47.8028035853894
2893.5,47.6978436755695
2893.75,47.5928837657497
2894,47.4879238559299
2894.25,47.3829639461101
2894.5,47.2780040362903
2894.75,47.2
2895,47.2
2895.25,47.2
2895.5,47.2
2895.75,47.2
2896,47.2
2896.25,47.2
2896.5,47.2
2896.75,47.2
2897,47.2
2897.25,47.2
2897.5,47.2
2897.75,47.2
2898,47.2
2898.25,47.2
2898.5,47.2
2898.75,47.2
2899,47.2
2899.25,47.2
2899.5,47.2
2899.75,47.2
2900,47.2
2900.25,47.2
2900.5,47.2
2900.75,47.2
2901,47.2
2901.25,47.2
2901.5,47.2
2901.75,47.2
2902,47.2
2902.25,47.2
2902.5,47.2
2902.75,47.2
2903,47.2
2903.25,47.2
2903.5,47.2
2903.75,47.2
2904,47.2
2904.25,47.2
2904.5,47.2
2904.75,47.1818912383411
2905,47.1069198741841
2905.25,47.0319485100271
2905.5,46.9569771458701
2905.75,46.8820057817131
2906,46.8070344175561
2906.25,46.7320630533991
2906.5,46.657091689242
2906.75,46.582120325085
2907,46.507148960928
2907.25,46.432177596771
2907.5,46.357206232614
2907.75,46.282234868457
2908,46.2072635043
2908.25,46.132292140143
2908.5,46.057320775986
2908.75,45.9823494118288
2909,45.9073780476718
2909.25,45.8324066835148
2909.5,45.7574353193578
2909.75,45.6719423283213
2910,45.5519881456701
2910.25,45.4320339630189
2910.5,45.3120797803677
2910.75,45.1921255977163
2911,45.0721714150651
2911.25,44.9522172324139
2911.5,44.8322630497627
2911.75,44.7123088671115
2912,44.5923546844603
2912.25,44.4724005018091
2912.5,44.3524463191579
2912.75,44.2324921365067
2913,44.1125379538553
2913.25,43.9925837712041
2913.5,43.8726295885529
2913.75,43.7526754059017
2914,43.6327212232505
2914.25,43.5127670405993
2914.5,43.3928128579481
2914.75,43.2773822294141
2915,43.1774204105381
2915.25,43.0774585916619
2915.5,42.9774967727859
2915.75,42.8775349539099
2916,42.7775731350339
2916.25,42.6776113161579
2916.5,42.5776494972819
2916.75,42.4776876784059
2917,42.3777258595299
2917.25,42.2777640406539
2917.5,42.1778022217777
2917.75,42.0778404029017
2918,41.9778785840257
2918.25,41.8779167651497
2918.5,41.7779549462737
2918.75,41.6779931273977
2919,41.5780313085217
2919.25,41.4780694896457
2919.5,41.3781076707695
2919.75,41.3
2920,41.3
2920.25,41.3
2920.5,41.3
2920.75,41.3
2921,41.3
2921.25,41.3
2921.5,41.3
2921.75,41.3
2922,41.3
2922.25,41.3
2922.5,41.3
2922.75,41.3
2923,41.3
2923.25,41.3
2923.5,41.3
2923.75,41.3
2924,41.3
2924.25,41.3
2924.5,41.3
2924.75,41.3
2925,41.3
2925.25,41.3
2925.5,41.3
2925.75,41.3
2926,41.3
2926.25,41.3
2926.5,41.3
2926.75,41.3
2927,41.3
2927.25,41.3
2927.5,41.3
2927.75,41.3
2928,41.3
2928.25,41.3
2928.5,41.3
2928.75,41.3
2929,41.3
2929.25,41.3
2929.5,41.3
2929.75,41.3
2930,41.3
2930.25,41.3
2930.5,41.3
2930.75,41.3
2931,41.3
2931.25,41.3
2931.5,41.3
2931.75,41.3
2932,41.3
2932.25,41.3
2932.5,41.3
2932.75,41.3
2933,41.3
2933.25,41.3
2933.5,41.3
2933.75,41.3
2934,41.3
2934.25,41.3
2934.5,41.3
2934.75,41.2921746877329
2935,41.2521899601825
2935.25,41.2122052326321
2935.5,41.1722205050817
2935.75,41.1322357775313
2936,41.0922510499809
2936.25,41.0522663224305
2936.5,41.0122815948801
2936.75,40.9722968673297
2937,40.9323121397792
2937.25,40.8923274122288
2937.5,40.8523426846784
2937.75,40.812357957128
2938,40.7723732295776
2938.25,40.7323885020272
2938.5,40.6924037744768
2938.75,40.6524190469264
2939,40.612434319376
2939.25,40.5724495918256
2939.5,40.5324648642752
2939.75,40.1193069216915
2940,38.0950800894525
2940.25,36.0708532572136
2940.5,34.0466264249746
2940.75,32.0223995927356
2941,29.9981727604966
2941.25,27.9739459282576
2941.5,25.9497190960149
2941.75,23.9254922637759
2942,21.9012654315369
2942.25,19.8770385992979
2942.5,17.8528117670589
2942.75,15.8285849348199
2943,13.804358102581
2943.25,11.780131270342
2943.5,9.75590443809929
2943.75,7.73167760586029
2944,5.7074507736213
2944.25,3.68322394138231
2944.5,1.65899710914332
2944.75,0
2945,0
2945.25,0
2945.5,0
2945.75,0
2946,0
2946.25,0
2946.5,0
2946.75,0
2947,0
2947.25,0
2947.5,0
2947.75,0
2948,0
2948.25,0
2948.5,0
2948.75,0
2949,0
2949.25,0
2949.5,0
2949.75,0
2950,0
2950.25,0
2950.5,0
2950.75,0
2951,0
2951.25,0
2951.5,0
2951.75,0
2952,0
2952.25,0
2952.5,0
2952.75,0
2953,0
2953.25,0
2953.5,0
2953.75,0
2954,0
2954.25,0
2954.5,0
2954.75,0
2955,0
2955.25,0
2955.5,0
2955.75,0
2956,0
2956.25,0
2956.5,0
2956.75,0
2957,0
2957.25,0
2957.5,0
2957.75,0
2958,0
2958.25,0
2958.5,0
2958.75,0
2959,0
2959.25,0
2959.5,0
2959.75,0
2960,0
2960.25,0
2960.5,0
2960.75,0
2961,0
2961.25,0
2961.5,0
2961.75,0
2962,0
2962.25,0
2962.5,0
2962.75,0
2963,0
2963.25,0
2963.5,0
2963.75,0
2964,0
2964.25,0
2964.5,0
2964.75,0
2965,0
2965.25,0
2965.5,0
2965.75,0
2966,0
2966.25,0
2966.5,0
2966.75,0
2967,0
2967.25,0
2967.5,0
2967.75,0
2968,0
2968.25,0
2968.5,0
2968.75,0
2969,0
2969.25,0
2969.5,0
2969.75,0
2970,0
2970.25,0
2970.5,0
2970.75,0
2971,0
2971.25,0
2971.5,0
2971.75,0
2972,0
2972.25,0
2972.5,0
2972.75,0
2973,0
2973.25,0
2973.5,0
2973.75,0
2974,0
2974.25,0
2974.5,0
2974.75,0
2975,0
2975.25,0
2975.5,0
2975.75,0
2976,0
2976.25,0
2976.5,0
2976.75,0
2977,0
2977.25,0
2977.5,0
2977.75,0
2978,0
2978.25,0
2978.5,0
2978.75,0
2979,0
2979.25,0
2979.5,0
2979.75,0
2980,0
2980.25,0
2980.5,0
2980.75,0
2981,0
2981.25,0
2981.5,0
2981.75,0
2982,0
2982.25,0
2982.5,0
2982.75,0
2983,0
2983.25,0
2983.5,0
2983.75,0
2984,0
2984.25,0
2984.5,0
2984.75,0
2985,0
2985.25,0
2985.5,0
2985.75,0
2986,0
2986.25,0
2986.5,0
2986.75,0
2987,0
2987.25,0
2987.5,0
2987.75,0
2988,0
2988.25,0
2988.5,0
2988.75,0
2989,0
2989.25,0
2989.5,0
2989.75,0
2990,0
2990.25,0
2990.5,0
2990.75,0
2991,0
2991.25,0
2991.5,0
2991.75,0
2992,0
2992.25,0
2992.5,0
2992.75,0
2993,0
2993.25,0
2993.5,0
2993.75,0
2994,0
2994.25,0
2994.5,0
2994.75,0
2995,0
2995.25,0
2995.5,0
2995.75,0
2996,0
2996.25,0
2996.5,0
2996.75,0
2997,0
2997.25,0
2997.5,0
2997.75,0
2998,0
2998.25,0
2998.5,0
2998.75,0
2999,0
2999.25,0
2999.5,0
2999.75,0
3000,0
3000.25,0
3000.5,0
3000.75,0
3001,0
3001.25,0
3001.5,0
3001.75,0
3002,0
3002.25,0
3002.5,0
3002.75,0
3003,0
3003.25,0
3003.5,0
3003.75,0
3004,0
3004.25,0
3004.5,0
3004.75,0
3005,0
3005.25,0
3005.5,0
3005.75,0
3006,0
3006.25,0
3006.5,0
3006.75,0
3007,0
3007.25,0
3007.5,0
3007.75,0
3008,0
3008.25,0
3008.5,0
3008.75,0
3009,0
3009.25,0
3009.5,0
3009.75,0
3010,0
3010.25,0
3010.5,0
3010.75,0
3011,0
3011.25,0
3011.5,0
3011.75,0
3012,0
3012.25,0
3012.5,0
3012.75,0
3013,0
3013.25,0
3013.5,0
3013.75,0
3014,0
3014.25,0
3014.5,0
3014.75,0
3015,0
3015.25,0
3015.5,0
3015.75,0
3016,0
3016.25,0
3016.5,0
3016.75,0
3017,0
3017.25,0
3017.5,0
3017.75,0
3018,0
3018.25,0
3018.5,0
3018.75,0
3019,0
3019.25,0
3019.5,0
3019.75,0
3020,0
3020.25,0
3020.5,0
3020.75,0
3021,0
3021.25,0
3021.5,0
3021.75,0
3022,0
3022.25,0
3022.5,0
3022.75,0
3023,0
3023.25,0
3023.5,0
3023.75,0
3024,0
3024.25,0
3024.5,0
3024.75,0
3025,0
3025.25,0
3025.5,0
3025.75,0
3026,0
3026.25,0
3026.5,0
3026.75,0
3027,0
3027.25,0
3027.5,0
3027.75,0
3028,0
3028.25,0
3028.5,0
3028.75,0
3029,0
3029.25,0
3029.5,0
3029.75,0.126108616206864
3030,2.62015599716305
3030.25,5.11420337811924
3030.5,7.60825075907543
3030.75,10.1022981400316
3031,12.5963455209924
3031.25,15.0903929019485
3031.5,17.5844402829047
3031.75,20.0784876638609
3032,22.5725350448171
3032.25,25.0665824257733
3032.5,27.5606298067295
3032.75,30.0546771876857
3033,32.5487245686464
3033.25,35.0427719496026
3033.5,37.5368193305588
3033.75,40.030866711515
3034,42.5249140924712
3034.25,45.0189614734274
3034.5,47.5130088543836
3034.75,49.9017163324303
3035,49.9417010599807
3035.25,49.9816857875312
3035.5,50.0216705150816
3035.75,50.061655242632
3036,50.1016399701824
3036.25,50.1416246977328
3036.5,50.1816094252832
3036.75,50.2215941528336
3037,50.261578880384
3037.25,50.3015636079344
3037.5,50.3415483354848
3037.75,50.3815330630352
3038,50.4215177905856
3038.25,50.461502518136
3038.5,50.5014872456864
3038.75,50.5414719732368
3039,50.5814567007872
3039.25,50.6214414283376
3039.5,50.6614261558881
3039.75,50.7029981273068
3040,50.7879656733514
3040.25,50.872933219396
3040.5,50.9579007654406
3040.75,51.0428683114852
3041,51.1278358575298
3041.25,51.2128034035744
3041.5,51.297770949619
3041.75,51.3827384956638
3042,51.4677060417084
3042.25,51.552673587753
3042.5,51.6376411337976
3042.75,51.7226086798422
3043,51.8075762258868
3043.25,51.8925437719314
3043.5,51.977511317976
3043.75,52.0624788640206
3044,52.1474464100653
3044.25,52.2324139561099
3044.5,52.3173815021545
3044.75,52.4006908965292
3045,52.4256813512482
3045.25,52.4506718059672
3045.5,52.4756622606862
3045.75,52.5006527154052
3046,52.5256431701242
3046.25,52.5506336248432
3046.5,52.5756240795622
3046.75,52.6006145342812
3047,52.6256049890002
3047.25,52.6505954437192
3047.5,52.6755858984382
3047.75,52.7005763531572
3048,52.7255668078762
3048.25,52.7505572625952
3048.5,52.7755477173142
3048.75,52.8005381720332
3049,52.8255286267522
3049.25,52.8505190814712
3049.5,52.8755095361902
3049.75,52.8956000799986
3050,52.6756840784714
3050.25,52.4557680769442
3050.5,52.2358520754166
3050.75,52.0159360738894
3051,51.7960200723622
3051.25,51.576104070835
3051.5,51.3561880693078
3051.75,51.1362720677806
3052,50.9163560662534
3052.25,50.6964400647262
3052.5,50.476524063199
3052.75,50.2566080616714
3053,50.0366920601442
3053.25,49.816776058617
3053.5,49.5968600570898
3053.75,49.3769440555626
3054,49.1570280540354
3054.25,48.9371120525082
3054.5,48.717196050981
3054.75,48.4983927564954
3055,48.3684423919564
3055.25,48.2384920274176
3055.5,48.1085416628788
3055.75,47.97859129834
3056,47.8486409338012
3056.25,47.7186905692624
3056.5,47.5887402047236
3056.75,47.4587898401848
3057,47.3288394756458
3057.25,47.198889111107
3057.5,47.0689387465682
3057.75,46.9389883820294
3058,46.8090380174906
3058.25,46.6790876529518
3058.5,46.549137288413
3058.75,46.4191869238742
3059,46.2892365593354
3059.25,46.1592861947964
3059.5,46.0293358302576
3059.75,45.9
3060,45.9
3060.25,45.9
3060.5,45.9
3060.75,45.9
3061,45.9
3061.25,45.9
3061.5,45.9
3061.75,45.9
3062,45.9
3062.25,45.9
3062.5,45.9
3062.75,45.9
3063,45.9
3063.25,45.9
3063.5,45.9
3063.75,45.9
3064,45.9
3064.25,45.9
3064.5,45.9
3064.75,45.9
3065,46.0146215523354
3065.25,46.1295776440428
3065.5,46.2445337357502
3065.75,46.3594898274578
3066,46.4744459191652
3066.25,46.5894020108726
3066.5,46.70435810258
3066.75,46.8193141942874
3067,46.9342702859948
3067.25,47.0492263777022
3067.5,47.1641824694096
3067.75,47.279138561117
3068,47.3940946528246
3068.25,47.509050744532
3068.5,47.6240068362394
3068.75,47.7389629279468
3069,47.8539190196542
3069.25,47.9688751113616
3069.5,48.083831203069
3069.75,48.1987872947764
3070,48.2346175524081
3070.25,48.2696041890148
3070.5,48.3045908256214
3070.75,48.339577462228
3071,48.3745640988346
3071.25,48.4095507354412
3071.5,48.4445373720478
3071.75,48.4795240086544
3072,48.514510645261
3072.25,48.5494972818676
3072.5,48.5844839184742
3072.75,48.6194705550808
3073,48.6544571916874
3073.25,48.689443828294
3073.5,48.7244304649006
3073.75,48.7594171015072
3074,48.7944037381138
3074.25,48.8293903747204
3074.5,48.8643770113271
3074.75,48.8993636479337
3075,48.8165778804021
3075.25,48.7316103343575
3075.5,48.6466427883129
3075.75,48.5616752422683
3076,48.4767076962237
3076.25,48.3917401501791
3076.5,48.3067726041345
3076.75,48.2218050580898
3077,48.1368375120452
3077.25,48.0518699660006
3077.5,47.966902419956
3077.75,47.8819348739114
3078,47.7969673278668
3078.25,47.7119997818222
3078.5,47.6270322357776
3078.75,47.542064689733
3079,47.4570971436882
3079.25,47.3721295976436
3079.5,47.287162051599
3079.75,47.2021945055544
3080,46.8932528499482
3080.25,46.5783731204888
3080.5,46.2634933910294
3080.75,45.94861366157
3081,45.63373393211
3081.25,45.3188542026506
3081.5,45.0039744731912
3081.75,44.6890947437319
3082,44.3742150142725
3082.25,44.0593352848131
3082.5,43.7444555553537
3082.75,43.4295758258943
3083,43.1146960964349
3083.25,42.7998163669749
3083.5,42.4849366375155
3083.75,42.1700569080561
3084,41.8551771785967
3084.25,41.5402974491373
3084.5,41.2254177196779
3084.75,40.9105379902185
3085,40.8130452173597
3085.25,40.7230795803713
3085.5,40.6331139433828
3085.75,40.5431483063944
3086,40.453182669406
3086.25,40.3632170324176
3086.5,40.2732513954292
3086.75,40.1832857584408
3087,40.0933201214524
3087.25,40.003354484464
3087.5,39.9133888474754
3087.75,39.823423210487
3088,39.7334575734986
3088.25,39.6434919365102
3088.5,39.5535262995218
3088.75,39.4635606625334
3089,39.373595025545
3089.25,39.2836293885566
3089.5,39.1936637515682
3089.75,39.1036981145797
3090,39.1479264013382
3090.25,39.1979073107762
3090.5,39.2478882202142
3090.75,39.2978691296522
3091,39.3478500390902
3091.25,39.3978309485282
3091.5,39.4478118579662
3091.75,39.4977927674042
3092,39.5477736768423
3092.25,39.5977545862803
3092.5,39.6477354957183
3092.75,39.6977164051563
3093,39.7476973145943
3093.25,39.7976782240323
3093.5,39.8476591334703
3093.75,39.8976400429083
3094,39.9476209523463
3094.25,39.9976018617844
3094.5,40.0475827712224
3094.75,40.0975636806604
3095,40.2521426883148
3095.25,40.4120815985164
3095.5,40.572020508718
3095.75,40.7319594189196
3096,40.8918983291212
3096.25,41.0518372393231
3096.5,41.2117761495247
3096.75,41.3717150597263
3097,41.5316539699279
3097.25,41.6915928801295
3097.5,41.8515317903311
3097.75,42.0114707005327
3098,42.1714096107343
3098.25,42.3313485209359
3098.5,42.4912874311377
3098.75,42.6512263413394
3099,42.8111652515409
3099.25,42.9711041617425
3099.5,43.1310430719441
3099.75,43.2909819821457
3100,43.6773022308684
3100.25,44.0771495063724
3100.5,44.4769967818764
3100.75,44.8768440573811
3101,45.2766913328851
3101.25,45.6765386083891
3101.5,46.0763858838931
3101.75,46.4762331593971
3102,46.8760804349011
3102.25,47.2759277104051
3102.5,47.6757749859091
3102.75,48.0756222614131
3103,48.4754695369178
3103.25,48.8753168124218
3103.5,49.2751640879258
3103.75,49.6750113634298
3104,50.0748586389338
3104.25,50.4747059144378
3104.5,50.8745531899418
3104.75,51.2744004654458
3105,51.3187123870475
3105.25,51.3387047508227
3105.5,51.3586971145979
3105.75,51.3786894783731
3106,51.3986818421483
3106.25,51.4186742059235
3106.5,51.4386665696987
3106.75,51.4586589334739
3107,51.4786512972491
3107.25,51.4986436610244
3107.5,51.5186360247996
3107.75,51.5386283885748
3108,51.55862075235
3108.25,51.5786131161252
3108.5,51.5986054799004
3108.75,51.6185978436756
3109,51.6385902074508
3109.25,51.658582571226
3109.5,51.6785749350012
3109.75,51.6985672987764
3110,51.7
3110.25,51.7
3110.5,51.7
3110.75,51.7
3111,51.7
3111.25,51.7
3111.5,51.7
3111.75,51.7
3112,51.7
3112.25,51.7
3112.5,51.7
3112.75,51.7
3113,51.7
3113.25,51.7
3113.5,51.7
3113.75,51.7
3114,51.7
3114.25,51.7
3114.5,51.7
3114.75,51.7
3115,51.7
3115.25,51.7
3115.5,51.7
3115.75,51.7
3116,51.7
3116.25,51.7
3116.5,51.7
3116.75,51.7
3117,51.7
3117.25,51.7
3117.5,51.7
3117.75,51.7
3118,51.7
3118.25,51.7
3118.5,51.7
3118.75,51.7
3119,51.7
3119.25,51.7
3119.5,51.7
3119.75,51.7
3120,51.7
3120.25,51.7
3120.5,51.7
3120.75,51.7
3121,51.7
3121.25,51.7
3121.5,51.7
3121.75,51.7
3122,51.7
3122.25,51.7
3122.5,51.7
3122.75,51.7
3123,51.7
3123.25,51.7
3123.5,51.7
3123.75,51.7
3124,51.7
3124.25,51.7
3124.5,51.7
3124.75,51.7
3125,51.7
3125.25,51.7
3125.5,51.7
3125.75,51.7
3126,51.7
3126.25,51.7
3126.5,51.7
3126.75,51.7
3127,51.7
