2167,896.886297703496
2167.25,889.383137427794
2167.5,881.871243565455
2167.75,876.977416118182
2168,875.348039774525
2168.25,876.440330380839
2168.5,879.694820927928
2168.75,884.403561828695
2169,889.501595293173
2169.25,893.871401990205
2169.5,896.477966007432
2169.75,897.277962575275
2170,896.883689989649
2170.25,895.919156800106
2170.5,895.141902871244
2170.75,895.733312003635
2171,898.958668858995
2171.25,905.967859022249
2171.5,915.174782935069
2171.75,922.211121091442
2172,922.583907133698
2172.25,913.18737541909
2172.5,898.756545296863
2172.75,886.778381749049
2173,884.720580426942
2173.25,895.187349117943
2173.5,909.859899021404
2173.75,918.930278527429
2174,913.552446255752
2174.25,896.26745714244
2174.5,877.061354535285
2174.75,866.048765116869
2175,870.339395691153
2175.25,884.496819773403
2175.5,899.810750360111
2175.75,907.88621619791
2176,906.890585033897
2176.25,901.191618770256
2176.5,895.399942190641
2176.75,893.416839895151
2177,895.327701212671
2177.25,899.940363742102
2177.5,906.057514786936
2177.75,912.205401764553
2178,916.468378338241
2178.25,916.891173857724
2178.5,911.827525710683
2178.75,902.756866903362
2179,892.973736696703
2179.25,885.794975915378
2179.5,883.568506470686
2179.75,885.223356971153
2180,888.934846761345
2180.25,892.913177013461
2180.5,896.178742635416
2180.75,898.566552188874
2181,899.947380054901
2181.25,900.308824385752
2181.5,900.208471960741
2181.75,900.377483718657
2182,901.535662039522
2182.25,903.721998668236
2182.5,905.92205471516
2182.75,907.030986666168
2183,906.121536308005
2183.25,903.91963166433
2183.5,902.050255703338
2183.75,902.146679652033
2184,904.969851964989
2184.25,908.704227931669
2184.5,911.060880375293
2184.75,909.855629385422
2185,905.38175660272
2185.25,900.448539759831
2185.5,897.977711339511
2185.75,900.238921508162
2186,905.388695582625
2186.25,909.98414486326
2186.5,910.598736399484
2186.75,906.033335813036
2187,899.319122863228
2187.25,893.960228386201
2187.5,893.230384449432
2187.75,897.142365251381
2188,903.290740222698
2188.25,909.213011033615
2188.5,913.088795791029
2188.75,915.361177460599
2189,916.971721756707
2189.25,918.843719186659
2189.5,921.215573901318
2189.75,923.450510489733
2190,924.854701093951
2190.25,924.846414757184
2190.5,923.872456430194
2190.75,922.93249980123
2191,923.031508185759
2191.25,924.572315638332
2191.5,925.784604268899
2191.75,924.407960304219
2192,918.230924067264
2192.25,907.797118558508
2192.5,897.818969913559
2192.75,893.355896438242
2193,898.923540014
2193.25,912.522477418474
2193.5,927.856192621224
2193.75,938.553160364871
2194,940.377746751027
2194.25,935.776962907624
2194.5,928.501216658586
2194.75,922.276178077061
2195,919.312085562785
2195.25,919.452160157463
2195.5,922.333878444735
2195.75,927.525457692759
2196,933.688174328895
2196.25,938.845908730207
2196.5,941.009301809505
2196.75,938.778184455043
2197,933.58755076962
2197.25,927.72411284982
2197.5,923.470863882052
2197.75,921.943062211976
2198,921.456950468563
2198.25,919.918094080133
2198.5,915.351804037812
2198.75,908.83536917368
2199,904.673302602091
2199.25,907.324946542352
2199.5,920.271286600381
2199.75,939.914717638393
2200,959.543535126909
2200.25,972.442719038312
2200.5,975.136094347464
2200.75,971.9971666617
2201,968.565413070514
2201.25,970.338984993503
2201.5,979.245831050891
2201.75,990.940662199815
2202,1000.44180636311
2202.25,1002.87636495964
2202.5,997.343505150679
2202.75,987.958574496284
2203,979.158088965384
2203.25,975.302831635193
2203.5,977.788128647999
2203.75,984.144681058487
2204,991.643660250928
2204.25,997.637395758853
2204.5,1001.39108798519
2204.75,1004.10885155083
2205,1007.08116819432
2205.25,1011.54100336434
2205.5,1017.48634071223
2205.75,1023.72712356211
2206,1029.0251716619
2206.25,1032.17625838177
2206.5,1032.84030482256
2206.75,1031.59030557904
2207,1029.04300332535
2207.25,1025.81373489729
2207.5,1022.44525142091
2207.75,1019.3740849589
2208,1017.02832788938
2208.25,1015.83416031628
2208.5,1015.97926680834
2208.75,1017.18426368864
2209,1019.11555941076
2209.25,1021.4399235369
2209.5,1023.92022428978
2209.75,1026.54423874623
2210,1029.33187241221
2210.25,1032.30294048212
2210.5,1035.35422734956
2210.75,1038.01592520241
2211,1039.75025126399
2211.25,1040.01942275764
2211.5,1038.55066239788
2211.75,1036.22732401314
2212,1034.24796071522
2212.25,1033.81113261259
2212.5,1035.86815100936
2212.75,1039.60688366375
2213,1043.44913988529
2213.25,1045.8136071543
2213.5,1045.27648934694
2213.75,1042.18979451756
2214,1038.02547652969
2214.25,1034.27303215826
2214.5,1032.37255785894
2214.75,1032.57958643183
2215,1033.93758283947
2215.25,1035.4351099802
2215.5,1036.06472102813
2215.75,1035.01914883295
2216,1031.78072885648
2216.25,1025.85443955204
2216.5,1016.75209003489
2216.75,1005.18697769457
2217,994.441042292231
2217.25,988.12705178779
2217.5,989.853895845457
2217.75,1001.12488882309
2218,1017.86174109396
2218.25,1035.07172645218
2218.5,1047.76814201093
2218.75,1052.55940923752
2219,1049.78350921564
2219.25,1040.3106061623
2219.5,1025.01086429452
2219.75,1005.4374396582
2220,985.880427757382
2220.25,971.315404258007
2220.5,966.71794482604
2220.75,975.424854918774
2221,991.893825204768
2221.25,1007.58935039694
2221.5,1013.97372353261
2221.75,1005.64733335292
2222,988.63335034232
2222.25,971.553238722861
2222.5,963.02846271651
2222.75,969.090444305411
2223,984.620224793678
2223.25,1001.49885859276
2223.5,1011.61156754925
2223.75,1009.99218519228
2224,1000.41019792946
2224.25,988.137741117574
2224.5,978.446283947086
2224.75,974.946853278156
2225,976.011640061788
2225.25,978.982185240619
2225.5,981.202776218006
2225.75,980.994614371954
2226,979.094508116554
2226.25,976.606122365372
2226.5,974.628581398047
2226.75,973.650736006367
2227,972.941965549672
2227.25,971.626641499759
2227.5,968.839190164506
2227.75,964.290606618715
2228,958.570532251799
2228.25,952.3424605623
2228.5,946.277573571591
2228.75,941.262424585163
2229,938.422807751615
2229.25,938.896996193134
2229.5,943.638575449078
2229.75,951.431358319213
2230,959.648411121108
2230.25,965.638793450662
2230.5,967.240860932284
2230.75,964.908979143873
2231,959.968180037047
2231.25,953.744088261553
2231.5,947.609165136021
2231.75,943.102150464451
2232,941.798667201086
2232.25,945.263119105916
2232.5,953.271730255759
2232.75,961.86803943139
2233,966.628096752737
2233.25,963.276511865027
2233.5,951.961999355262
2233.75,937.90190629093
2234,926.591792674104
2234.25,923.189362379852
2234.5,927.460953805698
2234.75,934.843748761262
2235,940.65272628615
2235.25,941.206232048587
2235.5,938.45285980295
2235.75,936.30372926213
2236,938.668984260709
2236.25,947.244117888097
2236.5,957.588551710243
2236.75,964.207746524286
2237,961.710387788964
2237.25,949.46945896463
2237.5,933.520562847761
2237.75,920.395627436936
2238,916.341469975941
2238.25,921.517287009976
2238.5,930.24481637251
2238.75,936.610745157866
2239,935.747352844702
2239.25,929.423425921212
2239.5,922.003216476587
2239.75,917.855600683192
2240,919.524784869094
2240.25,924.135656891116
2240.5,927.811626239984
2240.75,926.78035068002
2241,920.720801661575
2241.25,913.475503085782
2241.5,909.135248501628
2241.75,911.317206513259
2242,919.01660011258
2242.25,928.619030792773
2242.5,936.481077857472
2242.75,940.023131498362
2243,940.015307624528
2243.25,937.885372082452
2243.5,935.051270936645
2243.75,932.354124085752
2244,929.74800679134
2244.25,927.111505853845
2244.5,924.338124489561
2244.75,921.551485164267
2245,919.055966804166
2245.25,917.160811424544
2245.5,916.149661789965
2245.75,916.162683588655
2246,917.290087015114
2246.25,919.619183208186
2246.5,922.765099591737
2246.75,925.347761404276
2247,925.861032294585
2247.25,922.917538788147
2247.5,917.366027699107
2247.75,912.046507030181
2248,909.868569268489
2248.25,913.07567919853
2248.5,919.634800364307
2248.75,925.822837777468
2249,927.922775528605
2249.25,924.269191295872
2249.5,917.716709605989
2249.75,911.72275946474
2250,909.624732790109
2250.25,911.899932699975
2250.5,916.109331461305
2250.75,919.682614505829
2251,920.430504481714
2251.25,918.548898613773
2251.5,915.1546879715
2251.75,911.366096211998
2252,908.103933791613
2252.25,905.813179845297
2252.5,904.868564792073
2252.75,905.614411707163
2253,907.77039779216
2253.25,910.470446265265
2253.5,912.825861457061
2253.75,914.10842850403
2254,914.445658307709
2254.25,914.249137953735
2254.5,913.930480563919
2254.75,913.882245671887
2255,914.460261823765
2255.25,916.016175388301
2255.5,918.842244030413
2255.75,922.330522594361
2256,925.174121515439
2256.25,926.047823912697
2256.5,924.026950668271
2256.75,920.171877902791
2257,916.156803285179
2257.25,913.65061049476
2257.5,913.455581679262
2257.75,914.569744738154
2258,915.765851835924
2258.25,915.885862223675
2258.5,914.946716088212
2258.75,913.946937171955
2259,913.915184248364
2259.25,915.728584309452
2259.5,919.456765740927
2259.75,924.901453142606
2260,931.861797335672
2260.25,939.843668868031
2260.5,947.781641406482
2260.75,954.544411957086
2261,959.039789457826
2261.25,960.963735558724
2261.5,960.743024119591
2261.75,958.832052316022
2262,955.679915140167
2262.25,951.6811578922
2262.5,947.198229829117
2262.75,942.593168667269
2263,938.298299830331
2263.25,935.164046796525
2263.5,934.194807147164
2263.75,936.394644970926
2264,942.027287974661
2264.25,949.163438642242
2264.5,955.469647107216
2264.75,958.638496424727
2265,957.68737752281
2265.25,953.561263335403
2265.5,947.357054264637
2265.75,940.18698531946
2266,933.477615795225
2266.25,928.949883179195
2266.5,928.336064970754
2266.75,933.021009157344
2267,941.357173175152
2267.25,950.13205961737
2267.5,956.120161276618
2267.75,957.043039482691
2268,954.051851280637
2268.25,949.073828122761
2268.5,944.0326796212
2268.75,940.186359140226
2269,937.345308675358
2269.25,935.129851610258
2269.5,933.159376100891
2269.75,931.022491139407
2270,928.270779682327
2270.25,924.453626696024
2270.5,919.25592403273
2270.75,913.794755716316
2271,910.047508823826
2271.25,910.003300942605
2271.5,914.784290492173
2271.75,922.058694172159
2272,928.634703082827
2272.25,931.370794950809
2272.5,929.612851353505
2272.75,926.285018331597
2273,924.588984852361
2273.25,927.434934864836
2273.5,933.95750293797
2273.75,940.658274427869
2274,943.985174624501
2274.25,941.208949654846
2274.5,933.57276458827
2274.75,923.517006737941
2275,913.480956001405
2275.25,905.406203448752
2275.5,899.996181772199
2275.75,897.765018428111
2276,899.165327370735
2276.25,903.244906928048
2276.5,907.652270202978
2276.75,909.975522881901
2277,908.526634976955
2277.25,905.42055949314
2277.5,904.016801490687
2277.75,907.65346502064
2278,917.447357347838
2278.25,930.426249757674
2278.5,943.178065649911
2278.75,952.453245250943
2279,957.043469414843
2279.25,957.133303052463
2279.5,952.934189819327
2279.75,944.948780023924
2280,935.474020280454
2280.25,927.489659700256
2280.5,923.976634189066
2280.75,926.551764426185
2281,932.12917623308
2281.25,936.610343741924
2281.5,935.958293833348
2281.75,929.340126463487
2282,920.626752663107
2282.25,914.064514485043
2282.5,913.612961073074
2282.75,919.036678681442
2283,926.919521705115
2283.25,933.766281359216
2283.5,936.757838684101
2283.75,936.182105435404
2284,933.218971062217
2284.25,929.048605783462
2284.5,924.885993723124
2284.75,922.020021549709
2285,921.749015818422
2285.25,925.2901952577
2285.5,931.976415253473
2285.75,939.245617023704
2286,944.452523773825
2286.25,945.342426529582
2286.5,942.493145490051
2286.75,937.731217839522
2287,932.88863314433
2287.25,929.493578215035
2287.5,927.949908745567
2287.75,928.401442021443
2288,930.981604180001
2288.25,934.979159681416
2288.5,938.227586316699
2288.75,938.416397171794
2289,933.440491182884
2289.25,924.608183426385
2289.5,916.041109435798
2289.75,911.944863215829
2290,915.727516660132
2290.25,925.371846045787
2290.5,936.601073233106
2290.75,945.13659504964
2291,948.305983610765
2291.25,947.248736956853
2291.5,943.657482998183
2291.75,939.213468532077
2292,935.160952443507
2292.25,932.179665432814
2292.5,930.911923498007
2292.75,931.904065231645
2293,934.462757766022
2293.25,937.031805390302
2293.5,938.037512230623
2293.75,936.297362310764
2294,932.655268390573
2294.25,928.609340966783
2294.5,925.656311593173
2294.75,924.673484532104
2295,925.000357540656
2295.25,925.741848888488
2295.5,926.035531137024
2295.75,925.940656512593
2296,926.544279703202
2296.25,928.987413300819
2296.5,934.209920100381
2296.75,941.425690563327
2297,948.970316779597
2297.25,955.172445905262
2297.5,958.612942377332
2297.75,958.782972376478
2298,955.37900095912
2298.25,948.103332834694
2298.5,937.696718156697
2298.75,927.125731808337
2299,919.644488496395
2299.25,918.41894033222
2299.5,923.462012254683
2299.75,930.84270976295
2300,936.381209337935
2300.25,936.432320257095
2300.5,932.123691378599
2300.75,927.092091069555
2301,924.996615014147
2301.25,928.360530662085
2301.5,935.087597062866
2301.75,941.907328920047
2302,945.573047531722
2302.25,944.764851859862
2302.5,941.477812828316
2302.75,938.034336784661
2303,936.689097594127
2303.25,938.240252910933
2303.5,942.083609392777
2303.75,947.558079135452
2304,953.914608536419
2304.25,959.679396541102
2304.5,963.022120700313
2304.75,962.109974351509
2305,955.890278942035
2305.25,946.718778601097
2305.5,937.881819849602
2305.75,932.663923208063
2306,932.939523145376
2306.25,936.660517604721
2306.5,941.102183790172
2306.75,943.581201444434
2307,943.116192059993
2307.25,940.991662216978
2307.5,938.649213643781
2307.75,937.43215094175
2308,937.316635618585
2308.25,937.277024344997
2308.5,936.264665769982
2308.75,933.594215327132
2309,930.7567046737
2309.25,930.049962040252
2309.5,933.770721586559
2309.75,942.37873478134
2310,951.225774918304
2310.25,954.782893002862
2310.5,947.665225209754
2310.75,930.405789711704
2311,911.413468793681
2311.25,899.642882449423
2311.5,903.381854778618
2311.75,920.230247297099
2312,939.180951734005
2312.25,948.982390001852
2312.5,941.915566620047
2312.75,924.95918199621
2313,908.913851055403
2313.25,904.555250710781
2313.5,916.7036093889
2313.75,936.548323997515
2314,953.38002220357
2314.25,957.102754417338
2314.5,947.775630146743
2314.75,933.806719700355
2315,923.851948239295
2315.25,925.481865228169
2315.5,936.724591200717
2315.75,950.654073684858
2316,960.302384017754
2316.25,960.828839076148
2316.5,954.610824307822
2316.75,945.555233915579
2317,937.561097229549
2317.25,933.140402255564
2317.5,931.837954041077
2317.75,932.81612164306
2318,935.233640366812
2318.25,938.147124562068
2318.5,940.499560589291
2318.75,941.227991422786
2319,939.469193570098
2319.25,936.263477312838
2319.5,933.705956881514
2319.75,933.902957858245
2320,938.248688018519
2320.25,944.917237734081
2320.5,951.172945282754
2320.75,954.289020626493
2321,952.972289582828
2321.25,948.927749019005
2321.5,944.236720825927
2321.75,940.951738953944
2322,940.05258282956
2322.25,941.151737136672
2322.5,943.772901567736
2322.75,947.379559579342
2323,950.66071035664
2323.25,951.767888871802
2323.5,948.841810214093
2323.75,940.586979951745
2324,929.163968518253
2324.25,918.042281197458
2324.5,910.693588095875
2324.75,909.356536468232
2325,912.236132840718
2325.25,916.713865251811
2325.5,920.223696661024
2325.75,921.983754809202
2326,923.391865831183
2326.25,925.978433104007
2326.5,931.080023182757
2326.75,938.331431266333
2327,946.48496252782
2327.25,954.285439133773
2327.5,960.462297110478
2327.75,963.690284843075
2328,962.63200580066
2328.25,955.960518779689
2328.5,944.022686327286
2328.75,930.663118263283
2329,920.165051562871
2329.25,916.728230194166
2329.5,921.137751541499
2329.75,929.64273062708
2330,938.178837954964
2330.25,942.996539112922
2330.5,943.342081544538
2330.75,940.119856256441
2331,934.251812575864
2331.25,926.741106264605
2331.5,918.953247170974
2331.75,912.354774965342
2332,908.409341208938
2332.25,908.138394336988
2332.5,911.649862480482
2332.75,918.938656867425
2333,929.862994085642
2333.25,942.166558473439
2333.5,951.929141926997
2333.75,955.185595732836
2334,949.176153101751
2334.25,937.666911460685
2334.5,926.622229201141
2334.75,922.007139982596
2335,927.31770302769
2335.25,938.263426596802
2335.5,949.022611925967
2335.75,953.862459442588
2336,950.680553003715
2336.25,942.193938839429
2336.5,931.452378558577
2336.75,921.466701906929
2337,914.61590263199
2337.25,912.766070129186
2337.5,917.768473005909
2337.75,930.632030531972
2338,947.398304452057
2338.25,962.294306509472
2338.5,969.558281070077
2338.75,966.538654426351
2339,957.604089985377
2339.25,948.085818550825
2339.5,943.267006032767
2339.75,945.247024069867
2340,951.009730325776
2340.25,957.077127564435
2340.5,960.091718022872
2340.75,958.969699805915
2341,954.654620662525
2341.25,948.161055367205
2341.5,940.559810228451
2341.75,933.486306654396
2342,928.901962612763
2342.25,928.772142555549
2342.5,934.274628554677
2342.75,942.62719236617
2343,949.805705052123
2343.25,951.797557470857
2343.5,946.883574057085
2343.75,938.347665832786
2344,930.133391437445
2344.25,926.119966714065
2344.5,927.686424663426
2344.75,932.964633647759
2345,939.86951505957
2345.25,946.407977563024
2345.5,951.563248144397
2345.75,954.906901806911
2346,956.018611512016
2346.25,954.631452786966
2346.5,951.249489031531
2346.75,946.618472925442
2347,941.484140333651
2347.25,936.45802787112
2347.5,931.753131453258
2347.75,927.50880421678
2348,923.867412872822
2348.25,921.15359793156
2348.5,919.975366619476
2348.75,920.965200509878
2349,924.683546819648
2349.25,930.739541516982
2349.5,938.069759201737
2349.75,945.596599881792
2350,952.291659526283
2350.25,957.359185414723
2350.5,960.072131067545
2350.75,959.705427762905
2351,956.272055703407
2351.25,951.627176197406
2351.5,947.908627067879
2351.75,947.227085066094
2352,949.900314401228
2352.25,953.368896491099
2352.5,954.814072936804
2352.75,951.576509598036
2353,944.160752788641
2353.25,935.978761569074
2353.5,930.550510780801
2353.75,931.003425200817
2354,936.636909548626
2354.25,944.590230016141
2354.5,951.978311378579
2354.75,956.458878287328
2355,957.883994546548
2355.25,956.660155180183
2355.5,953.195036683043
2355.75,948.187708255405
2356,943.008724690965
2356.25,939.122900890352
2356.5,937.970550598984
2356.75,939.86467604793
2357,943.543836003051
2357.25,947.629521407258
2357.5,950.763226548465
2357.75,951.862661585871
2358,950.046943352506
2358.25,944.439760697717
2358.5,934.600270445395
2358.75,923.063362804851
2359,913.608296317777
2359.25,910.018321942889
2359.5,914.496244073531
2359.75,923.844157521401
2360,933.711522703221
2360.25,939.824910042835
2360.5,940.695630985501
2360.75,938.333906638819
2361,934.972239550772
2361.25,932.678931065213
2361.5,931.571608943059
2361.75,930.489248091738
2362,928.248588505625
2362.25,924.10593870418
2362.5,919.522820159609
2362.75,916.650818136261
2363,917.633181606321
2363.25,923.0600905036
2363.5,930.178273730139
2363.75,935.800341779818
2364,936.898617356819
2364.25,933.447531568668
2364.5,928.092187809337
2364.75,923.570829952054
2365,922.177212043092
2365.25,922.886635143151
2365.5,923.173890901755
2365.75,920.507487478205
2366,913.615451860822
2366.25,904.915196081069
2366.5,897.496134488937
2366.75,894.380338386559
2367,896.268669452489
2367.25,901.007909242678
2367.5,906.269493293536
2367.75,909.97127131255
2368,911.630527697501
2368.25,911.403006187402
2368.5,909.447964246852
2368.75,906.258410539095
2369,903.045440332127
2369.25,901.113323867683
2369.5,901.678307947321
2369.75,904.487836735639
2370,908.075676105171
2370.25,910.939176311452
2370.5,911.879920806796
2370.75,911.034865294063
2371,908.907244558291
2371.25,906.000172116031
2371.5,902.808403194512
2371.75,899.813449015817
2372,897.495647114441
2372.25,896.277429123484
2372.5,895.977380922862
2372.75,896.055080794889
2373,895.965623483062
2373.25,895.441161883285
2373.5,895.015352454067
2373.75,895.365945579916
2374,897.120935300154
2374.25,899.888731887159
2374.5,902.323029370507
2374.75,903.040756515862
2375,901.179990371555
2375.25,898.366219472013
2375.5,896.966221632993
2375.75,899.309715301285
2376,905.428409060689
2376.25,911.753125202334
2376.5,914.40033233598
2376.75,910.097599467587
2377,901.122920579126
2377.25,892.713398205345
2377.5,890.132711474262
2377.75,896.141490203525
2378,905.64364540466
2378.25,912.005592777536
2378.5,908.915608219621
2378.75,896.771856101614
2379,882.318630048391
2379.25,872.54926118027
2379.5,873.068305080976
2379.75,881.330196364481
2380,891.825655287791
2380.25,899.124556350043
2380.5,901.33581394591
2380.75,901.345588522907
2381,902.378074050964
2381.25,907.10763346572
2381.5,914.111780009026
2381.75,920.118712884144
2382,921.854784882899
2382.25,917.886941315665
2382.5,911.059664732117
2382.75,904.823669687436
2383,902.48753064419
2383.25,904.052406237506
2383.5,906.190680363105
2383.75,905.428324986222
2384,899.093055193832
2384.25,889.044836716223
2384.5,878.734560045398
2384.75,871.60014624465
2385,869.54792749218
2385.25,871.634057655081
2385.5,876.603941262347
2385.75,883.17658420484
2386,889.858483988115
2386.25,895.053626593651
2386.5,897.177901589742
2386.75,896.005417001109
2387,893.865145696669
2387.25,893.368337256652
2387.5,896.816717210364
2387.75,903.004106981654
2388,908.503322926955
2388.25,909.853121055596
2388.5,905.157236288375
2388.75,897.200487261491
2389,889.639157841227
2389.25,886.01763923801
2389.5,886.714367001481
2389.75,888.572883591584
2390,888.250770167554
2390.25,883.405469870909
2390.5,876.943347874756
2390.75,873.48722765208
2391,877.577547009808
2391.25,889.533565220604
2391.5,903.544880526589
2391.75,913.319306607242
2392,913.791649006132
2392.25,907.451828695755
2392.5,899.662996405566
2392.75,895.780809426951
2393,898.455245278847
2393.25,904.331633092642
2393.5,909.247782472367
2393.75,909.330442987817
2394,904.736958309679
2394.25,898.584180834544
2394.5,894.057258094475
2394.75,893.413070239425
2395,894.941659467667
2395.25,895.873639718982
2395.5,893.502446437932
2395.75,887.535453006437
2396,880.799342991751
2396.25,876.32761913506
2396.5,876.690225069852
2396.75,881.263531816346
2397,888.078684951837
2397.25,895.166965067736
2397.5,900.884619168828
2397.75,904.11259835471
2398,903.779537238645
2398.25,899.119942821873
2398.5,892.065440287116
2398.75,885.951315522651
2399,884.122279905007
2399.25,888.34504480325
2399.5,896.140332416807
2399.75,904.321991744574
2400,909.836959118808
2400.25,911.638054225015
2400.5,910.229680783135
2400.75,906.156587409462
2401,900.071982493281
2401.25,893.103500961565
2401.5,886.508462875837
2401.75,881.535625589402
2402,878.964496742113
2402.25,878.871848073776
2402.5,881.276787531749
2402.75,886.033828299583
2403,891.835260205197
2403.25,896.872951504577
2403.5,899.349794353135
2403.75,898.593628730642
2404,895.911099488898
2404.25,892.809867371697
2404.5,890.78485541433
2404.75,891.194944153019
2405,895.316640161402
2405.25,904.422906535851
2405.5,917.949324747751
2405.75,930.216425043932
2406,934.661702939946
2406.25,925.098118601658
2406.5,903.56655357777
2406.75,880.115454625095
2407,865.124651734467
2407.25,867.312277342004
2407.5,882.398673994237
2407.75,899.98572756118
2408,909.734897126449
2408.25,907.318228704694
2408.5,897.896620682684
2408.75,887.467709494926
2409,881.577137721453
2409.25,881.013561597833
2409.5,883.71741269617
2409.75,887.592031503277
2410,891.109513523877
2410.25,894.185215923005
2410.5,896.960003814002
2410.75,899.585234530148
2411,902.365244225324
2411.25,905.720111750219
2411.5,910.072777368229
2411.75,915.350932293268
2412,919.586189735311
2412.25,920.356470440049
2412.5,915.3030386875
2412.75,904.942900972543
2413,893.7871405577
2413.25,886.641444946947
2413.5,887.684137518025
2413.75,894.677143294485
2414,901.624303719845
2414.25,902.490489007443
2414.5,894.535822238834
2414.75,883.283392915579
2415,875.530642534726
2415.25,877.715876244806
2415.5,889.582587339828
2415.75,904.948468453766
2416,917.42675946873
2416.25,922.458828675022
2416.5,921.843237939883
2416.75,918.759517796207
2417,916.346283978444
2417.25,915.932812838704
2417.5,916.362952320389
2417.75,916.300130781909
2418,914.551930350938
2418.25,911.359024965657
2418.5,907.783113236189
2418.75,904.895562833244
2419,903.39386352611
2419.25,902.675770074759
2419.5,901.856784559956
2419.75,900.091215333523
2420,897.827165349232
2420.25,897.078750295899
2420.5,899.953958827255
2420.75,908.021508900837
2421,919.145648533034
2421.25,929.634215018879
2421.5,935.800552034673
2421.75,935.790625653539
2422,931.628172086242
2422.25,925.830390939365
2422.5,920.871472510084
2422.75,918.131656212144
2423,917.835671629787
2423.25,920.152915680097
2423.5,925.00613595693
2423.75,930.417444984093
2424,933.525683800407
2424.25,931.466211612174
2424.5,923.088435139028
2424.75,912.289057171282
2425,903.889195862671
2425.25,902.610122962551
2425.5,908.65390286007
2425.75,915.953883131065
2426,917.981875177721
2426.25,909.392080159715
2426.5,894.561383920238
2426.75,882.641664498075
2427,882.814450177168
2427.25,899.633634493878
2427.5,923.870060261588
2427.75,943.739985575123
2428,948.125284424309
2428.25,937.097631533017
2428.5,920.018647540502
2428.75,906.53146934771
2429,904.985990799344
2429.25,913.511025115475
2429.5,925.381239770075
2429.75,933.848148251536
2430,934.544478012934
2430.25,929.0640213902
2430.5,919.918237767898
2430.75,909.597238958833
2431,899.881032078362
2431.25,891.691041923446
2431.5,885.897314200596
2431.75,883.311674760301
2432,884.273780703028
2432.25,888.894082207419
2432.5,897.274435884996
2432.75,908.478398850908
2433,919.446878887527
2433.25,926.861411678547
2433.5,927.713900046205
2433.75,922.811334696756
2434,915.524085073874
2434.25,909.270070718091
2434.5,906.872845460057
2434.75,908.303940299663
2435,912.680472641546
2435.25,919.107883079374
2435.5,925.82518034431
2435.75,929.616496205978
2436,927.126751987478
2436.25,915.499869173545
2436.5,898.388598926151
2436.75,884.007539482833
2437,880.665405863449
2437.25,893.895036713093
2437.5,915.913573832032
2437.75,934.950244392784
2438,939.50627075425
2438.25,927.769852675174
2438.5,910.007479546575
2438.75,897.243946673819
2439,899.497678324745
2439.25,914.606969812107
2439.5,932.317339440227
2439.75,942.229632463637
2440,937.787551392221
2440.25,924.84601254973
2440.5,911.760861591325
2440.75,906.819131703825
2441,913.139932086508
2441.25,925.169436394379
2441.5,936.524547098816
2441.75,941.312575711077
2442,939.158163754298
2442.25,933.160201977502
2442.5,926.47177004313
2442.75,921.879334526897
2443,920.302200597615
2443.25,922.066751359034
2443.5,927.493226758652
2443.75,935.870512509637
2444,944.285825445364
2444.25,949.543305194747
2444.5,948.592903635304
2444.75,941.55886421152
2445,931.643147961117
2445.25,922.174207595618
2445.5,916.203440271846
2445.75,914.037742506331
2446,914.416067735642
2446.25,916.059011127012
2446.5,918.034299684341
2446.75,920.671554170731
2447,924.587049940293
2447.25,930.374115834147
2447.5,937.538722881296
2447.75,944.049637942843
2448,947.759317830588
2448.25,946.73404586615
2448.5,941.624747390625
2448.75,934.798058641747
2449,928.651456666519
2449.25,925.104028114759
2449.5,923.184850336447
2449.75,920.843214262478
2450,916.030144683487
2450.25,908.247524862322
2450.5,900.960775732699
2450.75,898.259445529196
2451,904.035665260508
2451.25,917.282812008784
2451.5,931.887862892597
2451.75,941.498826159568
2452,941.154918507978
2452.25,933.794804026777
2452.5,925.141713927502
2452.75,920.919328710883
2453,924.481559857826
2453.25,932.465032671298
2453.5,940.32436952781
2453.75,943.612425942804
2454,941.063769893735
2454.25,935.211242158636
2454.5,928.810442767152
2454.75,924.44168690947
2455,922.5992352917
2455.25,922.408178112001
2455.5,922.969714680229
2455.75,923.5995438683
2456,924.603662680617
2456.25,926.573663886169
2456.5,930.093067923975
2456.75,934.858477546229
2457,938.891904525324
2457.25,940.029486151321
2457.5,936.269084954265
2457.75,928.654918753672
2458,920.944689928354
2458.25,916.990972396269
2458.5,920.004144488578
2458.75,928.266972643329
2459,937.780624401312
2459.25,944.535744337091
2459.5,946.046657844582
2459.75,944.093758600691
2460,941.198390544808
2460.25,939.850677534623
2460.5,940.808983948752
2460.75,942.225765296999
2461,942.038223043491
2461.25,938.307494508136
2461.5,931.068194356551
2461.75,921.937400084213
2462,912.576724873194
2462.25,904.643111394331
2462.5,899.761169757656
2462.75,899.541831595653
2463,905.58997314946
2463.25,917.756611436309
2463.5,931.712295644579
2463.75,942.518027390254
2464,945.509832818189
2464.25,940.857315103701
2464.5,932.856442533805
2464.75,925.935655073031
2465,923.955625618391
2465.25,926.309435248241
2465.5,930.27640044418
2465.75,933.123654533248
2466,933.129506933702
2466.25,931.752613874691
2466.5,931.075292522068
2466.75,933.145900749292
2467,938.183452367642
2467.25,943.685130012738
2467.5,946.926777639697
2467.75,945.409489218903
2468,939.743016010248
2468.25,932.802977536492
2468.5,927.516383683547
2468.75,926.302800764326
2469,928.202127090821
2469.25,930.873267271386
2469.5,931.972457003026
2469.75,930.206146869156
2470,927.184076525816
2470.25,925.01348180911
2470.5,925.757303660561
2470.75,929.723730386054
2471,934.92231232835
2471.25,939.20703618663
2471.5,940.631758346254
2471.75,939.336568422003
2472,936.702801069018
2472.25,934.128244732205
2472.5,932.765950545484
2472.75,932.585457114
2473,933.199028149316
2473.25,934.219110017986
2473.5,935.312091226027
2473.75,936.264400299248
2474,936.87865971761
2474.25,936.961294717317
2474.5,936.422459119001
2474.75,935.285967184169
2475,933.581427509497
2475.25,931.355350547243
2475.5,928.818748067514
2475.75,926.275317143096
2476,924.02979418911
2476.25,922.379882020732
2476.5,921.593856702103
2476.75,921.932299817904
2477,923.651755290107
2477.25,926.666853474441
2477.5,930.295274845205
2477.75,933.794634752435
2478,936.431814401472
2478.25,937.613944058342
2478.5,936.856944495454
2478.75,933.679583114206
2479,927.859797353765
2479.25,920.774973331249
2479.5,914.412051338533
2479.75,910.758096486331
2480,911.023478654368
2480.25,914.273809732686
2480.5,919.20762016261
2480.75,924.534745430147
2481,929.249506727344
2481.25,932.645008214596
2481.5,934.028520704789
2481.75,932.913039659969
2482,930.365435156595
2482.25,928.162332665429
2482.5,928.083878021595
2482.75,931.138631252585
2483,935.734539832553
2483.25,939.732218571655
2483.5,941.015880907212
2483.75,938.770834796552
2484,934.135694262791
2484.25,928.40990311443
2484.5,922.845382178544
2484.75,917.927652387135
2485,913.522622565436
2485.25,909.478452743568
2485.5,905.757133301111
2485.75,902.980529554704
2486,902.007711460489
2486.25,903.692582934339
2486.5,908.166247853437
2486.75,914.122472961598
2487,920.085103141954
2487.25,924.633921050719
2487.5,927.095349434686
2487.75,927.327608141907
2488,925.200329286299
2488.25,920.931318436614
2488.5,916.39891429215
2488.75,913.975946674891
2489,916.020589651385
2489.25,922.947851806329
2489.5,931.309724811801
2489.75,937.201671118915
2490,936.962838609299
2490.25,930.858967933558
2490.5,922.328615497402
2490.75,914.901117342364
2491,911.580553756603
2491.25,911.837675726388
2491.5,913.686412798734
2491.75,915.138959847105
2492,915.066708543309
2492.25,914.406031688465
2492.5,914.397185060544
2492.75,916.210141691771
2493,919.497493940332
2493.25,922.447560312747
2493.5,923.18900216045
2493.75,920.323841917396
2494,915.406876419599
2494.25,911.12940431114
2494.5,910.180619203543
2494.75,913.60414958551
2495,918.352645543793
2495.25,920.753761898749
2495.5,917.341170222312
2495.75,908.935758763231
2496,900.409023064893
2496.25,896.791105729969
2496.5,902.046336917188
2496.75,913.239149129985
2497,924.686263351118
2497.25,930.720768660182
2497.5,928.407608196944
2497.75,920.061951306322
2498,908.594518714537
2498.25,896.881909450768
2498.5,887.127923768015
2498.75,880.920464581744
2499,879.824721262185
2499.25,884.681405388712
2499.5,892.665138113455
2499.75,899.793631224579
2500,902.175111103762
2500.25,899.413708281789
2500.5,895.631863534656
2500.75,895.251682088585
2501,901.791179351901
2501.25,911.955531015484
2501.5,919.344332554593
2501.75,917.564557925519
2502,904.564409371174
2502.25,887.71083495937
2502.5,875.604805803722
2502.75,876.41128387876
2503,889.704569369287
2503.25,907.198320625158
2503.5,920.31666836092
2503.75,922.84506256245
2504,916.996489959503
2504.25,906.863278492298
2504.5,896.51422552216
2504.75,888.828685818347
2505,884.960012218701
2505.25,885.92602988465
2505.5,892.370912391066
2505.75,901.773437914103
2506,910.018600211233
2506.25,912.991734491215
2506.5,908.909847525107
2506.75,901.04636289719
2507,893.336822545375
2507.25,889.547759138294
2507.5,890.445449543818
2507.75,894.218922859618
2508,898.973413529473
2508.25,902.964052846147
2508.5,905.056021904968
2508.75,904.269675332554
2509,899.670882707861
2509.25,892.113152408039
2509.5,884.782810015024
2509.75,881.023159200554
2510,883.48939383432
2510.25,889.589738857051
2510.5,894.31603385489
2510.75,892.683562142685
2511,883.464093199044
2511.25,872.405952934198
2511.5,866.016220182097
2511.75,870.083613472655
2512,882.725356637371
2512.25,897.41394199811
2512.5,907.576203884939
2512.75,909.606480555164
2513,906.050225534823
2513.25,900.216923618776
2513.5,895.279034161589
2513.75,892.378350709058
2514,891.103440980044
2514.25,891.003490738893
2514.5,891.550138465636
2514.75,891.914422524177
2515,891.194554845811
2515.25,888.537077802114
2515.5,884.538477248634
2515.75,881.462529689943
2516,881.665077523407
2516.25,886.779252422626
2516.5,894.364830958635
2516.75,900.55577426238
2517,901.546908285569
2517.25,896.676456168037
2517.5,889.838347692029
2517.75,885.283603950694
2518,886.75622202889
2518.25,893.596070727632
2518.5,902.879110771856
2518.75,911.667443341338
2519,917.903952068404
2519.25,921.439065979359
2519.5,922.372620707289
2519.75,920.834261727328
2520,917.455921489381
2520.25,913.287143120209
2520.5,909.390163170782
2520.75,906.607450633139
2521,904.52816762471
2521.25,902.297860475538
2521.5,899.066797646351
2521.75,894.640009696019
2522,890.105621250959
2522.25,886.700786728763
2522.5,885.538556729714
2522.75,886.179919108895
2523,887.130033193747
2523.25,886.874603901555
2523.5,884.836298657869
2523.75,883.199086877658
2524,884.653105279986
2524.25,891.697840723899
2524.5,903.399803109811
2524.75,915.850499500823
2525,925.042971244154
2525.25,927.799346166063
2525.5,924.190427593194
2525.75,915.082613931098
2526,901.362595972904
2526.25,885.402812490639
2526.5,872.047702465607
2526.75,866.375419575137
2527,872.760313318969
2527.25,887.860002775311
2527.5,903.565827646527
2527.75,911.726280904082
2528,909.058018957613
2528.25,902.694120687394
2528.5,901.110577660486
2528.75,912.213411301758
2529,934.318252538373
2529.25,957.774165666949
2529.5,972.68851711985
2529.75,972.003586485144
2530,961.640714804666
2530.25,951.233435096597
2530.5,950.414760617306
2530.75,964.91733311778
2531,987.552222022462
2531.25,1008.45821384628
2531.5,1017.82446170252
2531.75,1011.2109886302
2532,994.240731695284
2532.25,973.643021993116
2532.5,956.136584629105
2532.75,946.046447360103
2533,942.283837681943
2533.25,943.015988505259
2533.5,946.412613870215
2533.75,950.767941035019
2534,954.556356905146
2534.25,956.266337151957
2534.5,954.517148296157
2534.75,950.055644170062
2535,945.358369829415
2535.25,942.952011038381
2535.5,944.926357826999
2535.75,949.634589604764
2536,953.533551070247
2536.25,953.065220597407
2536.5,946.061783033496
2536.75,936.20207202945
2537,928.701674019204
2537.25,928.765526945338
2537.5,938.236356577383
2537.75,950.823518619785
2538,959.030778484104
2538.25,955.633322930359
2538.5,941.023474000742
2538.75,924.062893053281
2539,914.055704753177
2539.25,919.566802174235
2539.5,939.063690346088
2539.75,963.706049795424
2540,984.490590355207
2540.25,994.280517462279
2540.5,994.171685440208
2540.75,987.529058772084
2541,977.717666483294
2541.25,967.755373199328
2541.5,959.381158926935
2541.75,954.03958794139
2542,953.173815192039
2542.25,956.963312532069
2542.5,961.998807599341
2542.75,964.238282389885
2543,959.690227751282
2543.25,948.16121966097
2543.5,935.834589528806
2543.75,929.503727068605
2544,935.719425550655
2544.25,954.09071371127
2544.5,976.431525112044
2544.75,994.141811281434
2545,999.590318961349
2545.25,994.115670761591
2545.5,983.913335493491
2545.75,975.226605856599
2546,973.614943749645
2546.25,978.558257222248
2546.5,986.351166397592
2546.75,993.260281494513
2547,996.030011154064
2547.25,994.441458601744
2547.5,989.464799214573
2547.75,982.072979819188
2548,973.277437503093
2548.25,964.316657689104
2548.5,956.512089427859
2548.75,951.185304400188
2549,949.317618752072
2549.25,950.298036487106
2549.5,953.05015999459
2549.75,956.498033549621
2550,959.814739782685
2550.25,962.825071695424
2550.5,965.459116513806
2550.75,967.640309089597
2551,968.851226320571
2551.25,967.865984169607
2551.5,963.394720783445
2551.75,954.215814187575
2552,941.098150278771
2552.25,927.06758119826
2552.5,915.271754452573
2552.75,908.638917331675
2553,907.012707102562
2553.25,907.95970841634
2553.5,908.993296613288
2553.75,908.205961621151
2554,906.240633075523
2554.25,904.442136063233
2554.5,904.137124221798
2554.75,905.549972554737
2555,907.19032597402
2555.25,907.419598913396
2555.5,904.808795812967
2555.75,899.975727478994
2556,894.694525866163
2556.25,890.752130989874
2556.5,889.428853851154
2556.75,890.445901044191
2557,893.225535776652
2557.25,897.162997161343
2557.5,901.096986353042
2557.75,903.343555981256
2558,902.198520854929
2558.25,896.62895244598
2558.5,888.778023713504
2558.75,881.727358266912
2559,878.52320261683
2559.25,880.123361739179
2559.5,884.272781811153
2559.75,888.442846209329
2560,890.443132804121
2560.25,890.426868433947
2560.5,889.539692166117
2560.75,888.927439048766
2561,889.380448515033
2561.25,891.024997020417
2561.5,893.914619268456
2561.75,897.99574030849
2562,902.140335427437
2562.25,904.600478018659
2562.5,903.622176061547
2562.75,898.41318273108
2563,890.813212651491
2563.25,883.108150303722
2563.5,877.524966970816
2563.75,875.010879423342
2564,875.273809441448
2564.25,877.970860129769
2564.5,882.470235653
2564.75,886.957706470242
2565,889.316570036953
2565.25,887.549505778482
2565.5,882.675508551004
2565.75,878.888305992477
2566,880.532717339554
2566.25,890.752279303211
2566.5,906.657853623872
2566.75,923.470664841039
2567,936.478851295491
2567.25,943.590433340485
2567.5,946.112751838691
2567.75,945.579928156902
2568,943.446657872025
2568.25,940.263528590414
2568.5,936.006829564301
2568.75,930.643674626209
2569,924.192217981379
2569.25,916.953065041162
2569.5,909.323980365483
2569.75,901.70292033546
2570,894.51965019707
2570.25,888.280616361173
2570.5,883.503587806147
2570.75,880.637705459277
2571,878.926022607966
2571.25,876.58199988912
2571.5,871.786074034499
2571.75,863.604135628302
2572,854.314089796782
2572.25,846.921943379294
2572.5,844.26472072169
2572.75,846.0008042344
2573,848.959633312705
2573.25,849.875571522414
2573.5,846.76611017664
2573.75,840.811903155376
2574,833.672385771779
2574.25,826.841813619496
2574.5,820.44523222078
2574.75,813.930694003912
2575,806.777594410094
2575.25,799.607798240751
2575.5,794.390857884619
2575.75,793.166406198672
2576,796.323774859732
2576.25,800.536820139418
2576.5,801.971464691118
2576.75,798.034478490404
2577,790.740289446739
2577.25,783.172596147304
2577.5,778.127887810846
2577.75,776.391106761618
2578,777.887327560869
2578.25,782.414473041143
2578.5,788.440126915516
2578.75,793.623156348945
2579,795.735075977327
2579.25,794.618698639837
2579.5,791.828936304803
2579.75,788.964378002975
2580,787.310169085023
2580.25,787.736625777937
2580.5,791.075288272597
2580.75,796.676340665237
2581,800.874599976141
2581.25,799.638951246066
2581.5,790.962240572731
2581.75,779.348669752126
2582,770.609296439194
2582.25,769.393541946159
2582.5,773.525653170984
2582.75,778.345221320916
2583,779.767557698432
2583.25,778.086254066684
2583.5,775.595841289406
2583.75,774.398140632659
2584,774.321992234496
2584.25,773.770055686637
2584.5,771.3282061763
2584.75,768.950095675473
2585,771.342593666792
2585.25,782.847355851796
2585.5,796.795324818528
2585.75,795.07124165063
2586,795.029481314987
2586.25,794.987720979345
2586.5,794.945960643702
2586.75,794.904200308059
2587,794.862439972417
2587.25,794.820679636774
2587.5,794.778919301132
2587.75,794.737158965489
2588,794.695398629846
2588.25,794.653638294204
2588.5,794.611877958561
2588.75,794.570117622918
2589,794.528357287276
2589.25,794.486596951633
2589.5,794.444836615991
2589.75,794.403076280348
2590,794.361315944705
2590.25,794.319555609063
2590.5,794.27779527342
2590.75,794.236034937778
2591,794.194274602135
2591.25,794.152514266492
2591.5,794.11075393085
2591.75,794.068993595207
2592,794.027233259564
2592.25,793.985472923922
2592.5,793.943712588279
2592.75,793.901952252637
2593,793.860191916994
2593.25,793.818431581351
2593.5,793.776671245709
2593.75,793.734910910066
2594,793.693150574424
2594.25,793.651390238781
2594.5,793.609629903138
2594.75,793.567869567496
2595,793.526109231853
2595.25,793.484348896211
2595.5,793.442588560568
2595.75,793.400828224925
2596,793.359067889283
2596.25,793.31730755364
2596.5,793.275547217997
2596.75,793.233786882355
2597,793.192026546712
2597.25,793.15026621107
2597.5,793.108505875427
2597.75,793.066745539784
2598,793.024985204142
2598.25,792.983224868499
2598.5,792.941464532857
2598.75,792.899704197214
2599,792.163472828909
2599.25,790.744042809563
2599.5,789.110901369382
2599.75,787.714049764955
2600,787.00051170263
2600.25,787.377944964563
2600.5,789.095448874708
2600.75,792.362207551964
2601,796.77218367411
2601.25,798.033907680448
2601.5,798.011990827783
2601.75,797.990073975118
2602,797.968157122453
2602.25,797.946240269788
2602.5,797.924323417123
2602.75,797.902406564458
2603,797.880489711794
2603.25,797.858572859129
2603.5,797.836656006464
2603.75,797.814739153799
2604,797.792822301134
2604.25,797.770905448469
2604.5,797.748988595804
2604.75,797.727071743139
2605,797.705154890474
2605.25,797.683238037809
2605.5,797.661321185144
2605.75,797.639404332479
2606,797.617487479814
2606.25,797.595570627149
2606.5,797.573653774484
2606.75,797.551736921819
2607,797.529820069154
2607.25,797.507903216489
2607.5,797.485986363824
2607.75,797.464069511159
2608,797.442152658494
2608.25,797.420235805829
2608.5,797.398318953164
2608.75,797.376402100499
2609,797.354485247835
2609.25,797.33256839517
2609.5,797.310651542505
2609.75,797.28873468984
2610,797.266817837175
2610.25,797.24490098451
2610.5,797.222984131845
2610.75,797.20106727918
2611,797.179150426515
2611.25,797.15723357385
2611.5,797.135316721185
2611.75,797.11339986852
2612,797.091483015855
2612.25,797.06956616319
2612.5,797.047649310525
2612.75,797.02573245786
2613,797.003815605195
2613.25,796.98189875253
2613.5,796.959981899865
2613.75,796.9380650472
2614,796.916148194535
2614.25,796.89423134187
2614.5,796.872314489205
2614.75,796.85039763654
2615,796.828480783876
2615.25,796.806563931211
2615.5,796.784647078546
2615.75,796.762730225881
2616,796.740813373216
2616.25,796.718896520551
2616.5,796.696979667886
2616.75,796.675062815221
2617,796.653145962556
2617.25,796.631229109891
2617.5,796.609312257226
2617.75,796.587395404561
2618,796.565478551896
2618.25,796.543561699231
2618.5,796.521644846566
2618.75,796.499727993901
2619,796.477811141236
2619.25,796.455894288571
2619.5,796.433977435906
2619.75,796.412060583241
2620,796.390143730576
2620.25,796.368226877911
2620.5,796.346310025246
2620.75,796.324393172581
2621,796.302476319917
2621.25,796.280559467252
2621.5,796.258642614587
2621.75,796.236725761922
2622,796.214808909257
2622.25,796.192892056592
2622.5,796.170975203927
2622.75,796.149058351262
2623,796.127141498597
2623.25,796.105224645932
2623.5,796.083307793267
2623.75,796.061390940602
2624,796.039474087937
2624.25,796.017557235272
2624.5,795.995640382607
2624.75,795.973723529942
2625,795.951806677277
2625.25,795.929889824612
2625.5,795.907972971947
2625.75,795.886056119282
2626,795.864139266617
2626.25,795.842222413952
2626.5,795.820305561287
2626.75,795.798388708623
2627,795.776471855958
2627.25,795.754555003293
2627.5,795.732638150628
2627.75,795.710721297963
2628,795.688804445298
2628.25,795.666887592633
2628.5,795.644970739968
2628.75,795.623053887303
2629,795.601137034638
2629.25,795.579220181973
2629.5,795.557303329308
2629.75,795.535386476643
2630,795.513469623978
2630.25,795.491552771313
2630.5,795.469635918648
2630.75,795.447719065983
2631,795.425802213318
2631.25,795.403885360653
2631.5,795.381968507988
2631.75,795.360051655323
2632,795.338134802658
2632.25,795.316217949993
2632.5,795.294301097328
2632.75,795.272384244664
2633,795.250467391999
2633.25,795.228550539334
2633.5,795.206633686669
2633.75,795.184716834004
2634,795.162799981339
2634.25,795.140883128674
2634.5,795.118966276009
2634.75,795.097049423344
2635,795.075132570679
2635.25,795.053215718014
2635.5,795.031298865349
2635.75,795.009382012684
2636,794.987465160019
2636.25,794.965548307354
2636.5,794.943631454689
2636.75,794.921714602024
2637,794.899797749359
2637.25,794.877880896694
2637.5,794.855964044029
2637.75,794.834047191364
2638,794.812130338699
2638.25,794.790213486034
2638.5,794.768296633369
2638.75,794.746379780704
2639,794.724462928039
2639.25,794.702546075374
2639.5,794.68062922271
2639.75,794.658712370045
2640,794.63679551738
2640.25,794.614878664715
2640.5,794.59296181205
2640.75,794.571044959385
2641,794.54912810672
2641.25,794.527211254055
2641.5,794.50529440139
2641.75,794.483377548725
2642,794.46146069606
2642.25,794.439543843395
2642.5,794.41762699073
2642.75,794.395710138065
2643,794.3737932854
2643.25,794.351876432735
2643.5,794.32995958007
2643.75,794.308042727405
2644,794.28612587474
2644.25,794.264209022075
2644.5,794.24229216941
2644.75,794.220375316745
2645,794.19845846408
2645.25,794.176541611415
2645.5,794.154624758751
2645.75,794.132707906086
2646,794.110791053421
2646.25,794.088874200756
2646.5,794.066957348091
2646.75,794.045040495426
2647,794.023123642761
2647.25,794.001206790096
2647.5,793.979289937431
2647.75,793.957373084766
2648,793.935456232101
2648.25,793.913539379436
2648.5,793.891622526771
2648.75,793.869705674106
2649,793.847788821441
2649.25,793.825871968776
2649.5,793.803955116111
2649.75,793.782038263446
2650,793.760121410781
2650.25,793.738204558116
2650.5,793.716287705451
2650.75,793.694370852786
2651,793.672454000121
2651.25,793.650537147456
2651.5,793.628620294792
2651.75,793.606703442127
2652,793.584786589462
2652.25,793.562869736797
2652.5,793.540952884132
2652.75,793.519036031467
2653,793.497119178802
2653.25,793.475202326137
2653.5,793.453285473472
2653.75,793.431368620807
2654,793.409451768142
2654.25,793.387534915477
2654.5,793.365618062812
2654.75,793.343701210147
2655,793.321784357482
2655.25,793.299867504817
2655.5,793.277950652152
2655.75,793.256033799487
2656,793.234116946822
2656.25,793.212200094157
2656.5,793.190283241492
2656.75,793.168366388827
2657,793.146449536162
2657.25,793.124532683497
2657.5,793.102615830833
2657.75,793.080698978168
2658,793.058782125503
2658.25,793.036865272838
2658.5,793.014948420173
2658.75,792.993031567508
2659,792.971114714843
2659.25,792.949197862178
2659.5,792.927281009513
2659.75,792.905364156848
2660,792.883447304183
2660.25,792.861530451518
2660.5,792.839613598853
2660.75,792.817696746188
2661,792.795779893523
2661.25,792.773863040858
2661.5,792.751946188193
2661.75,792.730029335528
2662,792.708112482863
2662.25,792.686195630198
2662.5,792.664278777533
2662.75,792.642361924868
2663,792.620445072203
2663.25,792.598528219538
2663.5,792.576611366874
2663.75,792.554694514209
2664,792.532777661544
2664.25,792.510860808879
2664.5,792.488943956214
2664.75,792.467027103549
2665,792.445110250884
2665.25,792.423193398219
2665.5,792.401276545554
2665.75,792.379359692889
2666,792.357442840224
2666.25,792.335525987559
2666.5,792.313609134894
2666.75,792.291692282229
2667,792.269775429564
2667.25,792.247858576899
2667.5,792.225941724234
2667.75,792.204024871569
2668,792.182108018904
2668.25,792.160191166239
2668.5,792.138274313574
2668.75,792.116357460909
2669,792.094440608244
2669.25,792.072523755579
2669.5,792.050606902915
2669.75,792.02869005025
2670,792.006773197585
2670.25,791.98485634492
2670.5,791.962939492255
2670.75,791.94102263959
2671,791.919105786925
2671.25,791.89718893426
2671.5,791.875272081595
2671.75,791.85335522893
2672,791.831438376265
2672.25,791.8095215236
2672.5,791.787604670935
2672.75,791.76568781827
2673,791.743770965605
2673.25,791.72185411294
2673.5,791.699937260275
2673.75,791.67802040761
2674,791.656103554945
2674.25,791.63418670228
2674.5,791.612269849615
2674.75,791.59035299695
2675,791.568436144285
2675.25,791.54651929162
2675.5,791.524602438956
2675.75,791.502685586291
2676,791.480768733626
2676.25,791.458851880961
2676.5,791.436935028296
2676.75,791.415018175631
2677,791.393101322966
2677.25,791.371184470301
2677.5,791.349267617636
2677.75,791.327350764971
2678,791.305433912306
2678.25,791.283517059641
2678.5,791.261600206976
2678.75,791.239683354311
2679,791.217766501646
2679.25,791.195849648981
2679.5,791.173932796316
2679.75,791.152015943651
2680,791.130099090986
2680.25,791.108182238321
2680.5,791.086265385656
2680.75,791.064348532991
2681,791.042431680326
2681.25,791.020514827661
2681.5,790.998597974997
2681.75,790.976681122332
2682,790.954764269667
2682.25,790.932847417002
2682.5,790.910930564337
2682.75,790.889013711672
2683,790.867096859007
2683.25,790.845180006342
2683.5,790.823263153677
2683.75,790.801346301012
2684,790.779429448347
2684.25,790.757512595682
2684.5,790.735595743017
2684.75,790.713678890352
2685,790.691762037687
2685.25,790.669845185022
2685.5,790.647928332357
2685.75,790.626011479692
2686,790.604094627027
2686.25,790.582177774362
2686.5,790.560260921697
2686.75,790.538344069032
2687,790.516427216367
2687.25,790.494510363702
2687.5,790.472593511038
2687.75,790.450676658373
2688,790.428759805708
2688.25,790.406842953043
2688.5,790.384926100378
2688.75,790.363009247713
2689,790.341092395048
2689.25,790.319175542383
2689.5,790.297258689718
2689.75,790.275341837053
2690,790.253424984388
2690.25,790.231508131723
2690.5,790.209591279058
2690.75,790.187674426393
2691,790.165757573728
2691.25,790.143840721063
2691.5,790.121923868398
2691.75,790.100007015733
2692,790.078090163068
2692.25,790.056173310403
2692.5,790.034256457738
2692.75,790.012339605073
2693,789.990422752408
2693.25,789.968505899743
2693.5,789.946589047079
2693.75,789.924672194414
2694,789.902755341749
2694.25,789.880838489084
2694.5,789.858921636419
2694.75,789.837004783754
2695,789.815087931089
2695.25,789.793171078424
2695.5,789.771254225759
2695.75,789.749337373094
2696,789.727420520429
2696.25,789.705503667764
2696.5,789.683586815099
2696.75,789.661669962434
2697,789.639753109769
2697.25,789.617836257104
2697.5,789.595919404439
2697.75,789.574002551774
2698,789.552085699109
2698.25,789.530168846444
2698.5,789.508251993779
2698.75,789.486335141114
2699,789.464418288449
2699.25,789.442501435784
2699.5,789.42058458312
2699.75,789.398667730455
2700,789.37675087779
2700.25,789.354834025125
2700.5,789.33291717246
2700.75,789.311000319795
2701,789.28908346713
2701.25,789.267166614465
2701.5,789.2452497618
2701.75,789.223332909135
2702,789.20141605647
2702.25,789.179499203805
2702.5,789.15758235114
2702.75,789.135665498475
2703,789.11374864581
2703.25,789.091831793145
2703.5,789.06991494048
2703.75,789.047998087815
2704,789.02608123515
2704.25,789.004164382485
2704.5,788.98224752982
2704.75,788.960330677155
2705,788.93841382449
2705.25,788.916496971825
2705.5,788.894580119161
2705.75,788.872663266495
2706,788.850746413831
2706.25,788.828829561166
2706.5,788.806912708501
2706.75,788.784995855836
2707,788.763079003171
2707.25,788.741162150506
2707.5,788.719245297841
2707.75,788.697328445176
2708,788.675411592511
2708.25,788.653494739846
2708.5,788.631577887181
2708.75,788.609661034516
2709,788.587744181851
2709.25,788.565827329186
2709.5,788.543910476521
2709.75,788.521993623856
2710,788.500076771191
2710.25,788.478159918526
2710.5,788.456243065861
2710.75,788.434326213196
2711,788.412409360531
2711.25,788.390492507866
2711.5,788.368575655201
2711.75,788.346658802536
2712,788.324741949872
2712.25,788.302825097207
2712.5,788.280908244542
2712.75,788.258991391877
2713,788.237074539212
2713.25,788.215157686547
2713.5,788.193240833882
2713.75,788.171323981217
2714,788.149407128552
2714.25,788.127490275887
2714.5,788.105573423222
2714.75,788.083656570557
2715,788.061739717892
2715.25,788.039822865227
2715.5,788.017906012562
2715.75,787.995989159897
2716,787.974072307232
2716.25,787.952155454567
2716.5,787.930238601902
2716.75,787.908321749237
2717,787.886404896572
2717.25,787.864488043907
2717.5,787.842571191242
2717.75,787.820654338577
2718,787.798737485913
2718.25,787.776820633248
2718.5,787.754903780583
2718.75,787.732986927918
2719,787.711070075253
2719.25,787.689153222588
2719.5,787.667236369923
2719.75,787.645319517258
2720,787.623402664593
2720.25,787.601485811928
2720.5,787.579568959263
2720.75,787.557652106598
2721,787.535735253933
2721.25,787.513818401268
2721.5,787.491901548603
2721.75,787.469984695938
2722,787.448067843273
2722.25,787.426150990608
2722.5,787.404234137943
2722.75,787.382317285278
2723,787.360400432613
2723.25,787.338483579948
2723.5,787.316566727283
2723.75,787.294649874618
2724,787.272733021954
2724.25,787.250816169289
2724.5,787.228899316624
2724.75,787.206982463959
2725,787.185065611294
2725.25,787.163148758629
2725.5,787.141231905964
2725.75,787.119315053299
2726,787.097398200634
2726.25,787.075481347969
2726.5,787.053564495304
2726.75,787.031647642639
2727,787.009730789974
2727.25,786.987813937309
2727.5,786.965897084644
2727.75,786.943980231979
2728,786.922063379314
2728.25,786.900146526649
2728.5,786.878229673984
2728.75,786.856312821319
2729,786.834395968654
2729.25,786.812479115989
2729.5,786.790562263324
2729.75,786.768645410659
2730,786.746728557995
2730.25,786.72481170533
2730.5,786.702894852665
2730.75,786.680978
2731,786.659061147335
2731.25,786.63714429467
2731.5,786.615227442005
2731.75,786.59331058934
2732,786.571393736675
2732.25,786.54947688401
2732.5,786.527560031345
2732.75,786.50564317868
2733,786.483726326015
2733.25,786.46180947335
2733.5,786.439892620685
2733.75,786.41797576802
2734,786.396058915355
2734.25,786.37414206269
2734.5,786.352225210025
2734.75,786.33030835736
2735,786.308391504695
2735.25,786.28647465203
2735.5,786.264557799365
2735.75,786.2426409467
2736,786.220724094036
2736.25,786.198807241371
2736.5,786.176890388706
2736.75,786.154973536041
2737,786.133056683376
2737.25,786.111139830711
2737.5,786.089222978046
2737.75,786.067306125381
2738,786.045389272716
2738.25,786.023472420051
2738.5,786.001555567386
2738.75,785.979638714721
2739,785.957721862056
2739.25,785.935805009391
2739.5,785.913888156726
2739.75,785.891971304061
2740,785.870054451396
2740.25,785.848137598731
2740.5,785.826220746066
2740.75,785.804303893401
2741,785.782387040736
2741.25,785.760470188071
2741.5,785.738553335406
2741.75,785.716636482741
2742,785.694719630077
2742.25,785.672802777412
2742.5,785.650885924747
2742.75,785.628969072082
2743,785.607052219417
2743.25,785.585135366752
2743.5,785.563218514087
2743.75,785.541301661422
2744,785.519384808757
2744.25,785.497467956092
2744.5,785.475551103427
2744.75,785.453634250762
2745,785.431717398097
2745.25,785.409800545432
2745.5,785.387883692767
2745.75,785.365966840102
2746,785.344049987437
2746.25,785.322133134772
2746.5,785.300216282107
2746.75,785.278299429442
2747,785.256382576777
2747.25,785.234465724112
2747.5,785.212548871447
2747.75,785.190632018782
2748,785.168715166118
2748.25,785.146798313453
2748.5,785.124881460788
2748.75,785.102964608123
2749,785.081047755458
2749.25,785.059130902793
2749.5,785.037214050128
2749.75,785.015297197463
2750,784.993380344798
2750.25,784.971463492133
2750.5,784.949546639468
2750.75,784.927629786803
2751,784.905712934138
2751.25,784.883796081473
2751.5,784.861879228808
2751.75,784.839962376143
2752,784.818045523478
2752.25,784.796128670813
2752.5,784.774211818148
2752.75,784.752294965483
2753,784.730378112818
2753.25,784.708461260153
2753.5,784.686544407488
2753.75,784.664627554823
2754,784.642710702159
2754.25,784.620793849494
2754.5,784.598876996829
2754.75,784.576960144164
2755,784.555043291499
2755.25,784.533126438834
2755.5,784.511209586169
2755.75,784.489292733504
2756,784.467375880839
2756.25,784.445459028174
2756.5,784.423542175509
2756.75,784.401625322844
2757,784.379708470179
2757.25,784.357791617514
2757.5,784.335874764849
2757.75,784.313957912184
2758,784.292041059519
2758.25,784.270124206854
2758.5,784.248207354189
2758.75,784.226290501524
2759,784.204373648859
2759.25,784.182456796194
2759.5,784.160539943529
2759.75,784.138623090864
2760,784.1167062382
2760.25,784.094789385535
2760.5,784.07287253287
2760.75,784.050955680205
2761,784.02903882754
2761.25,784.007121974875
2761.5,783.98520512221
2761.75,783.963288269545
2762,783.94137141688
2762.25,783.919454564215
2762.5,783.89753771155
2762.75,783.875620858885
2763,783.85370400622
2763.25,783.831787153555
2763.5,783.80987030089
2763.75,783.787953448225
2764,783.76603659556
2764.25,783.744119742895
2764.5,783.72220289023
2764.75,783.700286037565
2765,783.6783691849
2765.25,783.656452332235
2765.5,783.63453547957
2765.75,783.612618626905
2766,783.590701774241
2766.25,783.568784921576
2766.5,783.546868068911
2766.75,783.524951216246
2767,783.503034363581
2767.25,783.481117510916
2767.5,783.459200658251
2767.75,783.437283805586
2768,783.415366952921
2768.25,783.393450100256
2768.5,783.371533247591
2768.75,783.349616394926
2769,783.327699542261
2769.25,783.305782689596
2769.5,783.283865836931
2769.75,783.261948984266
2770,783.240032131601
2770.25,783.218115278936
2770.5,783.196198426271
2770.75,783.174281573606
2771,783.152364720941
2771.25,783.130447868276
2771.5,783.108531015611
2771.75,783.086614162946
2772,783.064697310282
2772.25,783.042780457617
2772.5,783.020863604952
2772.75,782.998946752287
2773,782.977029899622
2773.25,782.955113046957
2773.5,782.933196194292
2773.75,782.911279341627
2774,782.889362488962
2774.25,782.867445636297
2774.5,782.845528783632
2774.75,782.823611930967
2775,782.801695078302
2775.25,782.779778225637
2775.5,782.757861372972
2775.75,782.735944520307
2776,782.714027667642
2776.25,782.692110814977
2776.5,782.670193962312
2776.75,782.648277109647
2777,782.626360256982
2777.25,782.604443404317
2777.5,782.582526551652
2777.75,782.560609698987
2778,782.538692846322
2778.25,782.516775993657
2778.5,782.494859140993
2778.75,782.472942288328
2779,782.451025435663
2779.25,782.429108582998
2779.5,782.407191730333
2779.75,782.385274877668
2780,782.363358025003
2780.25,782.341441172338
2780.5,782.319524319673
2780.75,782.297607467008
2781,782.275690614343
2781.25,782.253773761678
2781.5,782.231856909013
2781.75,782.209940056348
2782,782.188023203683
2782.25,782.166106351018
2782.5,782.144189498353
2782.75,782.122272645688
2783,782.100355793023
2783.25,782.078438940358
2783.5,782.056522087693
2783.75,782.034605235028
2784,782.012688382363
2784.25,781.990771529698
2784.5,781.968854677034
2784.75,781.946937824369
2785,781.925020971704
2785.25,781.903104119039
2785.5,781.881187266374
2785.75,781.859270413709
2786,781.837353561044
2786.25,781.815436708379
2786.5,781.793519855714
2786.75,781.771603003049
2787,781.749686150384
2787.25,781.727769297719
2787.5,781.705852445054
2787.75,781.683935592389
2788,781.662018739724
2788.25,781.640101887059
2788.5,781.618185034394
2788.75,781.596268181729
2789,781.574351329064
2789.25,781.552434476399
2789.5,781.530517623734
2789.75,781.508600771069
2790,781.486683918404
2790.25,781.464767065739
2790.5,781.442850213075
2790.75,781.42093336041
2791,781.399016507745
2791.25,781.37709965508
2791.5,781.355182802415
2791.75,781.33326594975
2792,781.311349097085
2792.25,781.28943224442
2792.5,781.267515391755
2792.75,781.24559853909
2793,781.223681686425
2793.25,781.20176483376
2793.5,781.179847981095
2793.75,781.15793112843
2794,781.136014275765
2794.25,781.1140974231
2794.5,781.092180570435
2794.75,781.07026371777
2795,781.048346865105
2795.25,781.02643001244
2795.5,781.004513159775
2795.75,780.98259630711
2796,780.960679454445
2796.25,780.93876260178
2796.5,780.916845749116
2796.75,780.894928896451
2797,780.873012043786
2797.25,780.851095191121
2797.5,780.829178338456
2797.75,780.807261485791
2798,780.785344633126
2798.25,780.763427780461
2798.5,780.741510927796
2798.75,780.719594075131
2799,780.697677222466
2799.25,780.675760369801
2799.5,780.653843517136
2799.75,780.631926664471
2800,780.610009811806
2800.25,780.588092959141
2800.5,780.566176106476
2800.75,780.544259253811
2801,780.522342401146
2801.25,780.500425548481
2801.5,780.478508695816
2801.75,780.456591843151
2802,780.434674990486
2802.25,780.412758137821
2802.5,780.390841285157
2802.75,780.368924432492
2803,780.347007579827
2803.25,780.325090727162
2803.5,780.303173874497
2803.75,780.281257021832
2804,780.259340169167
2804.25,780.237423316502
2804.5,780.215506463837
2804.75,780.193589611172
2805,780.171672758507
2805.25,780.149755905842
2805.5,780.127839053177
2805.75,780.105922200512
2806,780.084005347847
2806.25,780.062088495182
2806.5,780.040171642517
2806.75,780.018254789852
2807,779.996337937187
2807.25,779.974421084522
2807.5,779.952504231857
2807.75,779.930587379192
2808,779.908670526527
2808.25,779.886753673862
2808.5,779.864836821198
2808.75,779.842919968533
2809,779.821003115868
2809.25,779.799086263203
2809.5,779.777169410538
2809.75,791.935020407948
2810,793.045643727005
2810.25,788.151446543087
2810.5,783.36028141592
2810.75,782.317878916829
2811,783.077034359437
2811.25,782.918261714733
2811.5,780.127663789489
2811.75,776.377113039127
2812,774.050304251294
2812.25,774.963165805402
2812.5,778.091097055913
2812.75,781.523009165648
2813,783.626163459828
2813.25,784.641643980401
2813.5,785.58291138988
2813.75,787.350808295141
2814,789.665766163877
2814.25,791.555053173959
2814.5,792.061345410138
2814.75,790.658512476224
2815,787.191265017063
2815.25,781.546332693064
2815.5,774.847578099374
2815.75,769.869810069798
2816,769.484506246931
2816.25,774.44266588568
2816.5,781.419774310612
2816.75,786.634625387989
2817,787.923458375044
2817.25,786.963755475489
2817.5,785.990781209959
2817.75,786.698820621364
2818,788.82701513258
2818.25,791.672965605546
2818.5,794.526073744498
2818.75,796.630001960763
2819,797.212558083886
2819.25,795.622688199922
2819.5,792.368742623829
2819.75,788.603637893429
2820,785.449000023246
2820.25,783.27324806227
2820.5,781.75545657976
2820.75,780.552981646767
2821,779.47935931632
2821.25,778.558642170555
2821.5,777.828463783007
2821.75,777.188203646697
2822,776.277424385883
2822.25,774.70775382104
2822.5,772.420206909781
2822.75,770.202483017385
2823,768.976417415845
2823.25,769.396857778998
2823.5,771.19928049999
2823.75,773.921418380013
2824,776.968343877472
2824.25,779.171591942342
2824.5,779.207736169214
2824.75,776.187458354349
2825,771.732204953507
2825.25,768.364012456463
2825.5,768.272830654663
2825.75,770.862825299962
2826,774.150988221509
2826.25,776.292176623915
2826.5,777.022715031786
2826.75,777.036904439808
2827,777.030532887233
2827.25,777.514256489523
2827.5,778.852502207101
2827.75,781.362721132742
2828,784.285915311718
2828.25,785.735596980161
2828.5,783.81322483949
2828.75,778.64393848596
2829,773.257111418359
2829.25,770.894973364366
2829.5,772.910490407318
2829.75,776.695725875481
2830,779.146575441774
2830.25,778.514618765544
2830.5,776.655396501095
2830.75,776.016688269166
2831,778.303082623874
2831.25,782.439170144713
2831.5,786.69964653394
2831.75,789.513962112997
2832,790.103049282776
2832.25,787.940205211408
2832.5,782.75810481955
2832.75,776.398631169517
2833,771.730225296609
2833.25,771.381128591943
2833.5,774.592546907351
2833.75,778.148188478102
2834,778.926877146005
2834.25,776.710601816385
2834.5,773.907142621634
2834.75,772.959928943032
2835,774.298369769886
2835.25,775.88577088032
2835.5,775.562428710104
2835.75,772.853683012662
2836,769.916286429324
2836.25,769.126909556038
2836.5,771.50948066773
2836.75,775.285207680615
2837,778.329126720246
2837.25,779.297506628382
2837.5,778.851576807079
2837.75,777.969711219429
2838,777.411455310581
2838.25,777.156658845681
2838.5,777.011591415181
2838.75,776.728068987381
2839,775.786296860392
2839.25,773.581963619041
2839.5,769.731497526699
2839.75,765.388500152474
2840,762.360248001652
2840.25,762.201993593406
2840.5,764.073733282197
2840.75,765.821066014538
2841,765.483392041938
2841.25,763.407736635651
2841.5,761.382594748954
2841.75,761.089077520508
2842,762.381397938653
2842.25,763.761089106458
2842.5,763.80612646726
2842.75,762.917917614502
2843,763.013401882041
2843.25,765.938829235404
2843.5,771.033877693891
2843.75,775.226750004107
2844,775.456561758902
2844.25,771.718357332508
2844.5,767.409554394729
2844.75,766.056198355917
2845,768.626789163528
2845.25,772.346748062626
2845.5,774.165884244519
2845.75,772.855670820364
2846,770.352189282596
2846.25,768.902784868421
2846.5,769.593574776037
2846.75,770.882778843912
2847,770.868401247691
2847.25,768.616435341823
2847.5,765.914374705636
2847.75,765.024448956071
2848,767.418351705273
2848.25,771.720403558995
2848.5,775.914080974664
2848.75,778.290769460166
2849,778.469341322001
2849.25,776.426339128568
2849.5,772.462273495975
2849.75,768.792628873632
2850,768.333983030947
2850.25,773.375633590168
2850.5,781.038997018151
2850.75,785.90696294223
2851,783.147254723995
2851.25,774.344027353465
2851.5,764.958489721003
2851.75,760.278981999901
2852,761.376028951042
2852.25,765.590734784041
2852.5,770.179374634871
2852.75,773.406758083727
2853,774.54840710224
2853.25,772.96109897599
2853.5,769.237903367009
2853.75,765.467172753731
2854,763.801863358482
2854.25,764.876668593389
2854.5,766.959719114922
2854.75,768.127704599958
2855,767.764051342758
2855.25,767.620744902086
2855.5,769.691555755363
2855.75,774.319388878695
2856,778.197625992226
2856.25,777.534185744592
2856.5,770.710226481439
2856.75,762.070895717189
2857,756.975356919768
2857.25,758.966690100076
2857.5,764.650420470689
2857.75,768.975736134832
2858,768.29206918175
2858.25,764.766051055869
2858.5,762.074739457842
2858.75,763.06928012042
2859,766.286145385117
2859.25,768.857490621035
2859.5,768.422877067417
2859.75,765.697315367565
2860,762.546829139863
2860.25,760.700207846811
2860.5,760.814669550609
2860.75,763.050016055106
2861,767.384259087638
2861.25,772.181122615791
2861.5,774.948851956002
2861.75,773.466046831776
2862,768.555119110076
2862.25,762.915595011813
2862.5,759.168331140847
2862.75,758.235445179025
2863,759.673588733327
2863.25,762.970442828254
2863.5,767.030254490555
2863.75,770.231091831584
2864,771.004869101391
2864.25,769.49054810973
2864.5,767.553821715352
2864.75,767.093416961468
2865,768.424069032938
2865.25,769.864828730145
2865.5,769.635727593799
2865.75,767.534999186547
2866,765.740613320448
2866.25,766.610077254498
2866.5,770.634878585265
2866.75,774.81582660589
2867,775.780034783197
2867.25,772.143565725608
2867.5,766.963566227403
2867.75,763.897655502042
2868,765.146914985278
2868.25,768.530308144802
2868.5,771.046095787613
2868.75,770.639182412596
2869,768.615791749967
2869.25,767.027866912512
2869.5,767.345357788536
2869.75,768.379812303435
2870,768.184171921203
2870.25,765.367680386022
2870.5,761.662864026318
2870.75,759.891373475956
2871,762.318933667729
2871.25,767.297770697047
2871.5,771.502625239232
2871.75,772.017836970503
2872,769.251895642148
2872.25,765.206798493604
2872.5,761.841454277355
2872.75,760.542642617786
2873,762.348460673135
2873.25,768.069258451544
2873.5,775.569792129615
2873.75,780.630664467819
2874,779.281224480327
2874.25,772.376829559751
2874.5,764.729813865944
2874.75,761.141878942212
2875,762.700239715648
2875.25,766.281885345717
2875.5,768.587801354963
2875.75,768.25756307962
2876,766.422435411882
2876.25,764.371025355506
2876.5,762.996425192996
2876.75,762.576602000458
2877,763.333156917163
2877.25,765.172669613258
2877.5,767.425779972482
2877.75,769.362204459531
2878,770.335072294029
2878.25,769.873451518106
2878.5,767.53030742168
2878.75,763.647958443726
2879,760.632298282632
2879.25,761.221805507243
2879.5,766.669083584697
2879.75,773.435110487308
2880,777.016859165923
2880.25,774.607878269256
2880.5,769.637790096339
2880.75,766.968665158537
2881,770.19285975519
2881.25,776.445215733088
2881.5,780.812793002514
2881.75,779.36472369792
2882,774.328543799797
2882.25,770.31180175698
2882.5,771.354779659636
2882.75,776.138083951722
2883,780.413886002628
2883.25,780.247851674662
2883.5,775.97322514745
2883.75,770.814405677581
2884,767.934682682393
2884.25,768.113716800601
2884.5,769.894305077301
2884.75,771.756021758186
2885,772.86980107611
2885.25,773.197666905964
2885.5,772.752204240928
2885.75,771.896444817182
2886,771.493508044517
2886.25,772.436502297204
2886.5,774.80044958053
2886.75,777.166116026679
2887,777.958153833359
2887.25,776.399721150558
2887.5,773.575081244206
2887.75,770.832815344955
2888,768.526531832719
2888.25,763.804295612723
2888.5,753.169862850531
2888.75,736.752397706678
2889,729.690398584033
2889.25,751.006035285499
2889.5,804.871494539932
2889.75,804.820157852613
2890,804.768821165294
2890.25,804.717484477974
2890.5,804.666147790655
2890.75,804.614811103335
2891,804.563474416016
2891.25,804.512137728697
2891.5,804.460801041377
2891.75,804.409464354058
2892,804.358127666738
2892.25,804.306790979419
2892.5,804.2554542921
2892.75,804.20411760478
2893,804.152780917461
2893.25,804.101444230142
2893.5,804.050107542822
2893.75,803.998770855503
2894,803.947434168183
2894.25,803.896097480864
2894.5,803.844760793545
2894.75,803.793424106225
2895,803.742087418906
2895.25,803.690750731586
2895.5,803.639414044267
2895.75,803.588077356948
2896,803.536740669628
2896.25,803.485403982309
2896.5,803.43406729499
2896.75,803.38273060767
2897,803.331393920351
2897.25,803.280057233031
2897.5,803.228720545712
2897.75,803.177383858393
2898,803.126047171073
2898.25,803.074710483754
2898.5,803.023373796434
2898.75,802.972037109115
2899,802.920700421796
2899.25,802.869363734476
2899.5,802.818027047157
2899.75,802.766690359837
2900,802.715353672518
2900.25,802.664016985199
2900.5,802.612680297879
2900.75,802.56134361056
2901,802.51000692324
2901.25,802.458670235921
2901.5,802.407333548602
2901.75,802.355996861282
2902,802.304660173963
2902.25,802.253323486643
2902.5,802.201986799324
2902.75,802.150650112005
2903,802.099313424685
2903.25,802.047976737366
2903.5,801.996640050046
2903.75,801.945303362727
2904,801.893966675408
2904.25,801.842629988088
2904.5,801.791293300769
2904.75,801.73995661345
2905,801.68861992613
2905.25,801.637283238811
2905.5,801.585946551491
2905.75,801.534609864172
2906,801.483273176853
2906.25,801.431936489533
2906.5,801.380599802214
2906.75,801.329263114895
2907,801.277926427575
2907.25,801.226589740256
2907.5,801.175253052936
2907.75,801.123916365617
2908,801.072579678298
2908.25,801.021242990978
2908.5,800.969906303659
2908.75,800.918569616339
2909,800.86723292902
2909.25,800.815896241701
2909.5,800.764559554381
2909.75,800.713222867062
2910,800.661886179742
2910.25,800.610549492423
2910.5,800.559212805104
2910.75,800.507876117784
2911,800.456539430465
2911.25,800.405202743145
2911.5,800.353866055826
2911.75,800.302529368507
2912,800.251192681187
2912.25,800.199855993868
2912.5,800.148519306548
2912.75,800.097182619229
2913,800.04584593191
2913.25,799.99450924459
2913.5,799.943172557271
2913.75,799.891835869951
2914,799.840499182632
2914.25,799.789162495313
2914.5,799.737825807993
2914.75,799.686489120674
2915,799.635152433355
2915.25,799.583815746035
2915.5,799.532479058716
2915.75,799.481142371396
2916,799.429805684077
2916.25,799.378468996758
2916.5,799.327132309438
2916.75,799.275795622119
2917,799.224458934799
2917.25,799.17312224748
2917.5,799.121785560161
2917.75,799.070448872841
2918,799.019112185522
2918.25,798.967775498203
2918.5,798.916438810883
2918.75,798.865102123564
2919,798.813765436244
2919.25,798.762428748925
2919.5,798.711092061606
2919.75,798.659755374286
2920,798.608418686967
2920.25,798.557081999647
2920.5,798.505745312328
2920.75,798.454408625009
2921,798.403071937689
2921.25,798.35173525037
2921.5,798.30039856305
2921.75,798.249061875731
2922,798.197725188412
2922.25,798.146388501092
2922.5,798.095051813773
2922.75,798.043715126453
2923,797.992378439134
2923.25,797.941041751815
2923.5,797.889705064495
2923.75,797.838368377176
2924,797.787031689856
2924.25,797.735695002537
2924.5,797.684358315218
2924.75,797.633021627898
2925,797.581684940579
2925.25,797.530348253259
2925.5,797.47901156594
2925.75,797.427674878621
2926,797.376338191301
2926.25,797.325001503982
2926.5,797.273664816663
2926.75,797.222328129343
2927,797.170991442024
2927.25,797.119654754704
2927.5,797.068318067385
2927.75,797.016981380066
2928,796.965644692746
2928.25,796.914308005427
2928.5,796.862971318108
2928.75,796.811634630788
2929,796.760297943469
2929.25,796.708961256149
2929.5,796.65762456883
2929.75,796.606287881511
2930,796.554951194191
2930.25,796.503614506872
2930.5,796.452277819552
2930.75,796.400941132233
2931,796.349604444914
2931.25,796.298267757594
2931.5,796.246931070275
2931.75,796.195594382955
2932,796.144257695636
2932.25,796.092921008317
2932.5,796.041584320997
2932.75,795.990247633678
2933,795.938910946358
2933.25,795.887574259039
2933.5,795.83623757172
2933.75,795.7849008844
2934,795.733564197081
2934.25,795.682227509761
2934.5,795.630890822442
2934.75,795.579554135123
2935,795.528217447803
2935.25,795.476880760484
2935.5,795.425544073164
2935.75,795.374207385845
2936,795.322870698526
2936.25,795.271534011206
2936.5,795.220197323887
2936.75,795.168860636568
2937,795.117523949248
2937.25,795.066187261929
2937.5,795.014850574609
2937.75,794.96351388729
2938,794.912177199971
2938.25,794.860840512651
2938.5,794.809503825332
2938.75,794.758167138012
2939,794.706830450693
2939.25,794.655493763374
2939.5,794.604157076054
2939.75,794.552820388735
2940,794.501483701416
2940.25,794.450147014096
2940.5,794.398810326777
2940.75,794.347473639457
2941,794.296136952138
2941.25,794.244800264819
2941.5,794.193463577499
2941.75,794.14212689018
2942,794.09079020286
2942.25,794.039453515541
2942.5,793.988116828222
2942.75,793.936780140902
2943,793.885443453583
2943.25,793.834106766263
2943.5,793.782770078944
2943.75,793.731433391625
2944,793.680096704305
2944.25,793.628760016986
2944.5,793.577423329666
2944.75,793.526086642347
2945,793.474749955028
2945.25,793.423413267708
2945.5,793.372076580389
2945.75,793.320739893069
2946,793.26940320575
2946.25,793.218066518431
2946.5,793.166729831111
2946.75,793.115393143792
2947,793.064056456472
2947.25,793.012719769153
2947.5,792.961383081834
2947.75,792.910046394514
2948,792.858709707195
2948.25,792.807373019876
2948.5,792.756036332556
2948.75,792.704699645237
2949,792.653362957917
2949.25,792.602026270598
2949.5,792.550689583279
2949.75,792.499352895959
2950,792.44801620864
2950.25,792.39667952132
2950.5,792.345342834001
2950.75,792.294006146682
2951,792.242669459362
2951.25,792.191332772043
2951.5,792.139996084724
2951.75,792.088659397404
2952,792.037322710085
2952.25,791.985986022765
2952.5,791.934649335446
2952.75,791.883312648127
2953,791.831975960807
2953.25,791.780639273488
2953.5,791.729302586168
2953.75,791.677965898849
2954,791.62662921153
2954.25,791.57529252421
2954.5,791.523955836891
2954.75,791.472619149571
2955,791.421282462252
2955.25,791.369945774933
2955.5,791.318609087613
2955.75,791.267272400294
2956,791.215935712974
2956.25,791.164599025655
2956.5,791.113262338336
2956.75,791.061925651016
2957,791.010588963697
2957.25,790.959252276377
2957.5,790.907915589058
2957.75,790.856578901739
2958,790.805242214419
2958.25,790.7539055271
2958.5,790.702568839781
2958.75,790.651232152461
2959,790.599895465142
2959.25,790.548558777822
2959.5,790.497222090503
2959.75,790.445885403184
2960,790.394548715864
2960.25,790.343212028545
2960.5,790.291875341225
2960.75,790.240538653906
2961,790.189201966587
2961.25,790.137865279267
2961.5,790.086528591948
2961.75,790.035191904629
2962,789.983855217309
2962.25,789.93251852999
2962.5,789.88118184267
2962.75,789.829845155351
2963,789.778508468032
2963.25,789.727171780712
2963.5,789.675835093393
2963.75,789.624498406073
2964,789.573161718754
2964.25,789.521825031435
2964.5,789.470488344115
2964.75,789.419151656796
2965,789.367814969476
2965.25,789.316478282157
2965.5,789.265141594838
2965.75,789.213804907518
2966,789.162468220199
2966.25,789.111131532879
2966.5,789.05979484556
2966.75,789.008458158241
2967,788.957121470921
2967.25,788.905784783602
2967.5,788.854448096282
2967.75,788.803111408963
2968,788.751774721644
2968.25,788.700438034324
2968.5,788.649101347005
2968.75,788.597764659685
2969,788.546427972366
2969.25,788.495091285047
2969.5,788.443754597727
2969.75,788.392417910408
2970,788.341081223089
2970.25,788.289744535769
2970.5,788.23840784845
2970.75,788.18707116113
2971,788.135734473811
2971.25,788.084397786492
2971.5,788.033061099172
2971.75,787.981724411853
2972,787.930387724533
2972.25,787.879051037214
2972.5,787.827714349895
2972.75,787.776377662575
2973,787.725040975256
2973.25,787.673704287937
2973.5,787.622367600617
2973.75,787.571030913298
2974,787.519694225978
2974.25,787.468357538659
2974.5,787.41702085134
2974.75,787.36568416402
2975,787.314347476701
2975.25,787.263010789381
2975.5,787.211674102062
2975.75,787.160337414743
2976,787.109000727423
2976.25,787.057664040104
2976.5,787.006327352784
2976.75,786.954990665465
2977,786.903653978146
2977.25,786.852317290826
2977.5,786.800980603507
2977.75,786.749643916187
2978,786.698307228868
2978.25,786.646970541549
2978.5,786.595633854229
2978.75,786.54429716691
2979,786.49296047959
2979.25,786.441623792271
2979.5,786.390287104952
2979.75,786.338950417632
2980,786.287613730313
2980.25,786.236277042993
2980.5,786.184940355674
2980.75,786.133603668355
2981,786.082266981035
2981.25,786.030930293716
2981.5,785.979593606397
2981.75,785.928256919077
2982,785.876920231758
2982.25,785.825583544438
2982.5,785.774246857119
2982.75,785.7229101698
2983,785.67157348248
2983.25,785.620236795161
2983.5,785.568900107842
2983.75,785.517563420522
2984,785.466226733203
2984.25,785.414890045883
2984.5,785.363553358564
2984.75,785.312216671245
2985,785.260879983925
2985.25,785.209543296606
2985.5,785.158206609286
2985.75,785.106869921967
2986,785.055533234648
2986.25,785.004196547328
2986.5,784.952859860009
2986.75,784.901523172689
2987,784.85018648537
2987.25,784.798849798051
2987.5,784.747513110731
2987.75,784.696176423412
2988,784.644839736092
2988.25,784.593503048773
2988.5,784.542166361454
2988.75,784.490829674134
2989,784.439492986815
2989.25,784.388156299495
2989.5,784.336819612176
2989.75,784.285482924857
2990,784.234146237537
2990.25,784.182809550218
2990.5,784.131472862898
2990.75,784.080136175579
2991,784.02879948826
2991.25,783.97746280094
2991.5,783.926126113621
2991.75,783.874789426302
2992,783.823452738982
2992.25,783.772116051663
2992.5,783.720779364343
2992.75,783.669442677024
2993,783.618105989705
2993.25,783.566769302385
2993.5,783.515432615066
2993.75,783.464095927746
2994,783.412759240427
2994.25,783.361422553108
2994.5,783.310085865788
2994.75,783.258749178469
2995,783.20741249115
2995.25,783.15607580383
2995.5,783.104739116511
2995.75,783.053402429191
2996,783.002065741872
2996.25,782.950729054553
2996.5,782.899392367233
2996.75,782.848055679914
2997,782.796718992594
2997.25,782.745382305275
2997.5,782.694045617956
2997.75,782.642708930636
2998,782.591372243317
2998.25,782.540035555997
2998.5,782.488698868678
2998.75,782.437362181359
2999,782.386025494039
2999.25,782.33468880672
2999.5,782.2833521194
2999.75,782.232015432081
3000,782.180678744762
3000.25,782.129342057442
3000.5,782.078005370123
3000.75,782.026668682803
3001,781.975331995484
3001.25,781.923995308165
3001.5,781.872658620845
3001.75,781.821321933526
3002,781.769985246206
3002.25,781.718648558887
3002.5,781.667311871568
3002.75,781.615975184248
3003,781.564638496929
3003.25,781.51330180961
3003.5,781.46196512229
3003.75,781.410628434971
3004,781.359291747651
3004.25,781.307955060332
3004.5,781.256618373013
3004.75,781.205281685693
3005,781.153944998374
3005.25,781.102608311055
3005.5,781.051271623735
3005.75,780.999934936416
3006,780.948598249096
3006.25,780.897261561777
3006.5,780.845924874458
3006.75,780.794588187138
3007,780.743251499819
3007.25,780.691914812499
3007.5,780.64057812518
3007.75,780.589241437861
3008,780.537904750541
3008.25,780.486568063222
3008.5,780.435231375902
3008.75,780.383894688583
3009,780.332558001264
3009.25,780.281221313944
3009.5,780.229884626625
3009.75,780.178547939305
3010,780.127211251986
3010.25,780.075874564667
3010.5,780.024537877347
3010.75,779.973201190028
3011,779.921864502708
3011.25,779.870527815389
3011.5,779.81919112807
3011.75,779.76785444075
3012,779.716517753431
3012.25,779.665181066111
3012.5,779.613844378792
3012.75,779.562507691473
3013,779.511171004153
3013.25,779.459834316834
3013.5,779.408497629515
3013.75,779.357160942195
3014,779.305824254876
3014.25,779.254487567556
3014.5,779.203150880237
3014.75,779.151814192918
3015,779.100477505598
3015.25,779.049140818279
3015.5,778.997804130959
3015.75,778.94646744364
3016,778.895130756321
3016.25,778.843794069001
3016.5,778.792457381682
3016.75,778.741120694363
3017,778.689784007043
3017.25,778.638447319724
3017.5,778.587110632404
3017.75,778.535773945085
3018,778.484437257766
3018.25,778.433100570446
3018.5,778.381763883127
3018.75,778.330427195807
3019,778.279090508488
3019.25,778.227753821169
3019.5,778.176417133849
3019.75,778.12508044653
3020,778.07374375921
3020.25,778.022407071891
3020.5,777.971070384572
3020.75,777.919733697252
3021,777.868397009933
3021.25,777.817060322613
3021.5,777.765723635294
3021.75,777.714386947975
3022,777.663050260655
3022.25,777.611713573336
3022.5,777.560376886016
3022.75,777.509040198697
3023,777.457703511378
3023.25,777.406366824058
3023.5,777.355030136739
3023.75,777.303693449419
3024,777.2523567621
3024.25,777.201020074781
3024.5,777.149683387461
3024.75,777.098346700142
3025,777.047010012823
3025.25,776.995673325503
3025.5,776.944336638184
3025.75,776.892999950864
3026,776.841663263545
3026.25,776.790326576226
3026.5,776.738989888906
3026.75,776.687653201587
3027,776.636316514267
3027.25,776.584979826948
3027.5,776.533643139629
3027.75,776.482306452309
3028,776.43096976499
3028.25,776.379633077671
3028.5,776.328296390351
3028.75,776.276959703032
3029,776.225623015712
3029.25,776.174286328393
3029.5,776.122949641074
3029.75,776.071612953754
3030,776.020276266435
3030.25,775.968939579115
3030.5,775.917602891796
3030.75,775.866266204477
3031,775.814929517157
3031.25,775.763592829838
3031.5,775.712256142518
3031.75,775.660919455199
3032,775.60958276788
3032.25,775.55824608056
3032.5,775.506909393241
3032.75,775.455572705921
3033,775.404236018602
3033.25,775.352899331283
3033.5,775.301562643963
3033.75,775.250225956644
3034,775.198889269324
3034.25,775.147552582005
3034.5,775.096215894686
3034.75,775.044879207366
3035,774.993542520047
3035.25,774.942205832728
3035.5,774.890869145408
3035.75,774.839532458089
3036,774.788195770769
3036.25,774.73685908345
3036.5,774.685522396131
3036.75,774.634185708811
3037,774.582849021492
3037.25,774.531512334172
3037.5,774.480175646853
3037.75,774.428838959534
3038,774.377502272214
3038.25,774.326165584895
3038.5,774.274828897576
3038.75,774.223492210256
3039,774.172155522937
3039.25,774.120818835617
3039.5,774.069482148298
3039.75,774.018145460979
3040,773.966808773659
3040.25,773.91547208634
3040.5,773.86413539902
3040.75,773.812798711701
3041,773.761462024382
3041.25,773.710125337062
3041.5,773.658788649743
3041.75,773.607451962423
3042,773.556115275104
3042.25,773.504778587785
3042.5,773.453441900465
3042.75,773.402105213146
3043,773.350768525826
3043.25,773.299431838507
3043.5,773.248095151188
3043.75,773.196758463868
3044,773.145421776549
3044.25,773.094085089229
3044.5,773.04274840191
3044.75,772.991411714591
3045,772.940075027271
3045.25,772.888738339952
3045.5,772.837401652632
3045.75,772.786064965313
3046,772.734728277994
3046.25,772.683391590674
3046.5,772.632054903355
3046.75,772.580718216036
3047,772.529381528716
3047.25,772.478044841397
3047.5,772.426708154077
3047.75,772.375371466758
3048,772.324034779439
3048.25,772.272698092119
3048.5,772.2213614048
3048.75,772.17002471748
3049,772.118688030161
3049.25,772.067351342842
3049.5,772.016014655522
3049.75,771.964677968203
3050,771.913341280884
3050.25,771.862004593564
3050.5,771.810667906245
3050.75,771.759331218925
3051,771.707994531606
3051.25,771.656657844287
3051.5,771.605321156967
3051.75,771.553984469648
3052,771.502647782328
3052.25,771.451311095009
3052.5,771.39997440769
3052.75,771.34863772037
3053,771.297301033051
3053.25,771.245964345731
3053.5,771.194627658412
3053.75,771.143290971093
3054,771.091954283773
3054.25,771.040617596454
3054.5,770.989280909134
3054.75,770.937944221815
3055,770.886607534496
3055.25,770.835270847176
3055.5,770.783934159857
3055.75,770.732597472537
3056,770.681260785218
3056.25,770.629924097899
3056.5,770.578587410579
3056.75,770.52725072326
3057,770.47591403594
3057.25,770.424577348621
3057.5,770.373240661302
3057.75,770.321903973982
3058,770.270567286663
3058.25,770.219230599344
3058.5,770.167893912024
3058.75,770.116557224705
3059,770.065220537385
3059.25,770.013883850066
3059.5,769.962547162747
3059.75,769.911210475427
3060,769.859873788108
3060.25,769.808537100789
3060.5,769.757200413469
3060.75,769.70586372615
3061,769.65452703883
3061.25,769.603190351511
3061.5,769.551853664192
3061.75,769.500516976872
3062,769.449180289553
3062.25,769.397843602233
3062.5,769.346506914914
3062.75,769.295170227595
3063,769.243833540275
3063.25,769.192496852956
3063.5,769.141160165636
3063.75,769.089823478317
3064,769.038486790998
3064.25,768.987150103678
3064.5,768.935813416359
3064.75,768.884476729039
3065,768.83314004172
3065.25,768.781803354401
3065.5,768.730466667081
3065.75,768.679129979762
3066,768.627793292442
3066.25,768.576456605123
3066.5,768.525119917804
3066.75,768.473783230484
3067,768.422446543165
3067.25,768.371109855845
3067.5,768.319773168526
3067.75,768.268436481207
3068,768.217099793887
3068.25,768.165763106568
3068.5,768.114426419249
3068.75,768.063089731929
3069,768.01175304461
3069.25,767.96041635729
3069.5,767.909079669971
3069.75,767.857742982652
3070,767.806406295332
3070.25,767.755069608013
3070.5,767.703732920693
3070.75,767.652396233374
3071,767.601059546055
3071.25,767.549722858735
3071.5,767.498386171416
3071.75,767.447049484097
3072,767.395712796777
3072.25,767.344376109458
3072.5,767.293039422138
3072.75,767.241702734819
3073,767.1903660475
3073.25,767.13902936018
3073.5,767.087692672861
3073.75,767.036355985541
3074,766.985019298222
3074.25,766.933682610903
3074.5,766.882345923583
3074.75,766.831009236264
3075,766.779672548944
3075.25,766.728335861625
3075.5,766.676999174306
3075.75,766.625662486986
3076,766.574325799667
3076.25,766.522989112347
3076.5,766.471652425028
3076.75,766.420315737709
3077,766.368979050389
3077.25,766.31764236307
3077.5,766.26630567575
3077.75,766.214968988431
3078,766.163632301112
3078.25,766.112295613792
3078.5,766.060958926473
3078.75,766.009622239153
3079,765.958285551834
3079.25,765.906948864515
3079.5,765.855612177195
3079.75,765.804275489876
3080,765.752938802557
3080.25,765.701602115237
3080.5,765.650265427918
3080.75,765.598928740598
3081,765.547592053279
3081.25,765.49625536596
3081.5,765.44491867864
3081.75,765.393581991321
3082,765.342245304001
3082.25,765.290908616682
3082.5,765.239571929363
3082.75,765.188235242043
3083,765.136898554724
3083.25,765.085561867405
3083.5,765.034225180085
3083.75,764.982888492766
3084,764.931551805446
3084.25,764.880215118127
3084.5,764.828878430808
3084.75,764.777541743488
3085,764.726205056169
3085.25,764.674868368849
3085.5,764.62353168153
3085.75,764.572194994211
3086,764.520858306891
3086.25,764.469521619572
3086.5,764.418184932252
3086.75,764.366848244933
3087,764.315511557614
3087.25,764.264174870294
3087.5,764.212838182975
3087.75,764.161501495655
3088,764.110164808336
3088.25,764.058828121017
3088.5,764.007491433697
3088.75,763.956154746378
3089,763.904818059058
3089.25,763.853481371739
3089.5,763.80214468442
3089.75,763.7508079971
3090,763.699471309781
3090.25,763.648134622462
3090.5,763.596797935142
3090.75,763.545461247823
3091,763.494124560503
3091.25,763.442787873184
3091.5,763.391451185865
3091.75,763.340114498545
3092,763.288777811226
3092.25,763.237441123906
3092.5,763.186104436587
3092.75,763.134767749268
3093,763.083431061948
3093.25,763.032094374629
3093.5,762.98075768731
3093.75,762.92942099999
3094,762.878084312671
3094.25,762.826747625351
3094.5,762.775410938032
3094.75,762.724074250713
3095,762.672737563393
3095.25,762.621400876074
3095.5,762.570064188754
3095.75,762.518727501435
3096,762.467390814116
3096.25,762.416054126796
3096.5,762.364717439477
3096.75,762.313380752157
3097,762.262044064838
3097.25,762.210707377519
3097.5,762.159370690199
3097.75,762.10803400288
3098,762.05669731556
3098.25,762.005360628241
3098.5,761.954023940922
3098.75,761.902687253602
3099,761.851350566283
3099.25,761.800013878963
3099.5,761.748677191644
3099.75,761.697340504325
3100,761.646003817005
3100.25,761.594667129686
3100.5,761.543330442366
3100.75,761.491993755047
3101,761.440657067728
3101.25,761.389320380408
3101.5,761.337983693089
3101.75,761.28664700577
3102,761.23531031845
3102.25,761.183973631131
3102.5,761.132636943811
3102.75,761.081300256492
3103,761.029963569173
3103.25,760.978626881853
3103.5,760.927290194534
3103.75,760.875953507214
3104,760.824616819895
3104.25,760.773280132576
3104.5,760.721943445256
3104.75,760.670606757937
3105,760.619270070618
3105.25,760.567933383298
3105.5,760.516596695979
3105.75,760.465260008659
3106,760.41392332134
3106.25,760.362586634021
3106.5,760.311249946701
3106.75,760.259913259382
3107,760.208576572062
3107.25,760.157239884743
3107.5,760.105903197424
3107.75,760.054566510104
3108,760.003229822785
3108.25,759.951893135465
3108.5,759.900556448146
3108.75,759.849219760827
3109,759.797883073507
3109.25,759.746546386188
3109.5,759.695209698868
3109.75,759.643873011549
3110,759.59253632423
3110.25,759.54119963691
3110.5,759.489862949591
3110.75,759.438526262271
3111,759.387189574952
3111.25,759.335852887633
3111.5,759.284516200313
3111.75,759.233179512994
3112,759.181842825674
3112.25,759.130506138355
3112.5,759.079169451036
3112.75,759.027832763716
3113,758.976496076397
3113.25,758.925159389078
3113.5,758.873822701758
3113.75,758.822486014439
3114,758.771149327119
3114.25,758.7198126398
3114.5,758.668475952481
3114.75,758.617139265161
3115,758.565802577842
3115.25,758.514465890523
3115.5,758.463129203203
3115.75,758.411792515884
3116,758.360455828564
3116.25,758.309119141245
3116.5,758.257782453926
3116.75,758.206445766606
3117,758.155109079287
3117.25,758.103772391967
3117.5,758.052435704648
3117.75,758.001099017329
3118,757.949762330009
3118.25,757.89842564269
3118.5,757.84708895537
3118.75,757.795752268051
3119,757.744415580732
3119.25,757.693078893412
3119.5,757.641742206093
3119.75,757.590405518773
3120,757.539068831454
3120.25,757.487732144135
3120.5,757.436395456815
3120.75,757.385058769496
3121,757.333722082176
3121.25,757.282385394857
3121.5,757.231048707538
3121.75,757.179712020218
3122,757.128375332899
3122.25,757.077038645579
3122.5,757.02570195826
3122.75,756.974365270941
3123,756.923028583621
3123.25,756.871691896302
3123.5,756.820355208983
3123.75,756.769018521663
3124,756.717681834344
3124.25,756.666345147024
3124.5,756.615008459705
3124.75,756.563671772386
3125,756.512335085066
3125.25,756.460998397747
3125.5,756.409661710427
3125.75,756.358325023108
3126,756.306988335789
3126.25,756.255651648469
3126.5,756.20431496115
3126.75,756.152978273831
3127,756.101641586511
