2259,32.5169830747277
2259.25,32.4320153176423
2259.5,32.3470475605571
2259.75,32.2620798034717
2260,32.1771120463864
2260.25,32.0921442893011
2260.5,32.0071765322158
2260.75,31.9222087751305
2261,31.8372410180451
2261.25,31.7522732609599
2261.5,31.6673055038745
2261.75,31.5823377467893
2262,31.4973699897039
2262.25,31.4124022326186
2262.5,31.3274344755333
2262.75,31.2424667184479
2263,31.1574989613627
2263.25,31.0725312042773
2263.5,31.0036578096494
2263.75,31.0286483264392
2264,31.053638843229
2264.25,31.0786293600188
2264.5,31.1036198768086
2264.75,31.1286103935984
2265,31.1536009103882
2265.25,31.178591427178
2265.5,31.2035819439678
2265.75,31.2285724607576
2266,31.2535629775474
2266.25,31.2785534943372
2266.5,31.303544011127
2266.75,31.3285345279168
2267,31.3535250447066
2267.25,31.3785155614964
2267.5,31.4035060782862
2267.75,31.428496595076
2268,31.4534871118658
2268.25,31.4784776286556
2268.5,31.5013872581781
2268.75,31.5113834648941
2269,31.52137967161
2269.25,31.5313758783259
2269.5,31.5413720850418
2269.75,31.5513682917577
2270,31.5613644984737
2270.25,31.5713607051896
2270.5,31.5813569119055
2270.75,31.5913531186214
2271,31.6013493253373
2271.25,31.6113455320533
2271.5,31.6213417387692
2271.75,31.6313379454851
2272,31.641334152201
2272.25,31.6513303589169
2272.5,31.6613265656329
2272.75,31.6713227723488
2273,31.6813189790647
2273.25,31.6913151857806
2273.5,31.7026227849931
2273.75,31.7226151984249
2274,31.7426076118567
2274.25,31.7626000252886
2274.5,31.7825924387204
2274.75,31.8025848521523
2275,31.8225772655841
2275.25,31.8425696790159
2275.5,31.8625620924478
2275.75,31.8825545058796
2276,31.9025469193114
2276.25,31.9225393327433
2276.5,31.9425317461751
2276.75,31.9625241596069
2277,31.9825165730388
2277.25,32.0025089864706
2277.5,32.0225013999025
2277.75,32.0424938133343
2278,32.0624862267661
2278.25,32.082478640198
2278.5,32.0925868391106
2278.75,32.032609598815
2279,31.9726323585195
2279.25,31.912655118224
2279.5,31.8526778779285
2279.75,31.792700637633
2280,31.7327233973375
2280.25,31.6727461570419
2280.5,31.6127689167464
2280.75,31.5527916764509
2281,31.4928144361554
2281.25,31.4328371958599
2281.5,31.3728599555644
2281.75,31.3128827152689
2282,31.2529054749733
2282.25,31.1929282346778
2282.5,31.1329509943823
2282.75,31.0729737540868
2283,31.0129965137913
2283.25,30.9530192734958
2283.5,30.8942016943336
2283.75,30.8442206607539
2284,30.7942396271743
2284.25,30.7442585935948
2284.5,30.6942775600151
2284.75,30.6442965264356
2285,30.594315492856
2285.25,30.5443344592764
2285.5,30.4943534256968
2285.75,30.4443723921172
2286,30.3943913585376
2286.25,30.344410324958
2286.5,30.2944292913784
2286.75,30.2444482577988
2287,30.1944672242192
2287.25,30.1444861906396
2287.5,30.09450515706
2287.75,30.0445241234804
2288,29.9945430899008
2288.25,29.9445620563212
2288.5,29.8972905113708
2288.75,29.872299994581
2289,29.8473094777912
2289.25,29.8223189610014
2289.5,29.7973284442116
2289.75,29.7723379274218
2290,29.747347410632
2290.25,29.7223568938422
2290.5,29.6973663770524
2290.75,29.6723758602626
2291,29.6473853434728
2291.25,29.622394826683
2291.5,29.5974043098933
2291.75,29.5724137931034
2292,29.5474232763136
2292.25,29.5224327595238
2292.5,29.497442242734
2292.75,29.4724517259443
2293,29.4474612091544
2293.25,29.4224706923647
2293.5,29.3949603511497
2293.75,29.3449793175701
2294,29.2949982839905
2294.25,29.2450172504109
2294.5,29.1950362168313
2294.75,29.1450551832517
2295,29.0950741496722
2295.25,29.0450931160925
2295.5,28.995112082513
2295.75,28.9451310489334
2296,28.8951500153537
2296.25,28.8451689817742
2296.5,28.7951879481946
2296.75,28.745206914615
2297,28.6952258810354
2297.25,28.6452448474558
2297.5,28.5952638138762
2297.75,28.5452827802966
2298,28.495301746717
2298.25,28.4453207131374
2298.5,28.4018641281769
2298.75,28.4218565416087
2299,28.4418489550405
2299.25,28.4618413684724
2299.5,28.4818337819042
2299.75,28.5018261953361
2300,28.5218186087679
2300.25,28.5418110221997
2300.5,28.5618034356316
2300.75,28.5817958490634
2301,28.6017882624953
2301.25,28.6217806759271
2301.5,28.6417730893589
2301.75,28.6617655027908
2302,28.6817579162226
2302.25,28.7017503296545
2302.5,28.7217427430863
2302.75,28.7417351565181
2303,28.76172756995
2303.25,28.7817199833818
2303.5,28.8055652896444
2303.75,28.8705406332978
2304,28.9355159769513
2304.25,29.0004913206048
2304.5,29.0654666642583
2304.75,29.1304420079117
2305,29.1954173515652
2305.25,29.2603926952187
2305.5,29.3253680388721
2305.75,29.3903433825256
2306,29.4553187261791
2306.25,29.5202940698326
2306.5,29.585269413486
2306.75,29.6502447571395
2307,29.715220100793
2307.25,29.7801954444465
2307.5,29.8451707881
2307.75,29.9101461317534
2308,29.9751214754069
2308.25,30.0400968190604
2308.5,30.1011704990878
2308.75,30.1161648091617
2309,30.1311591192356
2309.25,30.1461534293095
2309.5,30.1611477393833
2309.75,30.1761420494572
2310,30.1911363595311
2310.25,30.206130669605
2310.5,30.2211249796788
2310.75,30.2361192897527
2311,30.2511135998266
2311.25,30.2661079099005
2311.5,30.2811022199744
2311.75,30.2960965300482
2312,30.3110908401221
2312.25,30.326085150196
2312.5,30.3410794602699
2312.75,30.3560737703437
2313,30.3710680804176
2313.25,30.3860623904915
2313.5,30.4028178681743
2313.75,30.442802695038
2314,30.4827875219017
2314.25,30.5227723487654
2314.5,30.562757175629
2314.75,30.6027420024927
2315,30.6427268293564
2315.25,30.6827116562201
2315.5,30.7226964830838
2315.75,30.7626813099474
2316,30.8026661368111
2316.25,30.8426509636748
2316.5,30.8826357905385
2316.75,30.9226206174021
2317,30.9626054442658
2317.25,31.0025902711295
2317.5,31.0425750979932
2317.75,31.0825599248569
2318,31.1225447517205
2318.25,31.1625295785842
2318.5,31.1955997904662
2318.75,31.1256263434548
2319,31.0556528964433
2319.25,30.9856794494319
2319.5,30.9157060024204
2319.75,30.845732555409
2320,30.7757591083976
2320.25,30.7057856613862
2320.5,30.6358122143747
2320.75,30.5658387673633
2321,30.4958653203519
2321.25,30.4258918733404
2321.5,30.355918426329
2321.75,30.2859449793175
2322,30.2159715323061
2322.25,30.1459980852947
2322.5,30.0760246382833
2322.75,30.0060511912718
2323,29.9360777442604
2323.25,29.866104297249
2323.5,29.8049746211232
2323.75,29.8949404815664
2324,29.9849063420098
2324.25,30.074872202453
2324.5,30.1648380628963
2324.75,30.2548039233396
2325,30.3447697837828
2325.25,30.4347356442261
2325.5,30.5247015046694
2325.75,30.6146673651127
2326,30.7046332255559
2326.25,30.7945990859992
2326.5,30.8845649464425
2326.75,30.9745308068857
2327,31.064496667329
2327.25,31.1544625277723
2327.5,31.2444283882156
2327.75,31.3343942486588
2328,31.4243601091021
2328.25,31.5143259695453
2328.5,31.601907479995
2328.75,31.6418923068586
2329,31.6818771337223
2329.25,31.721861960586
2329.5,31.7618467874496
2329.75,31.8018316143133
2330,31.841816441177
2330.25,31.8818012680407
2330.5,31.9217860949044
2330.75,31.961770921768
2331,32.0017557486317
2331.25,32.0417405754954
2331.5,32.0817254023591
2331.75,32.1217102292227
2332,32.1616950560864
2332.25,32.2016798829501
2332.5,32.2416647098138
2332.75,32.2816495366775
2333,32.3216343635411
2333.25,32.3616191904048
2333.5,32.3971929697802
2333.75,32.3272195227687
2334,32.2572460757573
2334.25,32.1872726287459
2334.5,32.1172991817344
2334.75,32.047325734723
2335,31.9773522877115
2335.25,31.9073788407001
2335.5,31.8374053936887
2335.75,31.7674319466773
2336,31.6974584996658
2336.25,31.6274850526543
2336.5,31.5575116056429
2336.75,31.4875381586315
2337,31.4175647116201
2337.25,31.3475912646086
2337.5,31.2776178175972
2337.75,31.2076443705858
2338,31.1376709235744
2338.25,31.0676974765629
2338.5,30.9970737522804
2338.75,30.9071078918372
2339,30.8171420313939
2339.25,30.7271761709507
2339.5,30.6372103105074
2339.75,30.5472444500641
2340,30.4572785896208
2340.25,30.3673127291775
2340.5,30.2773468687343
2340.75,30.187381008291
2341,30.0974151478478
2341.25,30.0074492874045
2341.5,29.9174834269612
2341.75,29.8275175665179
2342,29.7375517060746
2342.25,29.6475858456314
2342.5,29.5576199851881
2342.75,29.4676541247449
2343,29.3776882643015
2343.25,29.2877224038583
2343.5,29.2004985459078
2343.75,29.2204909593396
2344,29.2404833727715
2344.25,29.2604757862033
2344.5,29.2804681996351
2344.75,29.300460613067
2345,29.3204530264988
2345.25,29.3404454399306
2345.5,29.3604378533625
2345.75,29.3804302667943
2346,29.4004226802262
2346.25,29.420415093658
2346.5,29.4404075070898
2346.75,29.4603999205217
2347,29.4803923339535
2347.25,29.5003847473853
2347.5,29.5203771608172
2347.75,29.540369574249
2348,29.5603619876809
2348.25,29.5803544011127
2348.5,29.6008670363613
2348.75,29.650848069941
2349,29.7008291035205
2349.25,29.7508101371001
2349.5,29.8007911706797
2349.75,29.8507722042593
2350,29.9007532378389
2350.25,29.9507342714185
2350.5,30.0007153049981
2350.75,30.0506963385777
2351,30.1006773721573
2351.25,30.1506584057369
2351.5,30.2006394393165
2351.75,30.2506204728961
2352,30.3006015064757
2352.25,30.3505825400553
2352.5,30.4005635736349
2352.75,30.4505446072145
2353,30.5005256407941
2353.25,30.5505066743737
2353.5,30.5998049168187
2353.75,30.5798125033869
2354,30.559820089955
2354.25,30.5398276765232
2354.5,30.5198352630913
2354.75,30.4998428496595
2355,30.4798504362277
2355.25,30.4598580227958
2355.5,30.439865609364
2355.75,30.4198731959321
2356,30.3998807825003
2356.25,30.3798883690685
2356.5,30.3598959556366
2356.75,30.3399035422048
2357,30.319911128773
2357.25,30.2999187153411
2357.5,30.2799263019093
2357.75,30.2599338884774
2358,30.2399414750456
2358.25,30.2199490616138
2358.5,30.1997724029551
2358.75,30.094812232438
2359,29.9898520619208
2359.25,29.8848918914037
2359.5,29.7799317208865
2359.75,29.6749715503693
2360,29.5700113798522
2360.25,29.465051209335
2360.5,29.3600910388179
2360.75,29.2551308683008
2361,29.1501706977837
2361.25,29.0452105272665
2361.5,28.9402503567493
2361.75,28.8352901862322
2362,28.730330015715
2362.25,28.6253698451979
2362.5,28.5204096746807
2362.75,28.4154495041636
2363,28.3104893336464
2363.25,28.2055291631292
2363.5,28.1005689926121
2363.75,28.1397680677734
2364,28.179752894637
2364.25,28.2197377215007
2364.5,28.2597225483644
2364.75,28.2997073752281
2365,28.3396922020917
2365.25,28.3796770289554
2365.5,28.4196618558191
2365.75,28.4596466826828
2366,28.4996315095465
2366.25,28.5396163364101
2366.5,28.5796011632738
2366.75,28.6195859901375
2367,28.6595708170012
2367.25,28.6995556438648
2367.5,28.7395404707285
2367.75,28.7795252975922
2368,28.8195101244558
2368.25,28.8594949513195
2368.5,28.8994797781832
2368.75,28.9443976806777
2369,28.9893806108994
2369.25,29.034363541121
2369.5,29.0793464713427
2369.75,29.1243294015643
2370,29.1693123317859
2370.25,29.2142952620076
2370.5,29.2592781922292
2370.75,29.3042611224508
2371,29.3492440526725
2371.25,29.3942269828941
2371.5,29.4392099131157
2371.75,29.4841928433374
2372,29.529175773559
2372.25,29.5741587037807
2372.5,29.6191416340023
2372.75,29.6641245642239
2373,29.7091074944456
2373.25,29.7540904246672
2373.5,29.7990733548888
2373.75,29.9370639981214
2374,30.0770108921444
2374.25,30.2169577861672
2374.5,30.3569046801901
2374.75,30.496851574213
2375,30.6367984682358
2375.25,30.7767453622587
2375.5,30.9166922562815
2375.75,31.0566391503044
2376,31.1965860443272
2376.25,31.3365329383502
2376.5,31.476479832373
2376.75,31.6164267263959
2377,31.7563736204188
2377.25,31.8963205144416
2377.5,32.0362674084645
2377.75,32.1762143024873
2378,32.3161611965102
2378.25,32.456108090533
2378.5,32.596054984556
2378.75,32.5417134806091
2379,32.4817362403136
2379.25,32.421759000018
2379.5,32.3617817597225
2379.75,32.301804519427
2380,32.2418272791315
2380.25,32.181850038836
2380.5,32.1218727985405
2380.75,32.061895558245
2381,32.0019183179494
2381.25,31.9419410776539
2381.5,31.8819638373584
2381.75,31.8219865970629
2382,31.7620093567674
2382.25,31.7020321164719
2382.5,31.6420548761764
2382.75,31.5820776358808
2383,31.5221003955853
2383.25,31.4621231552898
2383.5,31.4021459149943
2383.75,31.3903614457831
2384,31.3803652390672
2384.25,31.3703690323513
2384.5,31.3603728256354
2384.75,31.3503766189195
2385,31.3403804122035
2385.25,31.3303842054876
2385.5,31.3203879987717
2385.75,31.3103917920558
2386,31.3003955853399
2386.25,31.2903993786239
2386.5,31.280403171908
2386.75,31.2704069651921
2387,31.2604107584762
2387.25,31.2504145517603
2387.5,31.2404183450443
2387.75,31.2304221383284
2388,31.2204259316125
2388.25,31.2104297248966
2388.5,31.2004335181807
2388.75,31.0900290818446
2389,30.9750727046115
2389.25,30.8601163273785
2389.5,30.7451599501454
2389.75,30.6302035729123
2390,30.5152471956792
2390.25,30.4002908184461
2390.5,30.2853344412131
2390.75,30.17037806398
2391,30.055421686747
2391.25,29.9404653095139
2391.5,29.8255089322808
2391.75,29.7105525550477
2392,29.5955961778147
2392.25,29.4806398005816
2392.5,29.3656834233485
2392.75,29.2507270461155
2393,29.1357706688824
2393.25,29.0208142916494
2393.5,28.9058579144162
2393.75,28.8905131771464
2394,28.8805169704304
2394.25,28.8705207637145
2394.5,28.8605245569986
2394.75,28.8505283502827
2395,28.8405321435668
2395.25,28.8305359368508
2395.5,28.8205397301349
2395.75,28.810543523419
2396,28.8005473167031
2396.25,28.7905511099872
2396.5,28.7805549032712
2396.75,28.7705586965553
2397,28.7605624898394
2397.25,28.7505662831235
2397.5,28.7405700764076
2397.75,28.7305738696917
2398,28.7205776629757
2398.25,28.7105814562598
2398.5,28.7005852495439
2398.75,28.6717671284839
2399,28.6417785083362
2399.25,28.6117898881884
2399.5,28.5818012680407
2399.75,28.5518126478929
2400,28.5218240277451
2400.25,28.4918354075974
2400.5,28.4618467874496
2400.75,28.4318581673019
2401,28.4018695471541
2401.25,28.3718809270064
2401.5,28.3418923068586
2401.75,28.3119036867109
2402,28.2819150665631
2402.25,28.2519264464153
2402.5,28.2219378262676
2402.75,28.1919492061198
2403,28.1619605859721
2403.25,28.1319719658243
2403.5,28.1019833456766
2403.75,28.1373403659616
2404,28.1773251928253
2404.25,28.217310019689
2404.5,28.2572948465527
2404.75,28.2972796734163
2405,28.33726450028
2405.25,28.3772493271437
2405.5,28.4172341540073
2405.75,28.457218980871
2406,28.4972038077347
2406.25,28.5371886345984
2406.5,28.577173461462
2406.75,28.6171582883257
2407,28.6571431151894
2407.25,28.6971279420531
2407.5,28.7371127689167
2407.75,28.7770975957804
2408,28.8170824226441
2408.25,28.8570672495078
2408.5,28.8970520763715
2408.75,28.8351854193385
2409,28.7652119723271
2409.25,28.6952385253157
2409.5,28.6252650783042
2409.75,28.5552916312927
2410,28.4853181842813
2410.25,28.4153447372699
2410.5,28.3453712902585
2410.75,28.275397843247
2411,28.2054243962356
2411.25,28.1354509492242
2411.5,28.0654775022127
2411.75,27.9955040552013
2412,27.9255306081898
2412.25,27.8555571611784
2412.5,27.785583714167
2412.75,27.7156102671556
2413,27.6456368201441
2413.25,27.5756633731327
2413.5,27.5056899261213
2413.75,27.421941438919
2414,27.3369736818338
2414.25,27.2520059247484
2414.5,27.1670381676632
2414.75,27.0820704105778
2415,26.9971026534925
2415.25,26.9121348964072
2415.5,26.8271671393218
2415.75,26.7421993822366
2416,26.6572316251512
2416.25,26.572263868066
2416.5,26.4872961109806
2416.75,26.4023283538953
2417,26.31736059681
2417.25,26.2323928397247
2417.5,26.1474250826394
2417.75,26.062457325554
2418,25.9774895684688
2418.25,25.8925218113834
2418.5,25.8075540542982
2418.75,25.8500912194505
2419,25.9050703563881
2419.25,25.9600494933256
2419.5,26.0150286302632
2419.75,26.0700077672007
2420,26.1249869041383
2420.25,26.1799660410759
2420.5,26.2349451780134
2420.75,26.289924314951
2421,26.3449034518885
2421.25,26.3998825888261
2421.5,26.4548617257636
2421.75,26.5098408627012
2422,26.5648199996387
2422.25,26.6197991365763
2422.5,26.6747782735138
2422.75,26.7297574104514
2423,26.7847365473889
2423.25,26.8397156843265
2423.5,26.8946948212641
2423.75,26.9316107006738
2424,26.9665974241795
2424.25,27.0015841476852
2424.5,27.0365708711909
2424.75,27.0715575946966
2425,27.1065443182024
2425.25,27.1415310417081
2425.5,27.1765177652138
2425.75,27.2115044887195
2426,27.2464912122252
2426.25,27.2814779357309
2426.5,27.3164646592366
2426.75,27.3514513827424
2427,27.3864381062481
2427.25,27.4214248297538
2427.5,27.4564115532595
2427.75,27.4913982767652
2428,27.526385000271
2428.25,27.5613717237767
2428.5,27.5963584472824
2428.75,27.6447788154116
2429,27.6947598489912
2429.25,27.7447408825708
2429.5,27.7947219161504
2429.75,27.84470294973
2430,27.8946839833096
2430.25,27.9446650168892
2430.5,27.9946460504687
2430.75,28.0446270840484
2431,28.094608117628
2431.25,28.1445891512075
2431.5,28.1945701847872
2431.75,28.2445512183667
2432,28.2945322519463
2432.25,28.344513285526
2432.5,28.3944943191055
2432.75,28.4444753526851
2433,28.4944563862648
2433.25,28.5444374198443
2433.5,28.5944184534239
2433.75,28.6932389227073
2434,28.7981990932246
2434.25,28.9031592637417
2434.5,29.0081194342588
2434.75,29.1130796047761
2435,29.2180397752931
2435.25,29.3229999458102
2435.5,29.4279601163273
2435.75,29.5329202868446
2436,29.6378804573617
2436.25,29.7428406278788
2436.5,29.8478007983959
2436.75,29.9527609689132
2437,30.0577211394303
2437.25,30.1626813099474
2437.5,30.2676414804647
2437.75,30.3726016509818
2438,30.4775618214989
2438.25,30.582521992016
2438.5,30.6874821625333
2438.75,30.6339697621069
2439,30.5589982117375
2439.25,30.484026661368
2439.5,30.4090551109987
2439.75,30.3340835606293
2440,30.25911201026
2440.25,30.1841404598905
2440.5,30.1091689095211
2440.75,30.0341973591518
2441,29.9592258087823
2441.25,29.8842542584129
2441.5,29.8092827080436
2441.75,29.7343111576742
2442,29.6593396073047
2442.25,29.5843680569354
2442.5,29.509396506566
2442.75,29.4344249561965
2443,29.3594534058272
2443.25,29.2844818554578
2443.5,29.2095103050885
2443.75,29.2130922490562
2444,29.2280865591301
2444.25,29.243080869204
2444.5,29.2580751792778
2444.75,29.2730694893517
2445,29.2880637994256
2445.25,29.3030581094995
2445.5,29.3180524195734
2445.75,29.3330467296472
2446,29.3480410397211
2446.25,29.363035349795
2446.5,29.3780296598689
2446.75,29.3930239699427
2447,29.4080182800166
2447.25,29.4230125900905
2447.5,29.4380069001644
2447.75,29.4530012102383
2448,29.4679955203121
2448.25,29.482989830386
2448.5,29.4979841404599
2448.75,29.3788677950182
2449,29.2389209009951
2449.25,29.0989740069723
2449.5,28.9590271129496
2449.75,28.8190802189268
2450,28.6791333249037
2450.25,28.5391864308809
2450.5,28.3992395368581
2450.75,28.2592926428351
2451,28.1193457488123
2451.25,27.9793988547895
2451.5,27.8394519607667
2451.75,27.6995050667436
2452,27.5595581727208
2452.25,27.419611278698
2452.5,27.279664384675
2452.75,27.1397174906522
2453,26.9997705966294
2453.25,26.8598237026066
2453.5,26.7198768085835
2453.75,26.8243583027764
2454,26.9693033001571
2454.25,27.1142482975381
2454.5,27.2591932949189
2454.75,27.4041382922996
2455,27.5490832896804
2455.25,27.6940282870614
2455.5,27.8389732844422
2455.75,27.9839182818229
2456,28.1288632792039
2456.25,28.2738082765847
2456.5,28.4187532739655
2456.75,28.5636982713462
2457,28.7086432687272
2457.25,28.853588266108
2457.5,28.9985332634887
2457.75,29.1434782608695
2458,29.2884232582505
2458.25,29.4333682556313
2458.5,29.578313253012
2458.75,29.5787485775184
2459,29.5537580607287
2459.25,29.5287675439389
2459.5,29.5037770271491
2459.75,29.4787865103593
2460,29.4537959935695
2460.25,29.4288054767797
2460.5,29.4038149599899
2460.75,29.3788244432001
2461,29.3538339264103
2461.25,29.3288434096205
2461.5,29.3038528928307
2461.75,29.2788623760409
2462,29.2538718592511
2462.25,29.2288813424613
2462.5,29.2038908256715
2462.75,29.1789003088817
2463,29.1539097920919
2463.25,29.1289192753021
2463.5,29.1039287585123
2463.75,29.2053087913874
2464,29.3302613753366
2464.25,29.4552139592855
2464.5,29.5801665432344
2464.75,29.7051191271833
2465,29.8300717111325
2465.25,29.9550242950814
2465.5,30.0799768790303
2465.75,30.2049294629795
2466,30.3298820469284
2466.25,30.4548346308774
2466.5,30.5797872148263
2466.75,30.7047397987754
2467,30.8296923827244
2467.25,30.9546449666733
2467.5,31.0795975506224
2467.75,31.2045501345714
2468,31.3295027185203
2468.25,31.4544553024692
2468.5,31.5794078864184
2468.75,31.424674409783
2469,31.2147540687488
2469.25,31.0048337277146
2469.5,30.79491338668
2469.75,30.5849930456458
2470,30.3750727046116
2470.25,30.165152363577
2470.5,29.9552320225428
2470.75,29.7453116815086
2471,29.5353913404745
2471.25,29.3254709994399
2471.5,29.1155506584057
2471.75,28.9056303173715
2472,28.6957099763369
2472.25,28.4857896353027
2472.5,28.2758692942685
2472.75,28.0659489532343
2473,27.8560286121998
2473.25,27.6461082711656
2473.5,27.4361879301314
2473.75,27.2676324488356
2474,27.107693141381
2474.25,26.9477538339264
2474.5,26.7878145264718
2474.75,26.6278752190169
2475,26.4679359115622
2475.25,26.3079966041076
2475.5,26.1480572966527
2475.75,25.9881179891981
2476,25.8281786817434
2476.25,25.6682393742888
2476.5,25.5083000668339
2476.75,25.3483607593793
2477,25.1884214519247
2477.25,25.0284821444697
2477.5,24.8685428370151
2477.75,24.7086035295605
2478,24.5486642221059
2478.25,24.388724914651
2478.5,24.2287856071963
2478.75,24.1713101280685
2479,24.1363234045628
2479.25,24.101336681057
2479.5,24.0663499575513
2479.75,24.0313632340456
2480,23.9963765105399
2480.25,23.9613897870342
2480.5,23.9264030635285
2480.75,23.8914163400228
2481,23.856429616517
2481.25,23.8214428930113
2481.5,23.7864561695056
2481.75,23.7514694459999
2482,23.7164827224942
2482.25,23.6814959989885
2482.5,23.6465092754828
2482.75,23.611522551977
2483,23.5765358284713
2483.25,23.5415491049656
2483.5,23.5065623814598
2483.75,23.5446668232149
2484,23.5996459601525
2484.25,23.65462509709
2484.5,23.7096042340276
2484.75,23.7645833709651
2485,23.8195625079027
2485.25,23.8745416448403
2485.5,23.9295207817778
2485.75,23.9844999187153
2486,24.0394790556529
2486.25,24.0944581925905
2486.5,24.149437329528
2486.75,24.2044164664656
2487,24.2593956034032
2487.25,24.3143747403407
2487.5,24.3693538772782
2487.75,24.4243330142158
2488,24.4793121511534
2488.25,24.5342912880909
2488.5,24.5892704250284
2488.75,24.6925218113836
2489,24.8074781886166
2489.25,24.9224345658496
2489.5,25.0373909430826
2489.75,25.1523473203159
2490,25.2673036975489
2490.25,25.3822600747819
2490.5,25.4972164520149
2490.75,25.6121728292481
2491,25.7271292064811
2491.25,25.8420855837141
2491.5,25.9570419609474
2491.75,26.0719983381804
2492,26.1869547154134
2492.25,26.3019110926464
2492.5,26.4168674698796
2492.75,26.5318238471126
2493,26.6467802243456
2493.25,26.7617366015789
2493.5,26.8766929788119
2493.75,26.9239085276639
2494,26.9538971478116
2494.25,26.9838857679594
2494.5,27.0138743881072
2494.75,27.0438630082549
2495,27.0738516284027
2495.25,27.1038402485504
2495.5,27.1338288686982
2495.75,27.1638174888459
2496,27.1938061089937
2496.25,27.2237947291415
2496.5,27.2537833492892
2496.75,27.283771969437
2497,27.3137605895847
2497.25,27.3437492097325
2497.5,27.3737378298802
2497.75,27.403726450028
2498,27.4337150701758
2498.25,27.4637036903235
2498.5,27.4936923104713
2498.75,27.5434150394683
2499,27.5983941764058
2499.25,27.6533733133433
2499.5,27.7083524502809
2499.75,27.7633315872185
2500,27.818310724156
2500.25,27.8732898610935
2500.5,27.9282689980311
2500.75,27.9832481349687
2501,28.0382272719062
2501.25,28.0932064088438
2501.5,28.1481855457814
2501.75,28.2031646827189
2502,28.2581438196564
2502.25,28.313122956594
2502.5,28.3681020935316
2502.75,28.4230812304691
2503,28.4780603674067
2503.25,28.5330395043442
2503.5,28.5880186412818
2503.75,28.5530933328517
2504,28.4931160925561
2504.25,28.4331388522606
2504.5,28.3731616119651
2504.75,28.3131843716695
2505,28.253207131374
2505.25,28.1932298910786
2505.5,28.1332526507831
2505.75,28.0732754104875
2506,28.013298170192
2506.25,27.9533209298965
2506.5,27.8933436896009
2506.75,27.8333664493054
2507,27.7733892090099
2507.25,27.7134119687145
2507.5,27.6534347284189
2507.75,27.5934574881234
2508,27.5334802478279
2508.25,27.4735030075323
2508.5,27.4135257672368
2508.75,27.3922580878236
2509,27.3822618811076
2509.25,27.3722656743917
2509.5,27.3622694676758
2509.75,27.3522732609599
2510,27.3422770542439
2510.25,27.332280847528
2510.5,27.3222846408121
2510.75,27.3122884340962
2511,27.3022922273803
2511.25,27.2922960206644
2511.5,27.2822998139484
2511.75,27.2723036072325
2512,27.2623074005166
2512.25,27.2523111938007
2512.5,27.2423149870848
2512.75,27.2323187803688
2513,27.2223225736529
2513.25,27.212326366937
2513.5,27.2023301602211
2513.75,27.2766604649483
2514,27.3766225321075
2514.25,27.4765845992666
2514.5,27.5765466664259
2514.75,27.6765087335851
2515,27.7764708007442
2515.25,27.8764328679034
2515.5,27.9763949350627
2515.75,28.0763570022218
2516,28.176319069381
2516.25,28.2762811365403
2516.5,28.3762432036994
2516.75,28.4762052708586
2517,28.5761673380177
2517.25,28.676129405177
2517.5,28.7760914723362
2517.75,28.8760535394953
2518,28.9760156066546
2518.25,29.0759776738138
2518.5,29.1759397409729
2518.75,29.2417459944726
2519,29.2967251314102
2519.25,29.3517042683478
2519.5,29.4066834052853
2519.75,29.4616625422229
2520,29.5166416791605
2520.25,29.571620816098
2520.5,29.6265999530355
2520.75,29.6815790899731
2521,29.7365582269107
2521.25,29.7915373638482
2521.5,29.8465165007857
2521.75,29.9014956377233
2522,29.9564747746609
2522.25,30.0114539115984
2522.5,30.066433048536
2522.75,30.1214121854736
2523,30.1763913224111
2523.25,30.2313704593486
2523.5,30.2863495962862
2523.75,30.3263001029606
2524,30.3612868264663
2524.25,30.396273549972
2524.5,30.4312602734777
2524.75,30.4662469969834
2525,30.5012337204891
2525.25,30.5362204439949
2525.5,30.5712071675006
2525.75,30.6061938910063
2526,30.6411806145121
2526.25,30.6761673380178
2526.5,30.7111540615235
2526.75,30.7461407850292
2527,30.7811275085349
2527.25,30.8161142320406
2527.5,30.8511009555463
2527.75,30.8860876790521
2528,30.9210744025578
2528.25,30.9560611260635
2528.5,30.9910478495692
2528.75,30.99256155055
2529,30.9825653438341
2529.25,30.9725691371182
2529.5,30.9625729304023
2529.75,30.9525767236863
2530,30.9425805169704
2530.25,30.9325843102545
2530.5,30.9225881035386
2530.75,30.9125918968227
2531,30.9025956901068
2531.25,30.8925994833908
2531.5,30.8826032766749
2531.75,30.872607069959
2532,30.8626108632431
2532.25,30.8526146565271
2532.5,30.8426184498112
2532.75,30.8326222430953
2533,30.8226260363794
2533.25,30.8126298296635
2533.5,30.8026336229476
2533.75,30.7963187081158
2534,30.7913206047579
2534.25,30.7863225013999
2534.5,30.7813243980419
2534.75,30.776326294684
2535,30.771328191326
2535.25,30.7663300879681
2535.5,30.7613319846101
2535.75,30.7563338812521
2536,30.7513357778942
2536.25,30.7463376745362
2536.5,30.7413395711783
2536.75,30.7363414678203
2537,30.7313433644623
2537.25,30.7263452611044
2537.5,30.7213471577464
2537.75,30.7163490543885
2538,30.7113509510305
2538.25,30.7063528476726
2538.5,30.7013547443146
2538.75,30.6526363324362
2539,30.5876609887827
2539.25,30.5226856451292
2539.5,30.4577103014757
2539.75,30.3927349578223
2540,30.3277596141688
2540.25,30.2627842705153
2540.5,30.1978089268618
2540.75,30.1328335832084
2541,30.0678582395548
2541.25,30.0028828959014
2541.5,29.937907552248
2541.75,29.8729322085945
2542,29.807956864941
2542.25,29.7429815212875
2542.5,29.6780061776341
2542.75,29.6130308339806
2543,29.5480554903271
2543.25,29.4830801466736
2543.5,29.4181048030202
2543.75,29.3963945737974
2544,29.3913964704395
2544.25,29.3863983670815
2544.5,29.3814002637236
2544.75,29.3764021603656
2545,29.3714040570076
2545.25,29.3664059536497
2545.5,29.3614078502917
2545.75,29.3564097469338
2546,29.3514116435758
2546.25,29.3464135402178
2546.5,29.3414154368599
2546.75,29.3364173335019
2547,29.331419230144
2547.25,29.326421126786
2547.5,29.321423023428
2547.75,29.3164249200701
2548,29.3114268167121
2548.25,29.3064287133542
2548.5,29.3014306099962
2548.75,29.2892975199147
2549,29.2743032098408
2549.25,29.259308899767
2549.5,29.2443145896931
2549.75,29.2293202796192
2550,29.2143259695453
2550.25,29.1993316594715
2550.5,29.1843373493976
2550.75,29.1693430393237
2551,29.1543487292498
2551.25,29.139354419176
2551.5,29.1243601091021
2551.75,29.1093657990282
2552,29.0943714889543
2552.25,29.0793771788804
2552.5,29.0643828688065
2552.75,29.0493885587327
2553,29.0343942486588
2553.25,29.0193999385849
2553.5,29.004405628511
2553.75,28.9788226368743
2554,28.9488340167266
2554.25,28.9188453965788
2554.5,28.888856776431
2554.75,28.8588681562833
2555,28.8288795361356
2555.25,28.7988909159878
2555.5,28.76890229584
2555.75,28.7389136756923
2556,28.7089250555445
2556.25,28.6789364353967
2556.5,28.648947815249
2556.75,28.6189591951013
2557,28.5889705749535
2557.25,28.5589819548057
2557.5,28.528993334658
2557.75,28.4990047145102
2558,28.4690160943624
2558.25,28.4390274742147
2558.5,28.4090388540669
2558.75,28.3546088401582
2559,28.2896334965047
2559.25,28.2246581528513
2559.5,28.1596828091978
2559.75,28.0947074655443
2560,28.0297321218908
2560.25,27.9647567782374
2560.5,27.8997814345838
2560.75,27.8348060909304
2561,27.769830747277
2561.25,27.7048554036235
2561.5,27.63988005997
2561.75,27.5749047163165
2562,27.5099293726631
2562.25,27.4449540290095
2562.5,27.3799786853561
2562.75,27.3150033417026
2563,27.2500279980492
2563.25,27.1850526543956
2563.5,27.1200773107422
2563.75,27.0551019670887
2564,26.9901266234353
2564.25,26.9251512797818
2564.5,26.8601759361283
2564.75,26.7952005924749
2565,26.7302252488213
2565.25,26.6652499051679
2565.5,26.6002745615144
2565.75,26.535299217861
2566,26.4703238742074
2566.25,26.405348530554
2566.5,26.3403731869005
2566.75,26.275397843247
2567,26.2104224995935
2567.25,26.1454471559401
2567.5,26.0804718122867
2567.75,26.0154964686331
2568,25.9505211249797
2568.25,25.8855457813262
2568.5,25.8205704376727
2568.75,25.7795054280089
2569,25.7495168078611
2569.25,25.7195281877134
2569.5,25.6895395675656
2569.75,25.6595509474178
2570,25.6295623272701
2570.25,25.5995737071223
2570.5,25.5695850869746
2570.75,25.5395964668268
2571,25.5096078466791
2571.25,25.4796192265313
2571.5,25.4496306063835
2571.75,25.4196419862358
2572,25.389653366088
2572.25,25.3596647459403
2572.5,25.3296761257925
2572.75,25.2996875056448
2573,25.269698885497
2573.25,25.2397102653492
2573.5,25.2097216452015
2573.75,25.1898665125269
2574,25.174872202453
2574.25,25.1598778923791
2574.5,25.1448835823052
2574.75,25.1298892722313
2575,25.1148949621575
2575.25,25.0999006520836
2575.5,25.0849063420097
2575.75,25.0699120319358
2576,25.054917721862
2576.25,25.0399234117881
2576.5,25.0249291017142
2576.75,25.0099347916403
2577,24.9949404815664
2577.25,24.9799461714926
2577.5,24.9649518614187
2577.75,24.9499575513448
2578,24.9349632412709
2578.25,24.919968931197
2578.5,24.9049746211232
2578.75,24.9233792742183
2579,24.958365997724
2579.25,24.9933527212298
2579.5,25.0283394447355
2579.75,25.0633261682412
2580,25.0983128917469
2580.25,25.1332996152526
2580.5,25.1682863387583
2580.75,25.203273062264
2581,25.2382597857698
2581.25,25.2732465092755
2581.5,25.3082332327812
2581.75,25.343219956287
2582,25.3782066797927
2582.25,25.4131934032984
2582.5,25.4481801268041
2582.75,25.4831668503098
2583,25.5181535738155
2583.25,25.5531402973212
2583.5,25.588127020827
2583.75,25.6231137443327
2584,25.6581004678384
2584.25,25.6930871913441
2584.5,25.7280739148498
2584.75,25.7630606383555
2585,25.7980473618612
2585.25,25.8330340853669
2585.5,25.8680208088727
2585.75,25.9030075323784
2586,25.9379942558841
2586.25,25.9729809793899
2586.5,26.0079677028956
2586.75,26.0429544264013
2587,26.077941149907
2587.25,26.1129278734127
2587.5,26.1479145969184
2587.75,26.1829013204241
2588,26.2178880439299
2588.25,26.2528747674356
2588.5,26.2878614909413
2588.75,26.3848647965173
2589,26.5148154838245
2589.25,26.6447661711313
2589.5,26.7747168584382
2589.75,26.9046675457453
2590,27.0346182330522
2590.25,27.1645689203591
2590.5,27.294519607666
2590.75,27.4244702949731
2591,27.55442098228
2591.25,27.6843716695869
2591.5,27.814322356894
2591.75,27.9442730442009
2592,28.0742237315078
2592.25,28.2041744188146
2592.5,28.3341251061218
2592.75,28.4640757934286
2593,28.5940264807355
2593.25,28.7239771680426
2593.5,28.8539278553495
2593.75,28.9387131735337
2594,28.9986904138292
2594.25,29.0586676541248
2594.5,29.1186448944203
2594.75,29.1786221347158
2595,29.2385993750114
2595.25,29.2985766153068
2595.5,29.3585538556023
2595.75,29.4185310958978
2596,29.4785083361934
2596.25,29.5384855764889
2596.5,29.5984628167844
2596.75,29.6584400570799
2597,29.7184172973755
2597.25,29.7783945376709
2597.5,29.8383717779664
2597.75,29.898349018262
2598,29.9583262585575
2598.25,30.018303498853
2598.5,30.0782807391485
2598.75,30.0936236700927
2599,30.0836274633767
2599.25,30.0736312566608
2599.5,30.0636350499449
2599.75,30.053638843229
2600,30.0436426365131
2600.25,30.0336464297972
2600.5,30.0236502230812
2600.75,30.0136540163653
2601,30.0036578096494
2601.25,29.9936616029335
2601.5,29.9836653962175
2601.75,29.9736691895016
2602,29.9636729827857
2602.25,29.9536767760698
2602.5,29.9436805693539
2602.75,29.933684362638
2603,29.923688155922
2603.25,29.9136919492061
2603.5,29.9036957424902
2603.75,29.85589675042
2604,29.7859233034085
2604.25,29.7159498563971
2604.5,29.6459764093857
2604.75,29.5760029623741
2605,29.5060295153628
2605.25,29.4360560683514
2605.5,29.36608262134
2605.75,29.2961091743284
2606,29.226135727317
2606.25,29.1561622803056
2606.5,29.0861888332942
2606.75,29.0162153862827
2607,28.9462419392713
2607.25,28.8762684922599
2607.5,28.8062950452484
2607.75,28.736321598237
2608,28.6663481512256
2608.25,28.5963747042142
2608.5,28.5264012572027
2608.75,28.4470909123751
2609,28.3621231552898
2609.25,28.2771553982044
2609.5,28.1921876411192
2609.75,28.1072198840339
2610,28.0222521269486
2610.25,27.9372843698632
2610.5,27.8523166127779
2610.75,27.7673488556927
2611,27.6823810986072
2611.25,27.597413341522
2611.5,27.5124455844367
2611.75,27.4274778273514
2612,27.342510070266
2612.25,27.2575423131807
2612.5,27.1725745560955
2612.75,27.08760679901
2613,27.0026390419248
2613.25,26.9176712848395
2613.5,26.8327035277542
2613.75,26.812297465725
2614,26.8322898791568
2614.25,26.8522822925886
2614.5,26.8722747060205
2614.75,26.8922671194523
2615,26.9122595328842
2615.25,26.932251946316
2615.5,26.9522443597479
2615.75,26.9722367731797
2616,26.9922291866115
2616.25,27.0122216000434
2616.5,27.0322140134752
2616.75,27.052206426907
2617,27.0721988403389
2617.25,27.0921912537707
2617.5,27.1121836672026
2617.75,27.1321760806344
2618,27.1521684940662
2618.25,27.1721609074981
2618.5,27.1921533209299
2618.75,27.1635627969148
2619,27.1035855566192
2619.25,27.0436083163237
2619.5,26.9836310760282
2619.75,26.9236538357328
2620,26.8636765954372
2620.25,26.8036993551417
2620.5,26.7437221148462
2620.75,26.6837448745506
2621,26.6237676342551
2621.25,26.5637903939596
2621.5,26.5038131536642
2621.75,26.4438359133686
2622,26.3838586730731
2622.25,26.3238814327776
2622.5,26.263904192482
2622.75,26.2039269521865
2623,26.143949711891
2623.25,26.0839724715956
2623.5,26.0239952313
2623.75,25.9550224887556
2624,25.8800509383862
2624.25,25.8050793880167
2624.5,25.7301078376474
2624.75,25.655136287278
2625,25.5801647369087
2625.25,25.5051931865392
2625.5,25.4302216361698
2625.75,25.3552500858005
2626,25.280278535431
2626.25,25.2053069850616
2626.5,25.1303354346923
2626.75,25.0553638843229
2627,24.9803923339534
2627.25,24.9054207835841
2627.5,24.8304492332147
2627.75,24.7554776828454
2628,24.6805061324759
2628.25,24.6055345821065
2628.5,24.5305630317372
2628.75,24.5355268149059
2629,24.5955040552013
2629.25,24.6554812954968
2629.5,24.7154585357923
2629.75,24.7754357760879
2630,24.8354130163834
2630.25,24.8953902566789
2630.5,24.9553674969745
2630.75,25.01534473727
2631,25.0753219775654
2631.25,25.1352992178609
2631.5,25.1952764581565
2631.75,25.255253698452
2632,25.3152309387475
2632.25,25.3752081790431
2632.5,25.4351854193386
2632.75,25.495162659634
2633,25.5551398999295
2633.25,25.6151171402251
2633.5,25.6750943805206
2633.75,25.7584527013601
2634,25.8584147685195
2634.25,25.9583768356786
2634.5,26.0583389028378
2634.75,26.1583009699969
2635,26.2582630371562
2635.25,26.3582251043154
2635.5,26.4581871714745
2635.75,26.5581492386338
2636,26.658111305793
2636.25,26.7580733729521
2636.5,26.8580354401112
2636.75,26.9579975072706
2637,27.0579595744297
2637.25,27.1579216415888
2637.5,27.2578837087482
2637.75,27.3578457759073
2638,27.4578078430664
2638.25,27.5577699102256
2638.5,27.6577319773849
2638.75,27.7115388089088
2639,27.7315312223406
2639.25,27.7515236357725
2639.5,27.7715160492043
2639.75,27.7915084626362
2640,27.811500876068
2640.25,27.8314932894999
2640.5,27.8514857029317
2640.75,27.8714781163635
2641,27.8914705297953
2641.25,27.9114629432272
2641.5,27.931455356659
2641.75,27.9514477700909
2642,27.9714401835227
2642.25,27.9914325969545
2642.5,28.0114250103864
2642.75,28.0314174238182
2643,28.0514098372501
2643.25,28.0714022506819
2643.5,28.0913946641137
2643.75,28.0459113816585
2644,27.9509474178573
2644.25,27.8559834540561
2644.5,27.7610194902549
2644.75,27.6660555264536
2645,27.5710915626524
2645.25,27.4761275988512
2645.5,27.3811636350498
2645.75,27.2861996712487
2646,27.1912357074475
2646.25,27.0962717436463
2646.5,27.0013077798449
2646.75,26.9063438160437
2647,26.8113798522426
2647.25,26.7164158884412
2647.5,26.62145192464
2647.75,26.5264879608388
2648,26.4315239970377
2648.25,26.3365600332363
2648.5,26.2415960694351
2648.75,26.1859558172721
2649,26.1609653004823
2649.25,26.1359747836925
2649.5,26.1109842669027
2649.75,26.0859937501129
2650,26.0610032333231
2650.25,26.0360127165333
2650.5,26.0110221997435
2650.75,25.9860316829537
2651,25.9610411661639
2651.25,25.9360506493741
2651.5,25.9110601325843
2651.75,25.8860696157945
2652,25.8610790990047
2652.25,25.8360885822149
2652.5,25.8110980654251
2652.75,25.7861075486353
2653,25.7611170318455
2653.25,25.7361265150557
2653.5,25.7111359982659
2653.75,25.7304799407525
2654,25.7854590776901
2654.25,25.8404382146276
2654.5,25.8954173515652
2654.75,25.9503964885028
2655,26.0053756254403
2655.25,26.0603547623779
2655.5,26.1153338993154
2655.75,26.170313036253
2656,26.2252921731905
2656.25,26.2802713101281
2656.5,26.3352504470656
2656.75,26.3902295840032
2657,26.4452087209408
2657.25,26.5001878578783
2657.5,26.5551669948159
2657.75,26.6101461317534
2658,26.665125268691
2658.25,26.7201044056285
2658.5,26.7750835425661
2658.75,26.8355286212316
2659,26.9005039648851
2659.25,26.9654793085385
2659.5,27.030454652192
2659.75,27.0954299958455
2660,27.160405339499
2660.25,27.2253806831524
2660.5,27.2903560268058
2660.75,27.3553313704594
2661,27.4203067141128
2661.25,27.4852820577663
2661.5,27.5502574014198
2661.75,27.6152327450733
2662,27.6802080887267
2662.25,27.7451834323802
2662.5,27.8101587760337
2662.75,27.8751341196872
2663,27.9401094633406
2663.25,28.0050848069942
2663.5,28.0700601506476
2663.75,28.135035494301
2664,28.2000108379545
2664.25,28.264986181608
2664.5,28.3299615252615
2664.75,28.3949368689149
2665,28.4599122125685
2665.25,28.5248875562219
2665.5,28.5898628998754
2665.75,28.6548382435288
2666,28.7198135871824
2666.25,28.7847889308358
2666.5,28.8497642744893
2666.75,28.9147396181428
2667,28.9797149617963
2667.25,29.0446903054497
2667.5,29.1096656491031
2667.75,29.1746409927567
2668,29.2396163364101
2668.25,29.3045916800636
2668.5,29.3695670237171
2668.75,29.4557992088294
2669,29.5607593793465
2669.25,29.6657195498636
2669.5,29.7706797203809
2669.75,29.875639890898
2670,29.9806000614151
2670.25,30.0855602319322
2670.5,30.1905204024495
2670.75,30.2954805729666
2671,30.4004407434836
2671.25,30.5054009140009
2671.5,30.610361084518
2671.75,30.7153212550351
2672,30.8202814255522
2672.25,30.9252415960695
2672.5,31.0302017665866
2672.75,31.1351619371037
2673,31.240122107621
2673.25,31.3450822781381
2673.5,31.4500424486552
2673.75,31.4790466212677
2674,31.439061794404
2674.25,31.3990769675403
2674.5,31.3590921406767
2674.75,31.3191073138129
2675,31.2791224869493
2675.25,31.2391376600856
2675.5,31.199152833222
2675.75,31.1591680063582
2676,31.1191831794946
2676.25,31.0791983526309
2676.5,31.0392135257672
2676.75,30.9992286989035
2677,30.9592438720399
2677.25,30.9192590451762
2677.5,30.8792742183125
2677.75,30.8392893914488
2678,30.7993045645852
2678.25,30.7593197377215
2678.5,30.7193349108578
2678.75,30.7438810715125
2679,30.8288488285977
2679.25,30.9138165856831
2679.5,30.9987843427684
2679.75,31.0837520998537
2680,31.1687198569391
2680.25,31.2536876140244
2680.5,31.3386553711096
2680.75,31.4236231281949
2681,31.5085908852803
2681.25,31.5935586423656
2681.5,31.6785263994509
2681.75,31.7634941565361
2682,31.8484619136216
2682.25,31.9334296707068
2682.5,32.0183974277921
2682.75,32.1033651848775
2683,32.1883329419628
2683.25,32.2733006990481
2683.5,32.3582684561333
2683.75,32.3364173335018
2684,32.2114647495529
2684.25,32.086512165604
2684.5,31.9615595816548
2684.75,31.8366069977059
2685,31.711654413757
2685.25,31.586701829808
2685.5,31.4617492458589
2685.75,31.33679666191
2686,31.211844077961
2686.25,31.0868914940119
2686.5,30.961938910063
2686.75,30.836986326114
2687,30.7120337421651
2687.25,30.587081158216
2687.5,30.462128574267
2687.75,30.3371759903181
2688,30.212223406369
2688.25,30.08727082242
2688.5,29.9623182384711
2688.75,29.8473871497986
2689,29.7424269792813
2689.25,29.6374668087642
2689.5,29.5325066382471
2689.75,29.4275464677299
2690,29.3225862972128
2690.25,29.2176261266957
2690.5,29.1126659561786
2690.75,29.0077057856613
2691,28.9027456151442
2691.25,28.7977854446271
2691.5,28.69282527411
2691.75,28.5878651035927
2692,28.4829049330756
2692.25,28.3779447625585
2692.5,28.2729845920412
2692.75,28.1680244215241
2693,28.063064251007
2693.25,27.9581040804899
2693.5,27.8531439099726
2693.75,27.8222069688048
2694,27.8671898990264
2694.25,27.9121728292481
2694.5,27.9571557594697
2694.75,28.0021386896913
2695,28.0471216199129
2695.25,28.0921045501346
2695.5,28.1370874803562
2695.75,28.1820704105778
2696,28.2270533407995
2696.25,28.2720362710211
2696.5,28.3170192012428
2696.75,28.3620021314644
2697,28.4069850616861
2697.25,28.4519679919077
2697.5,28.4969509221293
2697.75,28.541933852351
2698,28.5869167825726
2698.25,28.6318997127942
2698.5,28.6768826430158
2698.75,28.7315836057875
2699,28.796558949441
2699.25,28.8615342930944
2699.5,28.926509636748
2699.75,28.9914849804014
2700,29.0564603240549
2700.25,29.1214356677083
2700.5,29.1864110113619
2700.75,29.2513863550153
2701,29.3163616986687
2701.25,29.3813370423223
2701.5,29.4463123859757
2701.75,29.5112877296292
2702,29.5762630732826
2702.25,29.6412384169362
2702.5,29.7062137605896
2702.75,29.7711891042431
2703,29.8361644478965
2703.25,29.9011397915501
2703.5,29.9661151352035
2703.75,30.1434945178013
2704,30.4433807192792
2704.25,30.7432669207567
2704.5,31.0431531222341
2704.75,31.3430393237115
2705,31.6429255251895
2705.25,31.9428117266669
2705.5,32.2426979281443
2705.75,32.5425841296223
2706,32.8424703310997
2706.25,33.1423565325771
2706.5,33.4422427340545
2706.75,33.7421289355325
2707,34.0420151370099
2707.25,34.3419013384873
2707.5,34.6417875399653
2707.75,34.9416737414427
2708,35.2415599429201
2708.25,35.5414461443976
2708.5,35.8413323458755
2708.75,35.7340384024853
2709,35.1692527230361
2709.25,34.604467043586
2709.5,34.0396813641368
2709.75,33.4748956846877
2710,32.9101100052386
2710.25,32.3453243257884
2710.5,31.7805386463392
2710.75,31.2157529668901
2711,30.6509672874399
2711.25,30.0861816079908
2711.5,29.5213959285416
2711.75,28.9566102490925
2712,28.3918245696423
2712.25,27.8270388901932
2712.5,27.262253210744
2712.75,26.6974675312949
2713,26.1326818518447
2713.25,25.5678961723956
2713.5,25.0031104929465
2713.75,24.6328444211628
2714,24.487899423782
2714.25,24.3429544264013
2714.5,24.1980094290205
2714.75,24.0530644316395
2715,23.9081194342587
2715.25,23.763174436878
2715.5,23.618229439497
2715.75,23.4732844421162
2716,23.3283394447355
2716.25,23.1833944473547
2716.5,23.0384494499737
2716.75,22.8935044525929
2717,22.7485594552122
2717.25,22.6036144578312
2717.5,22.4586694604504
2717.75,22.3137244630697
2718,22.1687794656889
2718.25,22.0238344683079
2718.5,21.8788894709271
2718.75,21.8
2719,21.8
2719.25,21.8
2719.5,21.8
2719.75,21.8
2720,21.8
2720.25,21.8
2720.5,21.8
2720.75,21.8
2721,21.8
2721.25,21.8
2721.5,21.8
2721.75,21.8
2722,21.8
2722.25,21.8
2722.5,21.8
2722.75,21.8
2723,21.8
2723.25,21.8
2723.5,21.8
2723.75,21.8447968786692
2724,21.9447589458283
2724.25,22.0447210129874
2724.5,22.1446830801468
2724.75,22.2446451473059
2725,22.344607214465
2725.25,22.4445692816244
2725.5,22.5445313487835
2725.75,22.6444934159426
2726,22.7444554831018
2726.25,22.8444175502611
2726.5,22.9443796174202
2726.75,23.0443416845794
2727,23.1443037517387
2727.25,23.2442658188978
2727.5,23.344227886057
2727.75,23.4441899532161
2728,23.5441520203754
2728.25,23.6441140875346
2728.5,23.7440761546937
2728.75,23.8110095554633
2729,23.836000072253
2729.25,23.8609905890428
2729.5,23.8859811058326
2729.75,23.9109716226224
2730,23.9359621394122
2730.25,23.960952656202
2730.5,23.9859431729918
2730.75,24.0109336897816
2731,24.0359242065714
2731.25,24.0609147233612
2731.5,24.085905240151
2731.75,24.1108957569408
2732,24.1358862737306
2732.25,24.1608767905204
2732.5,24.1858673073102
2732.75,24.2108578241
2733,24.2358483408898
2733.25,24.2608388576796
2733.5,24.2858293744694
2733.75,24.312983869511
2734,24.3429724896588
2734.25,24.3729611098066
2734.5,24.4029497299543
2734.75,24.432938350102
2735,24.4629269702498
2735.25,24.4929155903976
2735.5,24.5229042105453
2735.75,24.5528928306931
2736,24.5828814508409
2736.25,24.6128700709886
2736.5,24.6428586911364
2736.75,24.6728473112841
2737,24.7028359314319
2737.25,24.7328245515796
2737.5,24.7628131717274
2737.75,24.7928017918752
2738,24.8227904120229
2738.25,24.8527790321707
2738.5,24.8827676523185
2738.75,24.897873954589
2739,24.892875851231
2739.25,24.8878777478731
2739.5,24.8828796445151
2739.75,24.8778815411571
2740,24.8728834377992
2740.25,24.8678853344412
2740.5,24.8628872310832
2740.75,24.8578891277253
2741,24.8528910243673
2741.25,24.8478929210094
2741.5,24.8428948176514
2741.75,24.8378967142935
2742,24.8328986109355
2742.25,24.8279005075775
2742.5,24.8229024042196
2742.75,24.8179043008616
2743,24.8129061975037
2743.25,24.8079080941457
2743.5,24.8029099907877
2743.75,24.7645020863061
2744,24.6795343292209
2744.25,24.5945665721356
2744.5,24.5095988150503
2744.75,24.4246310579649
2745,24.3396633008796
2745.25,24.2546955437944
2745.5,24.1697277867091
2745.75,24.0847600296237
2746,23.9997922725384
2746.25,23.9148245154531
2746.5,23.8298567583677
2746.75,23.7448890012824
2747,23.6599212441972
2747.25,23.5749534871119
2747.5,23.4899857300265
2747.75,23.4050179729412
2748,23.3200502158559
2748.25,23.2350824587705
2748.5,23.1501147016853
2748.75,23.0815483824353
2749,23.0365654522137
2749.25,22.991582521992
2749.5,22.9465995917704
2749.75,22.9016166615488
2750,22.8566337313271
2750.25,22.8116508011054
2750.5,22.7666678708838
2750.75,22.7216849406622
2751,22.6767020104405
2751.25,22.6317190802189
2751.5,22.5867361499973
2751.75,22.5417532197756
2752,22.496770289554
2752.25,22.4517873593324
2752.5,22.4068044291108
2752.75,22.3618214988891
2753,22.3168385686675
2753.25,22.2718556384458
2753.5,22.2268727082241
2753.75,22.210061234443
2754,22.2350517512328
2754.25,22.2600422680226
2754.5,22.2850327848124
2754.75,22.3100233016022
2755,22.335013818392
2755.25,22.3600043351818
2755.5,22.3849948519716
2755.75,22.4099853687614
2756,22.4349758855512
2756.25,22.459966402341
2756.5,22.4849569191308
2756.75,22.5099474359206
2757,22.5349379527104
2757.25,22.5599284695002
2757.5,22.58491898629
2757.75,22.6099095030798
2758,22.6349000198696
2758.25,22.6598905366594
2758.5,22.6848810534492
2758.75,22.747383537147
2759,22.8673380177382
2759.25,22.9872924983292
2759.5,23.1072469789202
2759.75,23.2272014595113
2760,23.3471559401023
2760.25,23.4671104206933
2760.5,23.5870649012842
2760.75,23.7070193818754
2761,23.8269738624664
2761.25,23.9469283430574
2761.5,24.0668828236486
2761.75,24.1868373042395
2762,24.3067917848305
2762.25,24.4267462654215
2762.5,24.5467007460127
2762.75,24.6666552266036
2763,24.7866097071946
2763.25,24.9065641877858
2763.5,25.0265186683767
2763.75,25.1232365744839
2764,25.1832138147793
2764.25,25.2431910550749
2764.5,25.3031682953704
2764.75,25.3631455356659
2765,25.4231227759615
2765.25,25.483100016257
2765.5,25.5430772565525
2765.75,25.6030544968479
2766,25.6630317371435
2766.25,25.723008977439
2766.5,25.7829862177345
2766.75,25.84296345803
2767,25.9029406983256
2767.25,25.9629179386211
2767.5,26.0228951789166
2767.75,26.0828724192121
2768,26.1428496595076
2768.25,26.2028268998031
2768.5,26.2628041400986
2768.75,26.3132891385633
2769,26.348275862069
2769.25,26.3832625855747
2769.5,26.4182493090804
2769.75,26.4532360325861
2770,26.4882227560918
2770.25,26.5232094795975
2770.5,26.5581962031033
2770.75,26.593182926609
2771,26.6281696501147
2771.25,26.6631563736205
2771.5,26.6981430971262
2771.75,26.7331298206319
2772,26.7681165441376
2772.25,26.8031032676433
2772.5,26.838089991149
2772.75,26.8730767146547
2773,26.9080634381605
2773.25,26.9430501616662
2773.5,26.9780368851719
2773.75,27.0241867018298
2774,27.0891620454833
2774.25,27.1541373891368
2774.5,27.2191127327902
2774.75,27.2840880764438
2775,27.3490634200972
2775.25,27.4140387637507
2775.5,27.4790141074041
2775.75,27.5439894510577
2776,27.6089647947111
2776.25,27.6739401383646
2776.5,27.738915482018
2776.75,27.8038908256716
2777,27.868866169325
2777.25,27.9338415129784
2777.5,27.998816856632
2777.75,28.0637922002854
2778,28.1287675439389
2778.25,28.1937428875923
2778.5,28.2587182312459
2778.75,28.3054677480537
2779,28.3204620581276
2779.25,28.3354563682015
2779.5,28.3504506782753
2779.75,28.3654449883492
2780,28.3804392984231
2780.25,28.395433608497
2780.5,28.4104279185708
2780.75,28.4254222286447
2781,28.4404165387186
2781.25,28.4554108487925
2781.5,28.4704051588664
2781.75,28.4853994689402
2782,28.5003937790141
2782.25,28.515388089088
2782.5,28.5303823991619
2782.75,28.5453767092358
2783,28.5603710193096
2783.25,28.5753653293835
2783.5,28.5903596394574
2783.75,28.5839381514062
2784,28.5389552211846
2784.25,28.493972290963
2784.5,28.4489893607413
2784.75,28.4040064305197
2785,28.359023500298
2785.25,28.3140405700764
2785.5,28.2690576398547
2785.75,28.2240747096331
2786,28.1790917794115
2786.25,28.1341088491899
2786.5,28.0891259189682
2786.75,28.0441429887466
2787,27.999160058525
2787.25,27.9541771283033
2787.5,27.9091941980817
2787.75,27.86421126786
2788,27.8192283376384
2788.25,27.7742454074167
2788.5,27.7292624771951
2788.75,27.6615722259353
2789,27.55161395206
2789.25,27.4416556781849
2789.5,27.3316974043099
2789.75,27.2217391304348
2790,27.1117808565596
2790.25,27.0018225826845
2790.5,26.8918643088095
2790.75,26.7819060349342
2791,26.6719477610592
2791.25,26.5619894871841
2791.5,26.4520312133091
2791.75,26.3420729394338
2792,26.2321146655587
2792.25,26.1221563916837
2792.5,26.0121981178084
2792.75,25.9022398439334
2793,25.7922815700583
2793.25,25.6823232961833
2793.5,25.572365022308
2793.75,25.5153790574592
2794,25.5603619876809
2794.25,25.6053449179025
2794.5,25.6503278481242
2794.75,25.6953107783458
2795,25.7402937085674
2795.25,25.7852766387891
2795.5,25.8302595690107
2795.75,25.8752424992323
2796,25.920225429454
2796.25,25.9652083596756
2796.5,26.0101912898972
2796.75,26.0551742201188
2797,26.1001571503405
2797.25,26.1451400805622
2797.5,26.1901230107838
2797.75,26.2351059410054
2798,26.2800888712271
2798.25,26.3250718014487
2798.5,26.3700547316703
2798.75,26.3966582973573
2799,26.3866620906414
2799.25,26.3766658839255
2799.5,26.3666696772096
2799.75,26.3566734704937
2800,26.3466772637777
2800.25,26.3366810570618
2800.5,26.3266848503459
2800.75,26.31668864363
2801,26.3066924369141
2801.25,26.2966962301982
2801.5,26.2867000234822
2801.75,26.2767038167663
2802,26.2667076100504
2802.25,26.2567114033345
2802.5,26.2467151966186
2802.75,26.2367189899026
2803,26.2267227831867
2803.25,26.2167265764708
2803.5,26.2067303697549
2803.75,26.1885695706364
2804,26.1535828471306
2804.25,26.1185961236249
2804.5,26.0836094001192
2804.75,26.0486226766135
2805,26.0136359531078
2805.25,25.9786492296021
2805.5,25.9436625060964
2805.75,25.9086757825906
2806,25.8736890590849
2806.25,25.8387023355792
2806.5,25.8037156120735
2806.75,25.7687288885677
2807,25.733742165062
2807.25,25.6987554415563
2807.5,25.6637687180506
2807.75,25.6287819945449
2808,25.5937952710392
2808.25,25.5588085475335
2808.5,25.5238218240277
2808.75,25.5318997127943
2809,25.6318617799534
2809.25,25.7318238471125
2809.5,25.8317859142719
2809.75,25.931747981431
2810,26.0317100485901
2810.25,26.1316721157495
2810.5,26.2316341829086
2810.75,26.3315962500677
2811,26.4315583172269
2811.25,26.5315203843862
2811.5,26.6314824515453
2811.75,26.7314445187045
2812,26.8314065858638
2812.25,26.9313686530229
2812.5,27.0313307201821
2812.75,27.1312927873412
2813,27.2312548545005
2813.25,27.3312169216597
2813.5,27.4311789888188
2813.75,27.5186846335869
2814,27.5786618738824
2814.25,27.6386391141779
2814.5,27.6986163544733
2814.75,27.7585935947689
2815,27.8185708350644
2815.25,27.8785480753599
2815.5,27.9385253156555
2815.75,27.998502555951
2816,28.0584797962465
2816.25,28.1184570365419
2816.5,28.1784342768375
2816.75,28.238411517133
2817,28.2983887574285
2817.25,28.3583659977241
2817.5,28.4183432380196
2817.75,28.4783204783151
2818,28.5382977186106
2818.25,28.5982749589061
2818.5,28.6582521992016
2818.75,28.7607647983237
2819,28.960688932642
2819.25,29.1606130669607
2819.5,29.3605372012789
2819.75,29.5604613355972
2820,29.7603854699159
2820.25,29.9603096042341
2820.5,30.1602337385524
2820.75,30.3601578728707
2821,30.5600820071893
2821.25,30.7600061415076
2821.5,30.9599302758259
2821.75,31.1598544101445
2822,31.3597785444628
2822.25,31.5597026787811
2822.5,31.7596268130994
2822.75,31.959550947418
2823,32.1594750817363
2823.25,32.3593992160546
2823.5,32.5593233503732
2823.75,32.6481584508949
2824,32.4732248333664
2824.25,32.2982912158379
2824.5,32.1233575983091
2824.75,31.9484239807806
2825,31.7734903632521
2825.25,31.5985567457233
2825.5,31.4236231281948
2825.75,31.2486895106663
2826,31.0737558931378
2826.25,30.898822275609
2826.5,30.7238886580805
2826.75,30.548955040552
2827,30.3740214230232
2827.25,30.1990878054947
2827.5,30.0241541879662
2827.75,29.8492205704377
2828,29.6742869529089
2828.25,29.4993533353804
2828.5,29.3244197178519
2828.75,29.1769079315764
2829,29.096938277849
2829.25,29.0169686241217
2829.5,28.9369989703943
2829.75,28.8570293166669
2830,28.7770596629396
2830.25,28.6970900092123
2830.5,28.617120355485
2830.75,28.5371507017575
2831,28.4571810480302
2831.25,28.3772113943029
2831.5,28.2972417405754
2831.75,28.2172720868481
2832,28.1373024331208
2832.25,28.0573327793935
2832.5,27.977363125666
2832.75,27.8973934719387
2833,27.8174238182114
2833.25,27.7374541644839
2833.5,27.6574845107566
2833.75,27.583136142772
2834,27.5231589024765
2834.25,27.4631816621809
2834.5,27.4032044218854
2834.75,27.3432271815899
2835,27.2832499412943
2835.25,27.2232727009989
2835.5,27.1632954607034
2835.75,27.1033182204079
2836,27.0433409801123
2836.25,26.9833637398168
2836.5,26.9233864995213
2836.75,26.8634092592257
2837,26.8034320189303
2837.25,26.7434547786348
2837.5,26.6834775383393
2837.75,26.6235002980437
2838,26.5635230577482
2838.25,26.5035458174527
2838.5,26.4435685771571
2838.75,26.3917956684308
2839,26.3618070482831
2839.25,26.3318184281353
2839.5,26.3018298079875
2839.75,26.2718411878398
2840,26.2418525676921
2840.25,26.2118639475443
2840.5,26.1818753273965
2840.75,26.1518867072488
2841,26.121898087101
2841.25,26.0919094669532
2841.5,26.0619208468055
2841.75,26.0319322266578
2842,26.00194360651
2842.25,25.9719549863622
2842.5,25.9419663662145
2842.75,25.9119777460667
2843,25.8819891259189
2843.25,25.8520005057712
2843.5,25.8220118856235
2843.75,25.8
2844,25.8
2844.25,25.8
2844.5,25.8
2844.75,25.8
2845,25.8
2845.25,25.8
2845.5,25.8
2845.75,25.8
2846,25.8
2846.25,25.8
2846.5,25.8
2846.75,25.8
2847,25.8
2847.25,25.8
2847.5,25.8
2847.75,25.8
2848,25.8
2848.25,25.8
2848.5,25.8
2848.75,25.8
2849,25.8
2849.25,25.8
2849.5,25.8
2849.75,25.8
2850,25.8
2850.25,25.8
2850.5,25.8
2850.75,25.8
2851,25.8
2851.25,25.8
2851.5,25.8
2851.75,25.8
2852,25.8
2852.25,25.8
2852.5,25.8
2852.75,25.8
2853,25.8
2853.25,25.8
2853.5,25.8
2853.75,25.8037607702173
2854,25.8187550802912
2854.25,25.8337493903651
2854.5,25.848743700439
2854.75,25.8637380105128
2855,25.8787323205867
2855.25,25.8937266306606
2855.5,25.9087209407345
2855.75,25.9237152508083
2856,25.9387095608822
2856.25,25.9537038709561
2856.5,25.96869818103
2856.75,25.9836924911038
2857,25.9986868011777
2857.25,26.0136811112516
2857.5,26.0286754213255
2857.75,26.0436697313994
2858,26.0586640414733
2858.25,26.0736583515471
2858.5,26.088652661621
2858.75,26.1048626289265
2859,26.1248550423584
2859.25,26.1448474557902
2859.5,26.164839869222
2859.75,26.1848322826539
2860,26.2048246960857
2860.25,26.2248171095175
2860.5,26.2448095229494
2860.75,26.2648019363812
2861,26.2847943498131
2861.25,26.3047867632449
2861.5,26.3247791766767
2861.75,26.3447715901086
2862,26.3647640035404
2862.25,26.3847564169722
2862.5,26.4047488304041
2862.75,26.4247412438359
2863,26.4447336572678
2863.25,26.4647260706996
2863.5,26.4847184841314
2863.75,26.4964668268275
2864,26.4814725167537
2864.25,26.4664782066798
2864.5,26.4514838966059
2864.75,26.436489586532
2865,26.4214952764582
2865.25,26.4065009663843
2865.5,26.3915066563104
2865.75,26.3765123462365
2866,26.3615180361626
2866.25,26.3465237260888
2866.5,26.3315294160149
2866.75,26.316535105941
2867,26.3015407958671
2867.25,26.2865464857932
2867.5,26.2715521757194
2867.75,26.2565578656455
2868,26.2415635555716
2868.25,26.2265692454977
2868.5,26.2115749354239
2868.75,26.2262152056503
2869,26.3411715828833
2869.25,26.4561279601163
2869.5,26.5710843373495
2869.75,26.6860407145826
2870,26.8009970918156
2870.25,26.9159534690486
2870.5,27.0309098462818
2870.75,27.1458662235148
2871,27.2608226007478
2871.25,27.3757789779808
2871.5,27.490735355214
2871.75,27.6056917324471
2872,27.7206481096801
2872.25,27.8356044869133
2872.5,27.9505608641463
2872.75,28.0655172413793
2873,28.1804736186123
2873.25,28.2954299958455
2873.5,28.4103863730786
2873.75,28.494490706454
2874,28.4695001896642
2874.25,28.4445096728744
2874.5,28.4195191560846
2874.75,28.3945286392948
2875,28.369538122505
2875.25,28.3445476057152
2875.5,28.3195570889254
2875.75,28.2945665721356
2876,28.2695760553458
2876.25,28.244585538556
2876.5,28.2195950217662
2876.75,28.1946045049764
2877,28.1696139881866
2877.25,28.1446234713968
2877.5,28.119632954607
2877.75,28.0946424378172
2878,28.0696519210274
2878.25,28.0446614042377
2878.5,28.0196708874478
2878.75,28.0063835552104
2879,28.0363721753581
2879.25,28.0663607955059
2879.5,28.0963494156536
2879.75,28.1263380358014
2880,28.1563266559491
2880.25,28.1863152760969
2880.5,28.2163038962447
2880.75,28.2462925163924
2881,28.2762811365402
2881.25,28.3062697566879
2881.5,28.3362583768357
2881.75,28.3662469969834
2882,28.3962356171312
2882.25,28.426224237279
2882.5,28.4562128574267
2882.75,28.4862014775745
2883,28.5161900977222
2883.25,28.54617871787
2883.5,28.5761673380177
2883.75,28.6030779790828
2884,28.6180722891566
2884.25,28.6330665992305
2884.5,28.6480609093044
2884.75,28.6630552193783
2885,28.6780495294521
2885.25,28.693043839526
2885.5,28.7080381495999
2885.75,28.7230324596738
2886,28.7380267697477
2886.25,28.7530210798215
2886.5,28.7680153898954
2886.75,28.7830096999693
2887,28.7980040100432
2887.25,28.8129983201171
2887.5,28.8279926301909
2887.75,28.8429869402648
2888,28.8579812503387
2888.25,28.8729755604126
2888.5,28.8879698704864
2888.75,28.9019761203735
2889,28.9119723270895
2889.25,28.9219685338054
2889.5,28.9319647405213
2889.75,28.9419609472372
2890,28.9519571539532
2890.25,28.9619533606691
2890.5,28.971949567385
2890.75,28.9819457741009
2891,28.9919419808168
2891.25,29.0019381875327
2891.5,29.0119343942487
2891.75,29.0219306009646
2892,29.0319268076805
2892.25,29.0419230143964
2892.5,29.0519192211123
2892.75,29.0619154278283
2893,29.0719116345442
2893.25,29.0819078412601
2893.5,29.091904047976
2893.75,29.0952493632702
2894,29.0702588464804
2894.25,29.0452683296906
2894.5,29.0202778129008
2894.75,28.995287296111
2895,28.9702967793212
2895.25,28.9453062625314
2895.5,28.9203157457416
2895.75,28.8953252289518
2896,28.870334712162
2896.25,28.8453441953722
2896.5,28.8203536785824
2896.75,28.7953631617926
2897,28.7703726450028
2897.25,28.745382128213
2897.5,28.7203916114232
2897.75,28.6954010946334
2898,28.6704105778436
2898.25,28.6454200610538
2898.5,28.620429544264
2898.75,28.6036487780207
2899,28.6236411914525
2899.25,28.6436336048843
2899.5,28.6636260183161
2899.75,28.683618431748
2900,28.7036108451798
2900.25,28.7236032586117
2900.5,28.7435956720435
2900.75,28.7635880854753
2901,28.7835804989072
2901.25,28.803572912339
2901.5,28.8235653257709
2901.75,28.8435577392027
2902,28.8635501526345
2902.25,28.8835425660664
2902.5,28.9035349794982
2902.75,28.92352739293
2903,28.9435198063619
2903.25,28.9635122197937
2903.5,28.9835046332256
2903.75,29.0017485233287
2904,29.0117447300446
2904.25,29.0217409367605
2904.5,29.0317371434765
2904.75,29.0417333501924
2905,29.0517295569083
2905.25,29.0617257636242
2905.5,29.0717219703401
2905.75,29.081718177056
2906,29.091714383772
2906.25,29.1017105904879
2906.5,29.1117067972038
2906.75,29.1217030039197
2907,29.1316992106357
2907.25,29.1416954173516
2907.5,29.1516916240675
2907.75,29.1616878307834
2908,29.1716840374993
2908.25,29.1816802442152
2908.5,29.1916764509312
2908.75,29.2075269594119
2909,29.2525098896335
2909.25,29.2974928198551
2909.5,29.3424757500768
2909.75,29.3874586802984
2910,29.43244161052
2910.25,29.4774245407417
2910.5,29.5224074709633
2910.75,29.567390401185
2911,29.6123733314066
2911.25,29.6573562616283
2911.5,29.7023391918499
2911.75,29.7473221220715
2912,29.7923050522932
2912.25,29.8372879825148
2912.5,29.8822709127364
2912.75,29.927253842958
2913,29.9722367731797
2913.25,30.0172197034013
2913.5,30.0622026336229
2913.75,30.0856288723109
2914,29.9956630118675
2914.25,29.9056971514243
2914.5,29.815731290981
2914.75,29.7257654305376
2915,29.6357995700944
2915.25,29.5458337096512
2915.5,29.455867849208
2915.75,29.3659019887646
2916,29.2759361283214
2916.25,29.1859702678781
2916.5,29.0960044074347
2916.75,29.0060385469915
2917,28.9160726865483
2917.25,28.8261068261051
2917.5,28.7361409656617
2917.75,28.6461751052184
2918,28.5562092447752
2918.25,28.4662433843318
2918.5,28.3762775238886
2918.75,28.3022813894258
2919,28.3172756994996
2919.25,28.3322700095735
2919.5,28.3472643196474
2919.75,28.3622586297213
2920,28.3772529397952
2920.25,28.3922472498691
2920.5,28.4072415599429
2920.75,28.4222358700168
2921,28.4372301800907
2921.25,28.4522244901646
2921.5,28.4672188002384
2921.75,28.4822131103123
2922,28.4972074203862
2922.25,28.5122017304601
2922.5,28.5271960405339
2922.75,28.5421903506078
2923,28.5571846606817
2923.25,28.5721789707556
2923.5,28.5871732808295
2923.75,28.6028901212045
2924,28.6228825346363
2924.25,28.6428749480681
2924.5,28.6628673615
2924.75,28.6828597749318
2925,28.7028521883637
2925.25,28.7228446017955
2925.5,28.7428370152273
2925.75,28.7628294286592
2926,28.782821842091
2926.25,28.8028142555229
2926.5,28.8228066689547
2926.75,28.8427990823865
2927,28.8627914958183
2927.25,28.8827839092502
2927.5,28.902776322682
2927.75,28.9227687361139
2928,28.9427611495457
2928.25,28.9627535629776
2928.5,28.9827459764094
2928.75,29.0102689619046
2929,29.085240512274
2929.25,29.1602120626434
2929.5,29.2351836130128
2929.75,29.3101551633823
2930,29.3851267137516
2930.25,29.460098264121
2930.5,29.5350698144903
2930.75,29.6100413648598
2931,29.6850129152292
2931.25,29.7599844655985
2931.5,29.834956015968
2931.75,29.9099275663374
2932,29.9848991167067
2932.25,30.0598706670761
2932.5,30.1348422174456
2932.75,30.2098137678149
2933,30.2847853181843
2933.25,30.3597568685538
2933.5,30.4347284189231
2933.75,30.502586658478
2934,30.5225790719098
2934.25,30.5425714853417
2934.5,30.5625638987735
2934.75,30.5825563122053
2935,30.6025487256372
2935.25,30.622541139069
2935.5,30.6425335525009
2935.75,30.6625259659327
2936,30.6825183793646
2936.25,30.7025107927964
2936.5,30.7225032062282
2936.75,30.74249561966
2937,30.7624880330919
2937.25,30.7824804465237
2937.5,30.8024728599556
2937.75,30.8224652733874
2938,30.8424576868193
2938.25,30.8624501002511
2938.5,30.8824425136829
2938.75,30.9054785860082
2939,30.9504615162299
2939.25,30.9954444464515
2939.5,31.0404273766732
2939.75,31.0854103068948
2940,31.1303932371164
2940.25,31.175376167338
2940.5,31.2203590975597
2940.75,31.2653420277813
2941,31.3103249580029
2941.25,31.3553078882246
2941.5,31.4002908184462
2941.75,31.4452737486678
2942,31.4902566788895
2942.25,31.5352396091111
2942.5,31.5802225393328
2942.75,31.6252054695544
2943,31.6701883997761
2943.25,31.7151713299977
2943.5,31.7601542602193
2943.75,31.7920088148697
2944,31.7220353678582
2944.25,31.6520619208468
2944.5,31.5820884738354
2944.75,31.5121150268238
2945,31.4421415798125
2945.25,31.3721681328011
2945.5,31.3021946857897
2945.75,31.2322212387781
2946,31.1622477917667
2946.25,31.0922743447553
2946.5,31.0223008977439
2946.75,30.9523274507324
2947,30.882354003721
2947.25,30.8123805567096
2947.5,30.7424071096981
2947.75,30.6724336626867
2948,30.6024602156753
2948.25,30.5324867686639
2948.5,30.4625133216524
2948.75,30.4026643304854
2949,30.4276548472752
2949.25,30.452645364065
2949.5,30.4776358808548
2949.75,30.5026263976446
2950,30.5276169144343
2950.25,30.5526074312242
2950.5,30.577597948014
2950.75,30.6025884648037
2951,30.6275789815936
2951.25,30.6525694983834
2951.5,30.6775600151731
2951.75,30.7025505319629
2952,30.7275410487528
2952.25,30.7525315655425
2952.5,30.7775220823323
2952.75,30.8025125991222
2953,30.8275031159119
2953.25,30.8524936327017
2953.5,30.8774841494915
2953.75,30.8886165351058
2954,30.7736601578728
2954.25,30.6587037806398
2954.5,30.5437474034066
2954.75,30.4287910261736
2955,30.3138346489406
2955.25,30.1988782717076
2955.5,30.0839218944743
2955.75,29.9689655172413
2956,29.8540091400083
2956.25,29.7390527627753
2956.5,29.6240963855421
2956.75,29.5091400083091
2957,29.3941836310761
2957.25,29.2792272538428
2957.5,29.1642708766098
2957.75,29.0493144993768
2958,28.9343581221438
2958.25,28.8194017449106
2958.5,28.7044453676776
2958.75,28.60502700457
2959,28.6600061415076
2959.25,28.7149852784451
2959.5,28.7699644153827
2959.75,28.8249435523202
2960,28.8799226892578
2960.25,28.9349018261954
2960.5,28.9898809631329
2960.75,29.0448601000705
2961,29.099839237008
2961.25,29.1548183739456
2961.5,29.2097975108831
2961.75,29.2647766478207
2962,29.3197557847582
2962.25,29.3747349216958
2962.5,29.4297140586334
2962.75,29.4846931955709
2963,29.5396723325085
2963.25,29.594651469446
2963.5,29.6496306063836
2963.75,29.691618648507
2964,29.5916565813479
2964.25,29.4916945141886
2964.5,29.3917324470294
2964.75,29.2917703798703
2965,29.1918083127111
2965.25,29.0918462455518
2965.5,28.9918841783927
2965.75,28.8919221112335
2966,28.7919600440742
2966.25,28.6919979769151
2966.5,28.5920359097559
2966.75,28.4920738425968
2967,28.3921117754375
2967.25,28.2921497082783
2967.5,28.1921876411192
2967.75,28.0922255739601
2968,27.9922635068007
2968.25,27.8923014396416
2968.5,27.7923393724825
2968.75,27.6973320568631
2969,27.6623453333574
2969.25,27.6273586098517
2969.5,27.592371886346
2969.75,27.5573851628402
2970,27.5223984393345
2970.25,27.4874117158288
2970.5,27.4524249923231
2970.75,27.4174382688174
2971,27.3824515453117
2971.25,27.347464821806
2971.5,27.3124780983002
2971.75,27.2774913747945
2972,27.2425046512888
2972.25,27.2075179277831
2972.5,27.1725312042774
2972.75,27.1375444807717
2973,27.102557757266
2973.25,27.0675710337602
2973.5,27.0325843102545
2973.75,27.000343201893
2974,27.005341305251
2974.25,27.010339408609
2974.5,27.0153375119669
2974.75,27.0203356153249
2975,27.0253337186828
2975.25,27.0303318220408
2975.5,27.0353299253987
2975.75,27.0403280287567
2976,27.0453261321147
2976.25,27.0503242354726
2976.5,27.0553223388306
2976.75,27.0603204421886
2977,27.0653185455465
2977.25,27.0703166489045
2977.5,27.0753147522624
2977.75,27.0803128556204
2978,27.0853109589783
2978.25,27.0903090623363
2978.5,27.0953071656943
2978.75,27.1006105381044
2979,27.1106067448204
2979.25,27.1206029515363
2979.5,27.1305991582522
2979.75,27.1405953649681
2980,27.150591571684
2980.25,27.1605877784
2980.5,27.1705839851159
2980.75,27.1805801918318
2981,27.1905763985477
2981.25,27.2005726052636
2981.5,27.2105688119796
2981.75,27.2205650186955
2982,27.2305612254114
2982.25,27.2405574321273
2982.5,27.2505536388432
2982.75,27.2605498455591
2983,27.2705460522751
2983.25,27.280542258991
2983.5,27.2905384657069
2983.75,27.3026733621142
2984,27.3526543956938
2984.25,27.4026354292733
2984.5,27.4526164628529
2984.75,27.5025974964326
2985,27.5525785300121
2985.25,27.6025595635917
2985.5,27.6525405971714
2985.75,27.7025216307509
2986,27.7525026643305
2986.25,27.8024836979101
2986.5,27.8524647314897
2986.75,27.9024457650693
2987,27.9524267986489
2987.25,28.0024078322285
2987.5,28.0523888658081
2987.75,28.1023698993877
2988,28.1523509329672
2988.25,28.2023319665469
2988.5,28.2523130001265
2988.75,28.3004588067412
2989,28.3104550134571
2989.25,28.3204512201731
2989.5,28.330447426889
2989.75,28.3404436336049
2990,28.3504398403208
2990.25,28.3604360470367
2990.5,28.3704322537526
2990.75,28.3804284604686
2991,28.3904246671845
2991.25,28.4004208739004
2991.5,28.4104170806163
2991.75,28.4204132873322
2992,28.4304094940482
2992.25,28.4404057007641
2992.5,28.45040190748
2992.75,28.4603981141959
2993,28.4703943209118
2993.25,28.4803905276278
2993.5,28.4903867343437
2993.75,28.5011488231788
2994,28.5311374433265
2994.25,28.5611260634743
2994.5,28.5911146836221
2994.75,28.6211033037698
2995,28.6510919239176
2995.25,28.6810805440654
2995.5,28.7110691642131
2995.75,28.7410577843608
2996,28.7710464045086
2996.25,28.8010350246564
2996.5,28.8310236448041
2996.75,28.8610122649519
2997,28.8910008850997
2997.25,28.9209895052474
2997.5,28.9509781253951
2997.75,28.9809667455429
2998,29.0109553656907
2998.25,29.0409439858384
2998.5,29.0709326059862
2998.75,29.1033778291577
2999,29.2133361030329
2999.25,29.323294376908
2999.5,29.433252650783
2999.75,29.5432109246583
3000,29.6531691985333
3000.25,29.7631274724084
3000.5,29.8730857462834
3000.75,29.9830440201587
3001,30.0930022940337
3001.25,30.2029605679088
3001.5,30.3129188417841
3001.75,30.4228771156591
3002,30.5328353895342
3002.25,30.6427936634092
3002.5,30.7527519372845
3002.75,30.8627102111595
3003,30.9726684850346
3003.25,31.0826267589098
3003.5,31.1925850327849
3003.75,31.3023120969636
3004,31.4022741641227
3004.25,31.502236231282
3004.5,31.6021982984412
3004.75,31.7021603656003
3005,31.8021224327596
3005.25,31.9020844999188
3005.5,32.0020465670779
3005.75,32.1020086342371
3006,32.2019707013964
3006.25,32.3019327685555
3006.5,32.4018948357147
3006.75,32.501856902874
3007,32.6018189700331
3007.25,32.7017810371923
3007.5,32.8017431043514
3007.75,32.9017051715107
3008,33.0016672386699
3008.25,33.101629305829
3008.5,33.2015913729883
3008.75,33.2984465598525
3009,33.1984844926934
3009.25,33.0985224255342
3009.5,32.9985603583749
3009.75,32.8985982912158
3010,32.7986362240566
3010.25,32.6986741568975
3010.5,32.5987120897382
3010.75,32.498750022579
3011,32.3987879554199
3011.25,32.2988258882606
3011.5,32.1988638211014
3011.75,32.0989017539423
3012,31.9989396867832
3012.25,31.8989776196238
3012.5,31.7990155524647
3012.75,31.6990534853056
3013,31.5990914181462
3013.25,31.4991293509871
3013.5,31.399167283828
3013.75,31.2983706941711
3014,31.0934484564945
3014.25,30.8885262188182
3014.5,30.683603981142
3014.75,30.4786817434654
3015,30.2737595057891
3015.25,30.0688372681129
3015.5,29.8639150304367
3015.75,29.6589927927601
3016,29.4540705550838
3016.25,29.2491483174076
3016.5,29.044226079731
3016.75,28.8393038420547
3017,28.6343816043785
3017.25,28.4294593667023
3017.5,28.2245371290256
3017.75,28.0196148913494
3018,27.8146926536732
3018.25,27.6097704159966
3018.5,27.4048481783203
3018.75,27.2000018063258
3019,27.2049999096837
3019.25,27.2099980130417
3019.5,27.2149961163996
3019.75,27.2199942197576
3020,27.2249923231155
3020.25,27.2299904264735
3020.5,27.2349885298315
3020.75,27.2399866331894
3021,27.2449847365474
3021.25,27.2499828399054
3021.5,27.2549809432633
3021.75,27.2599790466213
3022,27.2649771499792
3022.25,27.2699752533372
3022.5,27.2749733566951
3022.75,27.2799714600531
3023,27.2849695634111
3023.25,27.289967666769
3023.5,27.294965770127
3023.75,27.2999638734849
3024,27.2503802315709
3024.25,27.2003991979914
3024.5,27.1504181644117
3024.75,27.1004371308321
3025,27.0504560972526
3025.25,27.000475063673
3025.5,26.9504940300933
3025.75,26.9005129965138
3026,26.8505319629342
3026.25,26.8005509293545
3026.5,26.750569895775
3026.75,26.7005888621954
3027,26.6506078286158
3027.25,26.6006267950362
3027.5,26.5506457614566
3027.75,26.500664727877
3028,26.4506836942974
3028.25,26.4007026607178
3028.5,26.3507216271382
3028.75,26.3007405935587
3029,26.447721320063
3029.25,26.5976644208017
3029.5,26.7476075215404
3029.75,26.8975506222794
3030,27.0474937230181
3030.25,27.1974368237568
3030.5,27.3473799244955
3030.75,27.4973230252345
3031,27.6472661259732
3031.25,27.7972092267119
3031.5,27.9471523274507
3031.75,28.0970954281896
3032,28.2470385289284
3032.25,28.3969816296671
3032.5,28.546924730406
3032.75,28.6968678311448
3033,28.8468109318835
3033.25,28.9967540326222
3033.5,29.1466971333612
3033.75,29.2966402340999
3034,29.2706833330323
3034.25,29.2406947128845
3034.5,29.2107060927367
3034.75,29.180717472589
3035,29.1507288524413
3035.25,29.1207402322935
3035.5,29.0907516121457
3035.75,29.060762991998
3036,29.0307743718502
3036.25,29.0007857517024
3036.5,28.9707971315547
3036.75,28.940808511407
3037,28.9108198912592
3037.25,28.8808312711114
3037.5,28.8508426509637
3037.75,28.8208540308159
3038,28.7908654106681
3038.25,28.7608767905204
3038.5,28.7308881703727
3038.75,28.7008995502249
3039,28.6757591083976
3039.25,28.6507685916078
3039.5,28.625778074818
3039.75,28.6007875580282
3040,28.5757970412384
3040.25,28.5508065244486
3040.5,28.5258160076588
3040.75,28.500825490869
3041,28.4758349740792
3041.25,28.4508444572894
3041.5,28.4258539404996
3041.75,28.4008634237098
3042,28.37587290692
3042.25,28.3508823901302
3042.5,28.3258918733404
3042.75,28.3009013565506
3043,28.2759108397609
3043.25,28.250920322971
3043.5,28.2259298061812
3043.75,28.2009392893915
3044,28.3010151550732
3044.25,28.4059753255903
3044.5,28.5109354961074
3044.75,28.6158956666245
3045,28.7208558371418
3045.25,28.8258160076589
3045.5,28.930776178176
3045.75,29.0357363486932
3046,29.1406965192103
3046.25,29.2456566897274
3046.5,29.3506168602445
3046.75,29.4555770307618
3047,29.5605372012789
3047.25,29.665497371796
3047.5,29.7704575423133
3047.75,29.8754177128304
3048,29.9803778833475
3048.25,30.0853380538646
3048.5,30.1902982243819
3048.75,30.295258394899
3049,30.2140983725005
3049.25,30.1241325120571
3049.5,30.0341666516139
3049.75,29.9442007911707
3050,29.8542349307274
3050.25,29.764269070284
3050.5,29.6743032098408
3050.75,29.5843373493976
3051,29.4943714889542
3051.25,29.404405628511
3051.5,29.3144397680678
3051.75,29.2244739076245
3052,29.1345080471811
3052.25,29.0445421867379
3052.5,28.9545763262947
3052.75,28.8646104658515
3053,28.7746446054081
3053.25,28.6846787449648
3053.5,28.5947128845216
3053.75,28.5047470240782
3054,28.4763281010097
3054.25,28.4513375842199
3054.5,28.4263470674302
3054.75,28.4013565506403
3055,28.3763660338505
3055.25,28.3513755170608
3055.5,28.3263850002709
3055.75,28.3013944834811
3056,28.2764039666914
3056.25,28.2514134499016
3056.5,28.2264229331117
3056.75,28.201432416322
3057,28.1764418995322
3057.25,28.1514513827423
3057.5,28.1264608659525
3057.75,28.1014703491628
3058,28.076479832373
3058.25,28.0514893155831
3058.5,28.0264987987934
3058.75,28.0015082820036
3059,27.8731959321542
3059.25,27.7382471414894
3059.5,27.6032983508246
3059.75,27.4683495601597
3060,27.3334007694946
3060.25,27.1984519788298
3060.5,27.063503188165
3060.75,26.9285543974999
3061,26.793605606835
3061.25,26.6586568161702
3061.5,26.5237080255054
3061.75,26.3887592348403
3062,26.2538104441754
3062.25,26.1188616535106
3062.5,25.9839128628458
3062.75,25.8489640721807
3063,25.7140152815158
3063.25,25.579066490851
3063.5,25.4441177001859
3063.75,25.3091689095211
3064,25.3326095988151
3064.25,25.3675963223208
3064.5,25.4025830458265
3064.75,25.4375697693322
3065,25.4725564928379
3065.25,25.5075432163437
3065.5,25.5425299398494
3065.75,25.5775166633551
3066,25.6125033868608
3066.25,25.6474901103665
3066.5,25.6824768338722
3066.75,25.7174635573779
3067,25.7524502808837
3067.25,25.7874370043894
3067.5,25.8224237278951
3067.75,25.8574104514008
3068,25.8923971749066
3068.25,25.9273838984123
3068.5,25.962370621918
3068.75,25.9973573454237
3069,26.1062733693395
3069.25,26.2212297465725
3069.5,26.3361861238055
3069.75,26.4511425010387
3070,26.5660988782718
3070.25,26.6810552555048
3070.5,26.796011632738
3070.75,26.910968009971
3071,27.025924387204
3071.25,27.140880764437
3071.5,27.2558371416702
3071.75,27.3707935189033
3072,27.4857498961363
3072.25,27.6007062733695
3072.5,27.7156626506025
3072.75,27.8306190278355
3073,27.9455754050685
3073.25,28.0605317823017
3073.5,28.1754881595348
3073.75,28.2904445367678
3074,28.3091652968696
3074.25,28.3191615035856
3074.5,28.3291577103015
3074.75,28.3391539170174
3075,28.3491501237333
3075.25,28.3591463304492
3075.5,28.3691425371652
3075.75,28.3791387438811
3076,28.389134950597
3076.25,28.3991311573129
3076.5,28.4091273640288
3076.75,28.4191235707448
3077,28.4291197774607
3077.25,28.4391159841766
3077.5,28.4491121908925
3077.75,28.4591083976084
3078,28.4691046043243
3078.25,28.4791008110403
3078.5,28.4890970177562
3078.75,28.4990932244721
3079,28.5454471559401
3079.25,28.5954281895197
3079.5,28.6454092230993
3079.75,28.6953902566789
3080,28.7453712902585
3080.25,28.7953523238381
3080.5,28.8453333574177
3080.75,28.8953143909973
3081,28.9452954245769
3081.25,28.9952764581565
3081.5,29.0452574917361
3081.75,29.0952385253157
3082,29.1452195588953
3082.25,29.1952005924749
3082.5,29.2451816260545
3082.75,29.295162659634
3083,29.3451436932137
3083.25,29.3951247267933
3083.5,29.4451057603728
3083.75,29.4950867939524
3084,29.4909864344936
3084.25,29.4809902277777
3084.5,29.4709940210618
3084.75,29.4609978143458
3085,29.4510016076299
3085.25,29.441005400914
3085.5,29.4310091941981
3085.75,29.4210129874822
3086,29.4110167807662
3086.25,29.4010205740503
3086.5,29.3910243673344
3086.75,29.3810281606185
3087,29.3710319539026
3087.25,29.3610357471867
3087.5,29.3510395404707
3087.75,29.3410433337548
3088,29.3310471270389
3088.25,29.321050920323
3088.5,29.311054713607
3088.75,29.3010585068911
3089,29.2687180506133
3089.25,29.2337313271075
3089.5,29.1987446036018
3089.75,29.1637578800961
3090,29.1287711565903
3090.25,29.0937844330846
3090.5,29.0587977095789
3090.75,29.0238109860732
3091,28.9888242625675
3091.25,28.9538375390618
3091.5,28.9188508155561
3091.75,28.8838640920503
3092,28.8488773685446
3092.25,28.8138906450389
3092.5,28.7789039215332
3092.75,28.7439171980275
3093,28.7089304745218
3093.25,28.6739437510161
3093.5,28.6389570275103
3093.75,28.6039703040046
3094,28.5778454146421
3094.25,28.5528548978523
3094.5,28.5278643810625
3094.75,28.5028738642727
3095,28.4778833474829
3095.25,28.4528928306931
3095.5,28.4279023139033
3095.75,28.4029117971135
3096,28.3779212803237
3096.25,28.3529307635339
3096.5,28.3279402467441
3096.75,28.3029497299543
3097,28.2779592131645
3097.25,28.2529686963747
3097.5,28.2279781795849
3097.75,28.2029876627951
3098,28.1779971460053
3098.25,28.1530066292155
3098.5,28.1280161124257
3098.75,28.1030255956359
3099,28.1175719369231
3099.25,28.137564350355
3099.5,28.1575567637868
3099.75,28.1775491772186
3100,28.1975415906505
3100.25,28.2175340040823
3100.5,28.2375264175141
3100.75,28.257518830946
3101,28.2775112443778
3101.25,28.2975036578096
3101.5,28.3174960712415
3101.75,28.3374884846733
3102,28.3574808981052
3102.25,28.377473311537
3102.5,28.3974657249689
3102.75,28.4174581384007
3103,28.4374505518325
3103.25,28.4574429652644
3103.5,28.4774353786962
3103.75,28.497427792128
3104,28.5696808222395
3104.25,28.6496504759669
3104.5,28.7296201296942
3104.75,28.8095897834215
3105,28.8895594371489
3105.25,28.9695290908763
3105.5,29.0494987446036
3105.75,29.1294683983309
3106,29.2094380520584
3106.25,29.2894077057857
3106.5,29.369377359513
3106.75,29.4493470132403
3107,29.5293166669678
3107.25,29.6092863206951
3107.5,29.6892559744224
3107.75,29.7692256281499
3108,29.8491952818772
3108.25,29.9291649356045
3108.5,30.0091345893318
3108.75,30.0891042430593
3109,30.1215855927458
3109.25,30.1465761095356
3109.5,30.1715666263254
3109.75,30.1965571431152
3110,30.221547659905
3110.25,30.2465381766948
3110.5,30.2715286934846
3110.75,30.2965192102744
3111,30.3215097270642
3111.25,30.346500243854
3111.5,30.3714907606438
3111.75,30.3964812774336
3112,30.4214717942234
3112.25,30.4464623110132
3112.5,30.471452827803
3112.75,30.4964433445928
3113,30.5214338613826
3113.25,30.5464243781724
3113.5,30.5714148949622
3113.75,30.5964054117519
3114,30.6984212712922
3114.25,30.8133776485252
3114.5,30.9283340257582
3114.75,31.0432904029914
3115,31.1582467802244
3115.25,31.2732031574574
3115.5,31.3881595346905
3115.75,31.5031159119237
3116,31.6180722891567
3116.25,31.7330286663897
3116.5,31.8479850436227
3116.75,31.9629414208559
3117,32.0778977980889
3117.25,32.192854175322
3117.5,32.3078105525552
3117.75,32.4227669297882
3118,32.5377233070212
3118.25,32.6526796842542
3118.5,32.7676360614874
3118.75,32.8825924387204
3119,32.8703112299272
3119.25,32.8353245064214
3119.5,32.8003377829157
3119.75,32.7653510594101
3120,32.7303643359043
3120.25,32.6953776123986
3120.5,32.6603908888929
3120.75,32.6254041653872
3121,32.5904174418814
3121.25,32.5554307183757
3121.5,32.52044399487
3121.75,32.4854572713643
3122,32.4504705478586
3122.25,32.4154838243529
3122.5,32.3804971008472
3122.75,32.3455103773414
3123,32.3105236538357
3123.25,32.27553693033
3123.5,32.2405502068243
3123.75,32.2055634833185
3124,32.0865103592781
3124.25,31.9515615686133
3124.5,31.8166127779482
3124.75,31.6816639872834
3125,31.5467151966185
3125.25,31.4117664059537
3125.5,31.2768176152886
3125.75,31.1418688246238
3126,31.0069200339589
3126.25,30.8719712432941
3126.5,30.737022452629
3126.75,30.6020736619642
3127,30.4671248712993
3127.25,30.3321760806342
3127.5,30.1972272899694
3127.75,30.0622784993046
3128,29.9273297086397
3128.25,29.7923809179746
3128.5,29.6574321273098
3128.75,29.522483336645
3129,29.3125575766331
3129.25,29.0876429255251
3129.5,28.862728274417
3129.75,28.6378136233089
3130,28.4128989722004
3130.25,28.1879843210924
3130.5,27.9630696699843
3130.75,27.7381550188758
3131,27.5132403677678
3131.25,27.2883257166597
3131.5,27.0634110655516
3131.75,26.8384964144432
3132,26.6135817633351
3132.25,26.388667112227
3132.5,26.1637524611186
3132.75,25.9388378100105
3133,25.7139231589024
3133.25,25.4890085077944
3133.5,25.2640938566859
3133.75,25.0391792055778
3134,24.8968136413721
3134.25,24.7718610574229
3134.5,24.646908473474
3134.75,24.5219558895251
3135,24.3970033055762
3135.25,24.272050721627
3135.5,24.1470981376781
3135.75,24.0221455537292
3136,23.89719296978
3136.25,23.7722403858311
3136.5,23.6472878018822
3136.75,23.5223352179332
3137,23.3973826339841
3137.25,23.2724300500352
3137.5,23.1474774660862
3137.75,23.0225248821373
3138,22.8975722981882
3138.25,22.7726197142392
3138.5,22.6476671302903
3138.75,22.5227145463411
3139,22.5368056935388
3139.25,22.5817886237604
3139.5,22.626771553982
3139.75,22.6717544842037
3140,22.7167374144253
3140.25,22.7617203446469
3140.5,22.8067032748686
3140.75,22.8516862050903
3141,22.8966691353119
3141.25,22.9416520655335
3141.5,22.9866349957552
3141.75,23.0316179259768
3142,23.0766008561984
3142.25,23.1215837864201
3142.5,23.1665667166417
3142.75,23.2115496468633
3143,23.2565325770849
3143.25,23.3015155073066
3143.5,23.3464984375282
3143.75,23.3914813677499
3144,23.4364642979716
3144.25,23.4814472281932
3144.5,23.5264301584148
3144.75,23.5714130886364
3145,23.6163960188581
3145.25,23.6613789490797
3145.5,23.7063618793013
3145.75,23.751344809523
3146,23.7963277397446
3146.25,23.8413106699662
3146.5,23.8862936001878
3146.75,23.9312765304095
3147,23.9762594606312
3147.25,24.0212423908528
3147.5,24.0662253210744
3147.75,24.1112082512961
3148,24.1561911815177
3148.25,24.2011741117393
3148.5,24.246157041961
3148.75,24.2911399721826
3149,24.4525189212623
3149.25,24.6424468488646
3149.5,24.8323747764674
3149.75,25.0223027040697
3150,25.2122306316721
3150.25,25.4021585592748
3150.5,25.5920864868772
3150.75,25.7820144144795
3151,25.9719423420819
3151.25,26.1618702696846
3151.5,26.351798197287
3151.75,26.5417261248893
3152,26.7316540524921
3152.25,26.9215819800944
3152.5,27.1115099076968
3152.75,27.3014378352992
3153,27.4913657629019
3153.25,27.6812936905042
3153.5,27.8712216181066
3153.75,28.0611495457093
3154,28.0681942161449
3154.25,28.0282093892813
3154.5,27.9882245624176
3154.75,27.9482397355539
3155,27.9082549086902
3155.25,27.8682700818266
3155.5,27.8282852549628
3155.75,27.7883004280992
3156,27.7483156012355
3156.25,27.7083307743719
3156.5,27.6683459475081
3156.75,27.6283611206445
3157,27.5883762937808
3157.25,27.5483914669171
3157.5,27.5084066400534
3157.75,27.4684218131898
3158,27.4284369863261
3158.25,27.3884521594624
3158.5,27.3484673325987
3158.75,27.3084825057351
3159,27.4575116056429
3159.25,27.6574357399615
3159.5,27.8573598742798
3159.75,28.0572840085981
3160,28.2572081429167
3160.25,28.457132277235
3160.5,28.6570564115533
3160.75,28.8569805458716
3161,29.0569046801902
3161.25,29.2568288145085
3161.5,29.4567529488268
3161.75,29.6566770831454
3162,29.8566012174637
3162.25,30.056525351782
3162.5,30.2564494861002
3162.75,30.4563736204189
3163,30.6562977547372
3163.25,30.8562218890555
3163.5,31.0561460233741
3163.75,31.2560701576924
3164,31.1635049944907
3164.25,30.9885713769622
3164.5,30.8136377594334
3164.75,30.6387041419049
3165,30.4637705243764
3165.25,30.2888369068476
3165.5,30.1139032893191
3165.75,29.9389696717906
3166,29.7640360542621
3166.25,29.5891024367333
3166.5,29.4141688192048
3166.75,29.2392352016763
3167,29.0643015841475
3167.25,28.889367966619
3167.5,28.7144343490905
3167.75,28.539500731562
3168,28.3645671140332
3168.25,28.1896334965047
3168.5,28.0146998789762
3168.75,27.8397662614477
3169,27.7845523021622
3169.25,27.7645598887303
3169.5,27.7445674752985
3169.75,27.7245750618666
3170,27.7045826484348
3170.25,27.684590235003
3170.5,27.6645978215711
3170.75,27.6446054081393
3171,27.6246129947075
3171.25,27.6046205812756
3171.5,27.5846281678438
3171.75,27.5646357544119
3172,27.5446433409801
3172.25,27.5246509275483
3172.5,27.5046585141164
3172.75,27.4846661006846
3173,27.4646736872528
3173.25,27.4446812738209
3173.5,27.4246888603891
3173.75,27.4046964469572
3174,27.4344159245678
3174.25,27.4793988547895
3174.5,27.5243817850111
3174.75,27.5693647152327
3175,27.6143476454544
3175.25,27.659330575676
3175.5,27.7043135058977
3175.75,27.7492964361193
3176,27.794279366341
3176.25,27.8392622965626
3176.5,27.8842452267842
3176.75,27.9292281570059
3177,27.9742110872275
3177.25,28.0191940174491
3177.5,28.0641769476707
3177.75,28.1091598778924
3178,28.154142808114
3178.25,28.1991257383357
3178.5,28.2441086685573
3178.75,28.289091598779
3179,28.443870233558
3179.25,28.6337981611603
3179.5,28.8237260887631
3179.75,29.0136540163654
3180,29.2035819439678
3180.25,29.3935098715701
3180.5,29.5834377991729
3180.75,29.7733657267752
3181,29.9632936543776
3181.25,30.1532215819803
3181.5,30.3431495095827
3181.75,30.533077437185
3182,30.7230053647874
3182.25,30.9129332923901
3182.5,31.1028612199925
3182.75,31.2927891475948
3183,31.4827170751976
3183.25,31.6726450027999
3183.5,31.8625729304023
3183.75,32.0525008580047
3184,32.1787106446778
3184.25,32.2836708151949
3184.5,32.388630985712
3184.75,32.4935911562292
3185,32.5985513267463
3185.25,32.7035114972634
3185.5,32.8084716677805
3185.75,32.9134318382978
3186,33.0183920088149
3186.25,33.123352179332
3186.5,33.2283123498493
3186.75,33.3332725203664
3187,33.4382326908835
3187.25,33.5431928614006
3187.5,33.6481530319179
3187.75,33.753113202435
3188,33.8580733729521
3188.25,33.9630335434694
3188.5,34.0679937139865
3188.75,34.1729538845036
3189,34.0107801520927
3189.25,33.7558768808364
3189.5,33.5009736095806
3189.75,33.2460703383248
3190,32.991167067069
3190.25,32.7362637958127
3190.5,32.4813605245569
3190.75,32.2264572533011
3191,31.9715539820448
3191.25,31.716650710789
3191.5,31.4617474395332
3191.75,31.2068441682774
3192,30.9519408970212
3192.25,30.6970376257653
3192.5,30.4421343545095
3192.75,30.1872310832533
3193,29.9323278119975
3193.25,29.6774245407417
3193.5,29.4225212694858
3193.75,29.1676179982296
3194,29.1550839038312
3194.25,29.2300554542006
3194.5,29.3050270045701
3194.75,29.3799985549394
3195,29.4549701053088
3195.25,29.5299416556782
3195.5,29.6049132060477
3195.75,29.679884756417
3196,29.7548563067864
3196.25,29.8298278571559
3196.5,29.9047994075252
3196.75,29.9797709578946
3197,30.0547425082639
3197.25,30.1297140586334
3197.5,30.2046856090028
3197.75,30.2796571593721
3198,30.3546287097416
3198.25,30.429600260111
3198.5,30.5045718104803
3198.75,30.5795433608497
3199,30.5890970177562
3199.25,30.5741027076823
3199.5,30.5591083976084
3199.75,30.5441140875345
3200,30.5291197774607
3200.25,30.5141254673868
3200.5,30.4991311573129
3200.75,30.484136847239
3201,30.4691425371651
3201.25,30.4541482270913
3201.5,30.4391539170174
3201.75,30.4241596069435
3202,30.4091652968696
3202.25,30.3941709867958
3202.5,30.3791766767219
3202.75,30.364182366648
3203,30.3491880565741
3203.25,30.3341937465003
3203.5,30.3191994364264
3203.75,30.3042051263525
3204,30.3287711565904
3204.25,30.3687559834541
3204.5,30.4087408103178
3204.75,30.4487256371814
3205,30.4887104640451
3205.25,30.5286952909088
3205.5,30.5686801177725
3205.75,30.6086649446361
3206,30.6486497714998
3206.25,30.6886345983635
3206.5,30.7286194252272
3206.75,30.7686042520908
3207,30.8085890789545
3207.25,30.8485739058182
3207.5,30.8885587326819
3207.75,30.9285435595456
3208,30.9685283864092
3208.25,31.0085132132729
3208.5,31.0484980401365
3208.75,31.0884828670003
3209,31.0074799949422
3209.25,30.8775293076353
3209.5,30.7475786203282
3209.75,30.6176279330213
3210,30.4876772457145
3210.25,30.3577265584076
3210.5,30.2277758711005
3210.75,30.0978251837936
3211,29.9678744964867
3211.25,29.8379238091798
3211.5,29.7079731218727
3211.75,29.5780224345658
3212,29.4480717472589
3212.25,29.3181210599518
3212.5,29.1881703726449
3212.75,29.058219685338
3213,28.9282689980312
3213.25,28.798318310724
3213.5,28.6683676234172
3213.75,28.5384169361103
3214,28.4964794711078
3214.25,28.4914813677499
3214.5,28.4864832643919
3214.75,28.4814851610339
3215,28.476487057676
3215.25,28.471488954318
3215.5,28.4664908509601
3215.75,28.4614927476021
3216,28.4564946442441
3216.25,28.4514965408862
3216.5,28.4464984375282
3216.75,28.4415003341703
3217,28.4365022308123
3217.25,28.4315041274543
3217.5,28.4265060240964
3217.75,28.4215079207384
3218,28.4165098173805
3218.25,28.4115117140225
3218.5,28.4065136106645
3218.75,28.4015155073066
3219,28.3965174039486
