2259,964.467667954539
2259.25,966.577225822748
2259.5,967.880417773329
2259.75,968.716328336554
2260,969.47693639567
2260.25,970.54453271482
2260.5,972.023040249124
2260.75,973.703140680074
2261,975.358822403572
2261.25,976.761696552373
2261.5,977.644001891398
2261.75,977.705598169364
2262,976.645383330476
2262.25,974.21908152096
2262.5,970.83297206512
2262.75,967.30832421099
2263,964.473114571005
2263.25,963.048788331835
2263.5,962.880233585031
2263.75,963.38161405531
2264,963.964105038832
2264.25,964.13552449488
2264.5,963.909152114216
2264.75,963.462968251506
2265,962.975049516643
2265.25,962.667101700913
2265.5,962.908844518553
2265.75,964.101356130338
2266,966.643397149154
2266.25,970.461496306491
2266.5,974.437793918341
2266.75,977.314536180038
2267,977.850691357998
2267.25,975.76745641284
2267.5,972.254320835051
2267.75,968.624410007437
2268,966.162342727967
2268.25,965.204134216839
2268.5,964.938642062073
2268.75,964.48605628213
2269,963.014176940612
2269.25,960.532001639774
2269.5,957.769015683416
2269.75,955.477990726066
2270,954.348140717924
2270.25,954.420224819371
2270.5,955.355919687462
2270.75,956.812135245762
2271,958.482626007194
2271.25,960.270795622362
2271.5,962.154096945569
2271.75,964.110068031831
2272,966.120134711893
2272.25,968.178896025223
2272.5,970.283738420181
2272.75,972.43127914345
2273,974.454132865674
2273.25,975.818544179471
2273.5,975.941114241311
2273.75,974.248566687278
2274,970.881980312902
2274.25,967.156034208208
2274.5,964.494536194543
2274.75,964.278038715245
2275,966.315957348107
2275.25,968.438419769363
2275.5,968.34930091285
2275.75,963.893951591514
2276,955.4555972916
2276.25,945.611644851417
2276.5,937.011781711324
2276.75,932.096620499622
2277,931.053575027753
2277.25,932.696368172676
2277.5,935.8191674086
2277.75,939.217136409401
2278,941.690099647404
2278.25,942.039243517238
2278.5,939.071083173647
2278.75,932.667548718953
2279,925.083854636375
2279.25,918.892328597159
2279.5,916.589084784835
2279.75,918.352939178865
2280,921.680297822444
2280.25,923.917840533211
2280.5,922.729819797164
2280.75,918.317064782619
2281,912.095944235523
2281.25,905.490331286538
2281.5,899.602325348082
2281.75,894.520286291299
2282,890.133438093872
2282.25,886.332970886905
2282.5,883.066175850584
2282.75,880.343251004372
2283,878.177727275742
2283.25,876.511316824807
2283.5,874.902208679989
2283.75,872.781092064998
2284,869.593234438011
2284.25,865.380982237511
2284.5,860.978317402714
2284.75,857.273769825616
2285,855.010943514719
2285.25,854.169137220037
2285.5,854.476604732683
2285.75,855.645843987499
2286,856.994969163353
2286.25,857.426961598131
2286.5,855.825142279621
2286.75,851.611316512613
2287,846.005475630005
2287.25,840.602510666274
2287.5,836.895167790839
2287.75,835.048455004995
2288,834.299074551413
2288.25,833.866284070925
2288.5,833.114481216665
2288.75,831.667417505863
2289,829.175721783963
2289.25,825.55656269907
2289.5,821.986582173692
2289.75,820.014073291716
2290,821.045569830829
2290.25,824.588651656484
2290.5,828.795343458318
2290.75,831.805611819549
2291,832.685542672498
2291.25,831.879259315459
2291.5,829.942957467704
2291.75,827.476555932884
2292,825.242379812433
2292.25,824.040454168244
2292.5,824.538570044987
2292.75,826.061862440681
2293,827.153482336671
2293.25,826.377544109724
2293.5,823.431241232724
2293.75,819.449977864049
2294,815.661698066378
2294.25,812.955078135129
2294.5,811.213238511937
2294.75,810.133874937564
2295,809.425972987085
2295.25,808.872734411618
2295.5,808.287330233394
2295.75,807.4960368594
2296,806.522341776299
2296.25,805.542765116334
2296.5,804.733452200153
2296.75,804.058880881779
2297,803.18195506299
2297.25,801.743055557927
2297.5,799.650885817775
2297.75,797.513793732397
2298,796.052724999032
2298.25,795.793255867647
2298.5,796.316803281104
2298.75,796.919947441508
2299,796.979757884488
2299.25,796.567039263003
2299.5,796.106710843062
2299.75,795.988834082088
2300,795.95374337472
2300.25,795.193791144896
2300.5,792.906274570691
2300.75,789.251186509895
2301,785.702436249125
2301.25,783.824257462193
2301.5,784.355556615368
2301.75,786.220967568181
2302,788.103910657972
2302.25,789.117654976042
2302.5,789.773297002576
2302.75,790.86558536628
2303,792.945429254015
2303.25,795.312885264682
2303.5,796.868009493844
2303.75,796.657916738573
2304,794.996589962622
2304.25,792.844161990595
2304.5,791.137694884597
2304.75,790.328241162307
2305,790.457264185338
2305.25,791.539810722635
2305.5,793.054042341322
2305.75,793.776168394712
2306,792.44243766145
2306.25,788.850691761559
2306.5,784.955880110253
2306.75,782.974473096888
2307,784.295630532783
2307.25,787.556011187508
2307.5,790.820561566849
2307.75,792.502067065297
2308,792.732423785543
2308.25,792.173675441342
2308.5,791.455632118531
2308.75,790.940569260335
2309,790.858855990872
2309.25,791.409167416439
2309.5,792.32575954574
2309.75,792.983291434149
2310,792.769064988906
2310.25,791.777062494346
2310.5,790.94126132834
2310.75,791.237382071434
2311,792.866200944178
2311.25,794.571666120191
2311.5,794.937337501739
2311.75,793.181562820843
2312,790.420318460058
2312.25,788.122641276571
2312.5,787.450932426359
2312.75,787.997389397377
2313,788.852948643826
2313.25,789.195594922909
2313.5,788.923559934503
2313.75,788.289902591813
2314,787.557898894726
2314.25,787.10200312342
2314.5,787.380012764984
2314.75,788.823080372142
2315,791.052843192617
2315.25,792.787939112562
2315.5,792.714498530373
2315.75,790.617561244964
2316,788.114142100533
2316.25,786.993425752547
2316.5,788.157422569747
2316.75,790.121594278414
2317,791.004197885444
2317.25,789.49680229157
2317.5,786.680640388166
2317.75,784.259470010513
2318,783.691346216899
2318.25,784.743135829936
2318.5,786.469903555613
2318.75,787.982899114561
2319,789.028782609017
2319.25,789.743081977007
2319.5,790.277962672168
2319.75,790.998975631054
2320,792.464699767575
2320.25,795.222445107983
2320.5,799.011825275902
2320.75,802.461940043221
2321,804.124510045198
2321.25,803.237310453719
2321.5,800.55804314325
2321.75,797.048409987449
2322,793.627380142559
2322.25,791.035961177591
2322.5,789.968840887607
2322.75,790.964851779202
2323,793.405819823655
2323.25,796.152979348566
2323.5,798.102598284687
2323.75,798.634777732188
2324,797.465920448376
2324.25,794.354968432154
2324.5,790.109756500721
2324.75,786.731039038403
2325,786.270167871903
2325.25,789.325086018887
2325.5,793.797597607798
2325.75,797.29780110465
2326,798.269946465202
2326.25,797.477522827445
2326.5,796.08386229196
2326.75,795.088876248165
2327,794.697328169919
2327.25,794.872493340541
2327.5,795.54768681921
2327.75,796.396725727897
2328,796.960145685266
2328.25,796.803741916278
2328.5,795.936795432955
2328.75,794.73703382915
2329,793.589880725504
2329.25,792.730595067103
2329.5,792.190431142211
2329.75,791.985928895432
2330,792.105885160583
2330.25,792.478408239586
2330.5,793.023581134039
2330.75,793.697900449788
2331,794.587420843348
2331.25,795.806998418475
2331.5,797.37710331704
2331.75,798.753508483888
2332,799.182898351219
2332.25,798.026809490006
2332.5,795.908614397853
2332.75,794.230525691558
2333,794.359196405476
2333.25,796.511599360007
2333.5,799.716137769745
2333.75,802.950050686691
2334,805.449582662114
2334.25,806.876854699438
2334.5,806.933829771835
2334.75,805.561415231591
2335,803.403594514432
2335.25,801.2330175041
2335.5,799.744772867381
2335.75,799.181571001537
2336,799.622568463976
2336.25,801.087906568137
2336.5,802.92599194117
2336.75,804.057353682413
2337,803.438055182456
2337.25,801.144034146259
2337.5,798.45757536136
2337.75,796.715650433604
2338,796.675304170423
2338.25,797.984277706963
2338.5,800.165188505112
2338.75,802.690410576746
2339,804.868078005977
2339.25,805.972818979049
2339.5,805.466988283182
2339.75,803.934376846897
2340,802.373417499626
2340.25,801.713308615587
2340.5,801.998965229032
2340.75,802.668803467722
2341,803.152614452028
2341.25,802.982837653073
2341.5,801.813318835347
2341.75,799.308138276296
2342,795.644905975528
2342.25,792.073426568462
2342.5,789.977817417298
2342.75,790.220224870862
2343,791.718923538322
2343.25,792.939771787741
2343.5,792.638397259725
2343.75,791.321665536411
2344,790.150999515627
2344.25,790.208746216353
2344.5,791.725412363629
2344.75,794.417926005384
2345,797.974700549726
2345.25,801.657964120559
2345.5,804.337886097244
2345.75,804.887562217246
2346,803.128184218067
2346.25,800.294020989103
2346.5,797.733895564155
2346.75,796.367302279834
2347,795.938141067829
2347.25,795.990903738162
2347.5,796.121164444651
2347.75,796.17209108933
2348,796.061762856485
2348.25,795.730304098617
2348.5,795.308184040924
2348.75,795.023293789132
2349,795.088908766222
2349.25,795.456118181024
2349.5,795.856626800942
2349.75,796.019292204771
2350,795.836080033924
2350.25,795.417482895128
2350.5,794.889576873331
2350.75,794.436850236386
2351,794.372546635506
2351.25,795.027087939715
2351.5,796.546083712223
2351.75,798.387990482514
2352,799.851594777898
2352.25,800.36705751838
2352.5,800.208064481965
2352.75,799.98169890258
2353,800.265247422576
2353.25,801.249790118478
2353.5,802.862071623458
2353.75,805.009874390499
2354,807.181959485013
2354.25,808.382754913165
2354.5,807.595389132515
2354.75,804.660895899607
2355,801.187925969908
2355.25,799.003129813081
2355.5,799.38935785875
2355.75,801.432105473028
2356,803.66193423389
2356.25,804.783960597827
2356.5,804.790594234767
2356.75,804.250128741777
2357,803.711315288841
2357.25,803.369194510129
2357.5,803.135364045027
2357.75,802.915729408706
2358,802.723365509074
2358.25,802.722523808502
2358.5,803.088240009791
2358.75,803.749668324856
2359,804.016068792687
2359.25,803.100531206755
2359.5,800.54096279877
2359.75,797.408670695995
2360,795.22702300827
2360.25,795.321185937481
2360.5,797.188691874757
2360.75,799.34098459657
2361,800.343345112546
2361.25,799.912389855273
2361.5,798.767375437383
2361.75,797.660602203296
2362,797.319763960406
2362.25,798.436362673429
2362.5,801.696851126258
2362.75,806.989787131631
2363,812.216374237544
2363.25,814.973570588734
2363.5,813.558092203327
2363.75,809.450433259232
2364,805.036083773212
2364.25,802.517683881458
2364.5,802.190699115104
2364.75,803.216826586733
2365,804.757543002936
2365.25,806.346032171742
2365.5,807.905857569143
2365.75,809.377065228785
2366,810.487895952188
2366.25,810.572072480468
2366.5,808.920267064567
2366.75,805.350538964638
2367,801.61307604489
2367.25,799.900416484429
2367.5,802.010052768353
2367.75,806.756802153672
2368,811.593565300315
2368.25,814.118149991132
2368.5,814.261426626124
2368.75,813.781652504106
2369,814.463818643757
2369.25,816.840045743293
2369.5,819.542163446582
2369.75,821.043626742138
2370,820.46612359575
2370.25,818.941149340632
2370.5,817.988540643612
2370.75,818.869077700432
2371,820.938521951562
2371.25,822.702530425193
2371.5,822.713543178025
2371.75,820.542933155515
2372,816.705240480711
2372.25,811.752637435599
2372.5,806.525480410878
2372.75,802.443159959919
2373,800.994374688474
2373.25,803.033479434107
2373.5,806.766315463427
2373.75,809.707604773414
2374,809.752464144636
2374.25,807.778053791956
2374.5,806.067929163741
2374.75,806.797783599909
2375,809.931630490504
2375.25,813.450455554218
2375.5,815.282841560836
2375.75,814.557019002587
2376,812.33930477032
2376.25,809.872219351014
2376.5,808.062758538614
2376.75,806.68917298696
2377,805.292609390634
2377.25,803.52596697137
2377.5,801.822047850514
2377.75,800.945980340993
2378,801.595498874155
2378.25,803.433356319191
2378.5,805.32139228163
2378.75,806.12217603689
2379,805.567211503917
2379.25,804.534572591138
2379.5,803.979717588688
2379.75,804.517605741342
2380,805.936646679282
2380.25,807.9022593899
2380.5,810.104298579527
2380.75,812.34479101671
2381,814.457930907841
2381.25,816.262096720801
2381.5,817.424437238105
2381.75,817.528090986486
2382,816.189688422091
2382.25,813.976917447423
2382.5,812.506970625629
2382.75,813.446319627953
2383,817.351800952447
2383.25,822.264637029889
2383.5,825.879404888113
2383.75,826.417174750158
2384,824.60338563686
2384.25,821.907318643798
2384.5,819.732085962685
2384.75,818.625449594126
2385,818.54023553751
2385.25,819.414774210864
2385.5,821.060462074836
2385.75,823.102712659229
2386,825.152160469411
2386.25,826.882363247337
2386.5,828.166035650529
2386.75,828.915200569858
2387,829.068123548754
2387.25,828.770950352944
2387.5,828.268743987965
2387.75,827.810189194032
2388,827.727276859407
2388.25,828.443842589303
2388.5,830.387373868626
2388.75,833.509056256026
2389,836.537927288404
2389.25,838.009739001138
2389.5,836.744177004379
2389.75,833.464152956782
2390,829.674790858958
2390.25,826.851646052847
2390.5,825.656061230226
2390.75,825.888781161526
2391,827.308803696627
2391.25,829.509618024977
2391.5,831.679168205611
2391.75,832.944424118233
2392,832.673114577077
2392.25,831.710837517967
2392.5,831.463617148747
2392.75,833.259660397901
2393,836.823084328945
2393.25,840.382709479835
2393.5,842.114660128704
2393.75,841.139604024134
2394,838.691718616636
2394.25,836.292102172818
2394.5,835.271500963886
2394.75,835.685952086131
2395,837.068053036839
2395.25,838.949147659512
2395.5,840.869061358775
2395.75,842.376392063731
2396,843.020542666029
2396.25,842.58644687483
2396.5,841.490992400243
2396.75,840.255954571677
2397,839.359668823189
2397.25,838.918552412312
2397.5,838.86931197555
2397.75,839.152115822325
2398,839.888690021255
2398.25,841.434617893196
2398.5,844.160884181707
2398.75,848.125503420779
2399,852.299779093881
2399.25,855.419304738744
2399.5,856.331986108861
2399.75,855.169512718526
2400,852.88156510071
2400.25,850.428897666452
2400.5,848.5107164522
2400.75,847.314593439971
2401,846.96880192497
2401.25,847.516737297153
2401.5,848.455121632865
2401.75,849.06399525298
2402,848.646095546473
2402.25,847.169490189284
2402.5,845.349552487768
2402.75,843.941322946068
2403,843.489904546314
2403.25,843.83755017128
2403.5,844.679595402877
2403.75,845.727407049926
2404,846.867717926057
2404.25,848.095388252764
2404.5,849.406900519035
2404.75,850.801179617256
2405,852.281250031523
2405.25,853.85052831851
2405.5,855.416536863532
2405.75,856.380148910841
2406,855.975529118374
2406.25,853.491761658056
2406.5,849.533828513906
2406.75,846.05125098357
2407,845.053994889217
2407.25,847.538752683086
2407.5,851.230921291422
2407.75,853.196972337731
2408,850.843136183782
2408.25,845.185045294158
2408.5,839.414958951957
2408.75,836.734718845443
2409,838.473806150205
2409.25,842.610476086417
2409.5,846.774973811764
2409.75,849.030564625063
2410,849.566012041032
2410.25,849.221174510287
2410.5,848.819721777932
2410.75,848.876774794214
2411,849.632386941487
2411.25,851.316234803165
2411.5,853.814334481591
2411.75,856.124297075259
2412,857.102086086791
2412.25,855.792773738311
2412.5,852.920121275915
2412.75,850.086314512371
2413,848.886918412583
2413.25,849.942276965033
2413.5,852.29002684594
2413.75,854.822992978251
2414,856.56716840427
2414.25,857.22586316992
2414.5,856.717190998721
2414.75,854.981544672525
2415,852.469097455647
2415.25,850.139446903045
2415.5,848.974210151632
2415.75,849.670879612158
2416,852.021842952925
2416.25,855.639655449926
2416.5,860.106659620165
2416.75,864.670886297639
2417,868.372449230244
2417.25,870.253520559601
2417.5,869.96951544444
2417.75,868.358955076197
2418,866.395195453669
2418.25,864.950916790169
2418.5,864.085292385019
2418.75,863.46381166563
2419,862.751437435629
2419.25,861.761013541372
2419.5,860.550356127279
2419.75,859.200309875892
2420,857.815613670821
2420.25,856.64872043524
2420.5,856.008466561369
2420.75,856.196548731602
2421,857.264304372839
2421.25,858.955007510715
2421.5,860.992983635828
2421.75,863.082114565256
2422,864.843691384487
2422.25,865.878151454995
2422.5,865.820959422739
2422.75,864.943960043486
2423,864.073513741848
2423.25,864.054328220358
2423.5,865.345288731714
2423.75,867.220563393171
2424,868.727679765741
2424.25,868.981581805357
2424.5,867.985533073556
2424.75,866.369834726896
2425,864.777507164313
2425.25,863.674939020998
2425.5,863.083316948995
2425.75,862.954777074491
2426,863.234981815628
2426.25,863.802044924572
2426.5,864.493901581326
2426.75,865.147926546038
2427,865.597901721147
2427.25,865.670534736491
2427.5,865.191706814506
2427.75,864.094000358412
2428,863.137539315508
2428.25,863.469164621297
2428.5,866.217614592395
2428.75,871.218808708025
2429,876.260271853113
2429.25,878.948014178932
2429.5,877.372329555292
2429.75,872.538729636782
2430,866.538325800324
2430.25,861.444107152267
2430.5,858.258072179819
2430.75,856.391014813346
2431,855.124591399436
2431.25,853.832313240621
2431.5,852.388665660696
2431.75,850.838083885701
2432,849.231857122849
2432.25,847.793523720017
2432.5,846.92936786478
2432.75,847.054422784054
2433,848.398427022451
2433.25,850.602689253773
2433.5,853.191979580788
2433.75,855.73839856014
2434,858.321173149114
2434.25,861.327345881918
2434.5,865.142720530898
2434.75,869.613446553375
2435,873.602770603775
2435.25,875.869605396555
2435.5,875.413849416815
2435.75,872.919462789686
2436,869.788863362876
2436.25,867.417655845306
2436.5,866.541729216329
2436.75,866.818884221099
2437,867.807374718402
2437.25,869.059663934953
2437.5,870.090709932456
2437.75,870.40052890442
2438,869.501803356021
2438.25,867.502503837572
2438.5,865.348273556957
2438.75,864.047717599797
2439,864.360346501468
2439.25,865.655488112013
2439.5,866.820394207295
2439.75,866.774215134494
2440,865.475476441749
2440.25,864.118262383127
2440.5,863.968634457911
2440.75,865.85470720361
2441,868.663729226414
2441.25,870.745470105532
2441.5,870.517554383857
2441.75,867.888399586914
2442,864.219167511559
2442.25,860.931278232799
2442.5,859.156546478337
2442.75,858.955107512317
2443,860.139260915247
2443.25,862.486181628008
2443.5,865.208137825818
2443.75,867.061490709427
2444,866.791013216399
2444.25,863.932092993757
2444.5,860.12347757131
2444.75,857.349844431837
2445,857.399905634138
2445.25,859.812612827327
2445.5,862.688802811575
2445.75,864.114484678879
2446,863.295049181823
2446.25,861.657190483803
2446.5,860.889543618513
2446.75,862.423484254746
2447,865.70269921586
2447.25,869.245026416425
2447.5,871.576127021762
2447.75,871.953353312601
2448,870.741427035415
2448.25,868.397268041192
2448.5,865.42893709731
2448.75,862.658934702647
2449,861.029182914798
2449.25,861.456928103567
2449.5,863.808555521158
2449.75,866.535504100889
2450,867.989464086585
2450.25,866.968927143223
2450.5,864.397149517965
2450.75,861.828324030855
2451,860.775362934094
2451.25,861.653304175259
2451.5,863.691446206175
2451.75,866.060101561718
2452,868.053096280495
2452.25,869.420518626385
2452.5,870.017786968994
2452.75,869.724857079434
2453,868.849276731634
2453.25,868.061694145712
2453.5,868.044142350538
2453.75,869.150868473729
2454,870.711252499835
2454.25,871.854920621763
2454.5,871.769326019586
2454.75,870.471530999954
2455,868.599474958985
2455.25,866.805772454841
2455.5,865.512368243063
2455.75,864.499773047335
2456,863.437896272724
2456.25,862.029769772345
2456.5,860.380520053246
2456.75,858.863020045756
2457,857.854463094722
2457.25,857.623336552601
2457.5,858.197530492177
2457.75,859.572679177458
2458,861.717313538373
2458.25,864.379834948012
2458.5,867.201655424981
2458.75,869.823692403589
2459,871.900080789187
2459.25,873.10557221379
2459.5,873.116707031037
2459.75,871.742712669653
2460,869.617073351816
2460.25,867.689310068811
2460.5,866.894548096123
2460.75,867.432144829608
2461,868.447794951971
2461.25,869.005990164464
2461.5,868.3765049107
2461.75,866.956073441718
2462,865.526139673255
2462.25,864.847701234985
2462.5,864.958615507186
2462.75,865.003531434267
2463,864.071831573394
2463.25,861.594633994274
2463.5,858.547984086707
2463.75,856.344300687242
2464,856.336559825144
2464.25,858.530863768297
2464.5,861.597958396891
2464.75,864.151573930805
2465,865.182026689328
2465.25,864.86862271715
2465.5,863.624748905154
2465.75,861.865643525003
2466,860.031833847932
2466.25,858.582149871819
2466.5,857.974526893341
2466.75,858.256527857837
2467,858.483339718615
2467.25,857.563107280211
2467.5,854.591216093619
2467.75,850.351089993275
2468,846.520682808387
2468.25,844.770996322705
2468.5,845.704364693477
2468.75,848.167160138319
2469,850.842441597092
2469.25,852.697621928739
2469.5,854.097340705608
2469.75,855.83468337448
2470,858.656363083033
2470.25,862.366981876607
2470.5,865.894629705163
2470.75,868.134394100261
2471,868.437658270456
2471.25,867.512766429531
2471.5,866.319164035686
2471.75,865.741526136265
2472,865.660105632421
2472.25,865.236560787288
2472.5,863.618539275913
2472.75,860.512900670892
2473,857.008470243157
2473.25,854.403818715341
2473.5,853.818054783447
2473.75,854.567708605436
2474,854.928261877987
2474.25,853.179536512809
2474.5,849.002998647544
2474.75,844.508399196868
2475,842.047415871694
2475.25,843.440931412106
2475.5,847.419487464732
2475.75,851.598216807786
2476,853.680293226191
2476.25,853.352863710886
2476.5,852.245926035673
2476.75,852.07035655974
2477,853.880745739474
2477.25,856.759108774152
2477.5,859.418377167444
2477.75,860.663973790724
2478,860.296892980179
2478.25,858.724533692204
2478.5,856.363518776522
2478.75,853.706139959421
2479,851.392383309468
2479.25,850.079306939951
2479.5,850.289191074858
2479.75,851.610495472998
2480,853.236322016062
2480.25,854.375771413316
2480.5,854.840426268321
2480.75,855.183888328165
2481,856.005464467321
2481.25,857.611461080676
2481.5,859.151355243392
2481.75,859.489160872064
2482,857.600785154362
2482.25,854.2736250539
2482.5,851.763266070968
2482.75,852.364905576375
2483,857.056798348508
2483.25,863.37728888354
2483.5,868.310067022475
2483.75,869.187722777409
2484,866.520296809207
2484.25,862.515510598459
2484.5,859.388425330575
2484.75,858.4105020897
2485,859.072847002491
2485.25,860.669123973097
2485.5,862.531066710556
2485.75,864.253871139194
2486,865.544160797521
2486.25,866.113918845809
2486.5,865.897538970646
2486.75,865.136673958769
2487,864.0954657196
2487.25,863.055036919467
2487.5,862.384867219293
2487.75,862.483083741947
2488,863.725860756257
2488.25,865.864600545748
2488.5,867.95129981861
2488.75,869.001001284767
2489,868.351035656999
2489.25,866.609381287287
2489.5,864.697118556227
2489.75,863.488227418325
2490,862.907239057249
2490.25,861.998137855804
2490.5,859.7717786883
2490.75,855.767007099747
2491,851.221584506987
2491.25,847.714313129398
2491.5,846.68801548056
2491.75,847.794639728281
2492,849.42244394124
2492.25,849.940375106934
2492.5,848.63273855482
2492.75,846.586054867851
2493,845.09736172399
2493.25,845.237256740884
2493.5,846.625404838913
2493.75,848.309077280948
2494,849.366239839367
2494.25,849.749402596362
2494.5,850.368922305979
2494.75,852.183796044975
2495,855.589569556476
2495.25,859.148606695597
2495.5,861.051090489898
2495.75,859.673310319701
2496,855.598216636729
2496.25,850.853185053001
2496.5,847.484980323018
2496.75,846.572140653871
2497,847.134815966211
2497.25,847.929773785849
2497.5,847.902931889537
2497.75,847.289750024222
2498,846.863815766845
2498.25,847.375198734275
2498.5,848.759531970149
2498.75,849.983251344072
2499,849.956282744433
2499.25,848.154700306798
2499.5,846.031130557162
2499.75,845.46928592229
2500,848.178552252648
2500.25,853.677815655726
2500.5,859.990776815511
2500.75,865.119964012316
2501,867.901414882799
2501.25,868.739520475232
2501.5,868.212019357123
2501.75,866.897513667475
2502,865.380874246644
2502.25,864.249737728967
2502.5,864.0824671454
2502.75,864.901584298543
2503,865.868805466568
2503.25,866.071886539975
2503.5,864.801174568803
2503.75,862.520240180728
2504,860.113986273292
2504.25,858.45193345198
2504.5,857.831857366352
2504.75,857.83520667491
2505,857.998121924912
2505.25,857.942295624111
2505.5,857.655182798333
2505.75,857.221967519075
2506,856.741005071415
2506.25,856.557088554853
2506.5,857.233639837557
2506.75,859.341023771646
2507,862.906533151982
2507.25,866.425964158731
2507.5,868.127081951615
2507.75,866.457256881109
2508,862.279980309494
2508.25,857.954944651195
2508.5,855.856886268668
2508.75,857.007663208007
2509,859.494186097386
2509.25,861.018875165371
2509.5,859.611300368453
2509.75,855.829925532025
2510,851.411634479523
2510.25,848.082503756153
2510.5,846.587808784317
2510.75,846.187861763353
2511,846.019272212546
2511.25,845.409558700514
2511.5,844.583909386083
2511.75,844.031118815679
2512,844.225591235203
2512.25,845.389969578709
2512.5,847.532904807504
2512.75,850.655193880446
2513,854.49194961977
2513.25,858.162213548258
2513.5,860.697934643938
2513.75,861.276776336979
2514,860.201833962688
2514.25,858.300253027734
2514.5,856.395688379254
2514.75,854.95093989318
2515,853.882841629535
2515.25,853.062790279508
2515.5,852.375811987935
2515.75,851.777479022056
2516,851.246119969244
2516.25,850.761985475637
2516.5,850.348765083176
2516.75,850.073304806542
2517,850.004326884544
2517.25,850.240675675782
2517.5,850.971079346216
2517.75,852.400957740389
2518,854.699203198786
2518.25,857.655766134932
2518.5,860.836198710946
2518.75,863.803221625556
2519,866.128343858858
2519.25,867.398518383208
2519.5,867.202265133868
2519.75,865.314351385112
2520,862.742368442649
2520.25,860.99486229709
2520.5,861.551553970463
2520.75,864.446675863533
2521,867.664545535697
2521.25,869.033680177235
2521.5,866.935908320123
2521.75,862.54519433023
2522,857.914228568783
2522.25,855.043556814544
2522.5,854.362684978575
2522.75,854.496315891007
2523,853.969655726647
2523.25,851.885157344893
2523.5,849.500905511266
2523.75,848.578068946122
2524,850.716949415837
2524.25,855.176056291982
2524.5,859.443984284119
2524.75,860.973569081913
2525,858.681752755188
2525.25,854.65289172956
2525.5,851.384949939015
2525.75,851.061285648158
2526,853.277642500385
2526.25,856.358673755826
2526.5,858.637189679731
2526.75,859.275506101868
2527,858.623673574509
2527.25,857.123260055764
2527.5,855.18444328964
2527.75,853.062961725056
2528,850.96713714217
2528.25,849.098950822283
2528.5,847.51703267509
2528.75,846.137866750046
2529,844.872009847297
2529.25,843.823732110557
2529.5,843.667385596804
2529.75,845.181668348784
2530,848.974264204777
2530.25,854.024230075624
2530.5,858.408682083961
2530.75,860.218858409283
2531,858.907319587931
2531.25,856.002825473256
2531.5,853.208835144649
2531.75,851.934280903184
2532,851.992369305842
2532.25,852.658400973202
2532.5,853.218028641702
2532.75,853.219630443207
2533,852.483019735055
2533.25,850.840573979841
2533.5,848.291542083034
2533.75,845.367966496454
2534,842.707995880332
2534.25,840.904731737019
2534.5,840.036873722157
2534.75,839.855599340294
2535,840.106154520503
2535.25,840.483821319334
2535.5,840.600020064509
2535.75,840.058151174119
2536,838.686696809824
2536.25,837.380437266401
2536.5,837.349595585875
2536.75,839.70093075312
2537,843.888165734346
2537.25,848.037025848221
2537.5,850.242499644896
2537.75,849.591109775322
2538,847.194099637785
2538.25,844.409781737998
2538.5,842.437339537619
2538.75,841.413156484443
2539,841.038236922794
2539.25,841.011952935064
2539.5,841.024585383858
2539.75,840.756215189271
2540,839.886506921682
2540.25,838.303163000609
2540.5,836.526773680415
2540.75,835.197841246915
2541,834.892908070325
2541.25,835.597126440608
2541.5,836.975782231658
2541.75,838.695076642649
2542,840.586432018052
2542.25,842.700428623357
2542.5,845.102751329879
2542.75,847.740705113092
2543,850.141681903872
2543.25,851.740010049419
2543.5,852.035826918869
2543.75,851.312618218601
2544,850.36809220715
2544.25,850.004550459462
2544.5,850.505467513834
2544.75,851.152810900401
2545,851.114332628005
2545.25,849.730672357376
2545.5,847.425682640228
2545.75,845.041832372153
2546,843.405999353533
2546.25,842.855032928569
2546.5,843.164982718389
2546.75,844.08120920182
2547,845.470182062762
2547.25,847.5886937355
2547.5,850.77201976533
2547.75,855.283082519682
2548,860.62845910082
2548.25,865.864209621893
2548.5,870.043649796862
2548.75,872.49648539
2549,873.035735488247
2549.25,871.523148209662
2549.5,867.945636870095
2549.75,863.178813018279
2550,858.482812930797
2550.25,855.104517539101
2550.5,853.372184413481
2550.75,852.17204187751
2551,850.264125327214
2551.25,846.725106437176
2551.5,842.32019318586
2551.75,838.375186194425
2552,836.163041392629
2552.25,835.759327850992
2552.5,836.05680561441
2552.75,835.899171751977
2553,834.622264210631
2553.25,832.802918098116
2553.5,831.210540064998
2553.75,830.53249775979
2554,830.874149159197
2554.25,832.089211641883
2554.5,834.017081338444
2554.75,836.174162539426
2555,837.74433395472
2555.25,837.897352786891
2555.5,836.241404977091
2555.75,833.489746797978
2556,830.527031314383
2556.25,828.161755033753
2556.5,826.648433789834
2556.75,825.996714182612
2557,826.213296740157
2557.25,827.258867812562
2557.5,829.046263566021
2557.75,831.485216869509
2558,834.246535114967
2558.25,836.438751155761
2558.5,837.089576914782
2558.75,835.472863247402
2559,832.381637568457
2559.25,829.187941877381
2559.5,827.223674460092
2559.75,826.910805694082
2560,827.782854989638
2560.25,829.336345039935
2560.5,831.065917367684
2560.75,832.461983344103
2561,833.01437682177
2561.25,832.317944587063
2561.5,830.569076830618
2561.75,828.177980537374
2562,825.548280838646
2562.25,822.957517177507
2562.5,820.572372181494
2562.75,818.555205153872
2563,816.996251930829
2563.25,815.842304350845
2563.5,815.023193251322
2563.75,814.421551900836
2564,813.710564899641
2564.25,812.505337179648
2564.5,810.487187978844
2564.75,808.008134503998
2565,805.810078750626
2565.25,804.619926917123
2565.5,804.603183998615
2565.75,805.298109934016
2566,806.210998714074
2566.25,806.99495804934
2566.5,807.598165065071
2566.75,808.00412737992
2567,808.141536882899
2567.25,807.728592106677
2567.5,806.432973628127
2567.75,804.013364101015
2568,800.94207757045
2568.25,798.028088250012
2568.5,796.03650742582
2568.75,794.916885394174
2569,793.917294814389
2569.25,792.276354990014
2569.5,789.860948497366
2569.75,787.421893654903
2570,785.773849269116
2570.25,785.168108321423
2570.5,784.591260563594
2570.75,782.857647068442
2571,779.403679989432
2571.25,775.783880878902
2571.5,774.003178633733
2571.75,775.500399702485
2572,778.849758538538
2572.25,781.721497882231
2572.5,782.198613817453
2572.75,781.175036568082
2573,780.71569251391
2573.25,782.635187320375
2573.5,786.105540271613
2573.75,788.731343699037
2574,788.245135501432
2574.25,784.847554680889
2574.5,780.773193806748
2574.75,778.272170253076
2575,778.013087432308
2575.25,778.705489416067
2575.5,778.946320457338
2575.75,778.028756298187
2576,776.419336304688
2576.25,774.696661492302
2576.5,773.24906899918
2576.75,772.023584519463
2577,770.904847584818
2577.25,769.819412376063
2577.5,768.82350959936
2577.75,767.99837126285
2578,767.481163299033
2578.25,767.631259249655
2578.5,768.863205142284
2578.75,771.386016096673
2579,774.394886245787
2579.25,776.772954775845
2579.5,777.598336179467
2579.75,777.163314569104
2580,776.226576690076
2580.25,775.501393114886
2580.5,775.292490333877
2580.75,775.692164836996
2581,776.755008648559
2581.25,778.079568492192
2581.5,778.950593501736
2581.75,778.680866923736
2582,777.244218430957
2582.25,775.21229743064
2582.5,773.172520098905
2582.75,771.515375110317
2583,770.390259449506
2583.25,769.929213299806
2583.5,770.097663744974
2583.75,770.598108677018
2584,771.111505490005
2584.25,771.523088829044
2584.5,772.118483697056
2584.75,773.229453236206
2585,775.051276391835
2585.25,777.440876679657
2585.5,780.203623204053
2585.75,783.067783862918
2586,785.511943256019
2586.25,786.964234732298
2586.5,786.95459019878
2586.75,785.48498706491
2587,782.694128742106
2587.25,778.861351205624
2587.5,775.295772772631
2587.75,773.764381165095
2588,775.807472342946
2588.25,780.383800348028
2588.5,784.822891537701
2588.75,786.592080927128
2589,785.81935438509
2589.25,784.797309580165
2589.5,785.831194902915
2589.75,789.625106078186
2590,794.985713979523
2590.25,800.615710780809
2590.5,805.701584445191
2590.75,810.260930165737
2591,814.393032940685
2591.25,817.899604091708
2591.5,819.695813938399
2591.75,818.532472551517
2592,813.538404572292
2592.25,806.279301845417
2592.5,799.287535925724
2592.75,794.972207987878
2593,793.628956316371
2593.25,793.798671106114
2593.5,793.983726424983
2593.75,793.317405649307
2594,791.789561505425
2594.25,789.452496370589
2594.5,786.614889325191
2594.75,784.145869684547
2595,782.988605821735
2595.25,783.721655408309
2595.5,785.657804921428
2595.75,787.835346856682
2596,789.41433619103
2596.25,790.18326842961
2596.5,790.132795520732
2596.75,789.299933096625
2597,788.106835865065
2597.25,787.166759386853
2597.5,787.037821617385
2597.75,787.444093578789
2598,787.473462639955
2598.25,786.236999231566
2598.5,783.968085446608
2598.75,782.160528520831
2599,782.359508065118
2599.25,784.975584723112
2599.5,788.53496929558
2599.75,791.388636140437
2600,792.583908317169
2600.25,792.813455913528
2600.5,793.00751731178
2600.75,793.936298347746
2601,795.759282935958
2601.25,798.490291795486
2601.5,802.098085500165
2601.75,806.261474349709
2602,810.544439930936
2602.25,814.509013731103
2602.5,817.69649705202
2602.75,819.634126647645
2603,819.864194672976
2603.25,818.525272698964
2603.5,816.530869352729
2603.75,814.845954643803
2604,814.140138600382
2604.25,814.254816089142
2604.5,814.887302795604
2604.75,815.682866415455
2605,815.968337189462
2605.25,814.950158913972
2605.5,811.92593440861
2605.75,807.560753711388
2606,803.572458730096
2606.25,801.685311276741
2606.5,802.474113137394
2606.75,804.782110350825
2607,807.309862189927
2607.25,809.080397752319
2607.5,809.979584410572
2607.75,810.036074539531
2608,809.355360621091
2608.25,808.448377283574
2608.5,807.959296450217
2608.75,808.467587141926
2609,809.803737151372
2609.25,811.31696733954
2609.5,812.360662349288
2609.75,812.67157323168
2610,812.439296040099
2610.25,811.879464930166
2610.5,811.188798722587
2610.75,810.520400103655
2611,810.021244735997
2611.25,809.803678860252
2611.5,809.814314546294
2611.75,809.950240108605
2612,810.119534305857
2612.25,810.343678834538
2612.5,810.710989054553
2612.75,811.305060168227
2613,812.053699331099
2613.25,812.711975326701
2613.5,813.027077392318
2613.75,812.937546424766
2614,812.789649461026
2614.25,812.981962865756
2614.5,813.887953847024
2614.75,815.769366263696
2615,818.856881409655
2615.25,823.287000483569
2615.5,828.265538095669
2615.75,832.467607879984
2616,834.591862969256
2616.25,834.297294044758
2616.5,832.388020066537
2616.75,829.735087569913
2617,827.049683498035
2617.25,824.563349835178
2617.5,822.418046425564
2617.75,820.7603236041
2618,819.773312997321
2618.25,819.657641720327
2618.5,820.592032519875
2618.75,822.22119091198
2619,823.639942003031
2619.25,823.921834273576
2619.5,822.883221957132
2619.75,821.957315096907
2620,822.789961348159
2620.25,826.548314918796
2620.5,831.909977636102
2620.75,836.745774348757
2621,839.07078311425
2621.25,838.895000356793
2621.5,837.681672102021
2621.75,836.92001650421
2622,837.397941287308
2622.25,838.610252702164
2622.5,839.912378628291
2622.75,840.800710674868
2623,841.486830731615
2623.25,842.408588803104
2623.5,843.972330788584
2623.75,846.030344096874
2624,847.96255390459
2624.25,849.135088919991
2624.5,849.238504037944
2624.75,848.709626521254
2625,848.089830224534
2625.25,847.876149080409
2625.5,848.230654635226
2625.75,849.162397552534
2626,850.679934563756
2626.25,852.803091151101
2626.5,855.566283582503
2626.75,859.004898466761
2627,862.945263953773
2627.25,866.380712492228
2627.5,868.097134006797
2627.75,867.016774106903
2628,864.410873989016
2628.25,863.531096613111
2628.5,867.69000260677
2628.75,878.488645968526
2629,892.343247111036
2629.25,904.691946270565
2629.5,911.312698416262
2629.75,912.588808744207
2630,912.21861370761
2630.25,913.973425689937
2630.5,920.695005648311
2630.75,931.43378491205
2631,944.27372333347
2631.25,957.304464535872
2631.5,968.946530877266
2631.75,978.127546799906
2632,983.818092101165
2632.25,985.048288665904
2632.5,982.066027585732
2632.75,976.258216862698
2633,969.055534055177
2633.25,961.83886752912
2633.5,955.200174156496
2633.75,949.100803074383
2634,943.48447784851
2634.25,938.28414658686
2634.5,933.329576437496
2634.75,928.393143594913
2635,923.246606766423
2635.25,917.674116967477
2635.5,911.516773283221
2635.75,904.632023123655
2636,896.881599389906
2636.25,888.589494986561
2636.5,880.948778710229
2636.75,875.248478217958
2637,872.60805572723
2637.25,872.170370182433
2637.5,871.800481388025
2637.75,869.345522431479
2638,863.775601788543
2638.25,856.787914246059
2638.5,850.485627339571
2638.75,846.779069424102
2639,845.516666555423
2639.25,845.297288176142
2639.5,844.711978025666
2639.75,843.136089661785
2640,841.295891711614
2640.25,840.05124291194
2640.5,840.075118185807
2640.75,841.072226834794
2641,842.434642803685
2641.25,843.584689753776
2641.5,844.493727335759
2641.75,845.609734365734
2642,847.395264045788
2642.25,849.974920889442
2642.5,852.68063119451
2642.75,854.730805658844
2643,855.451882837887
2643.25,854.983525803385
2643.5,853.835772714946
2643.75,852.516881027403
2644,851.368726344321
2644.25,850.501909063812
2644.5,850.009950398912
2644.75,849.884976935658
2645,849.66504333285
2645.25,848.76114756652
2645.5,846.623530810559
2645.75,843.386868784195
2646,839.767292008561
2646.25,836.498373995954
2646.5,833.981776917426
2646.75,831.814327601826
2647,829.473236490182
2647.25,826.520906152815
2647.5,823.105715275622
2647.75,819.62252164347
2648,816.46065597764
2648.25,813.86709435509
2648.5,811.948884712722
2648.75,810.806771048335
2649,810.483875512864
2649.25,810.90657338434
2649.5,811.987125851218
2649.75,813.580982554549
2650,815.309910427305
2650.25,816.735601279793
2650.5,817.514796892442
2650.75,818.151872032587
2651,819.596419353474
2651.25,822.746352028801
2651.5,827.054901379507
2651.75,830.432396251398
2652,830.720382625482
2652.25,827.317759636714
2652.5,823.188636698033
2652.75,821.793872495009
2653,825.916290033697
2653.25,834.278881141679
2653.5,844.100295373201
2653.75,852.693989394833
2654,858.957407368724
2654.25,863.07669939185
2654.5,865.27593860203
2654.75,865.906788415644
2655,865.616183301187
2655.25,865.092706066127
2655.5,864.93488733757
2655.75,864.894434623503
2656,864.258787033257
2656.25,862.317059163755
2656.5,859.020195022353
2656.75,855.545723017571
2657,853.204226284601
2657.25,853.042264633422
2657.5,854.247319829876
2657.75,855.208394940136
2658,854.34256012324
2658.25,851.255051820341
2658.5,847.081614494124
2658.75,843.058985511341
2659,840.099892455207
2659.25,837.754257272054
2659.5,835.213757889535
2659.75,831.728744711216
2660,827.389352842078
2660.25,822.913211161507
2660.5,819.030478610131
2660.75,816.227935196358
2661,814.551340231467
2661.25,813.999937959657
2661.5,814.487013923623
2661.75,815.577253332499
2662,816.746983464133
2662.25,817.49802705136
2662.5,817.562089156054
2662.75,816.792708575883
2663,815.060364513319
2663.25,812.653256309119
2663.5,810.309537482756
2663.75,808.787009320414
2664,808.335043938916
2664.25,808.092396705411
2664.5,807.051163366329
2664.75,804.615552176401
2665,801.984834364621
2665.25,800.846902405222
2665.5,802.587840994119
2665.75,805.910501159589
2666,808.11192112187
2666.25,806.616958253584
2666.5,801.544530736212
2666.75,795.44238746062
2667,790.923681246774
2667.25,789.034172287816
2667.5,788.217759165549
2667.75,786.674706472455
2668,783.476624657551
2668.25,780.001683834591
2668.5,778.005363471475
2668.75,778.610545477503
2669,780.347143238207
2669.25,781.080798470881
2669.5,779.14924232969
2669.75,775.605738622395
2670,772.472578071849
2670.25,771.465883608234
2670.5,771.679010825428
2670.75,770.876793376583
2671,767.058497179297
2671.25,761.055160425764
2671.5,755.518274422089
2671.75,752.974466598374
2672,753.519004630538
2672.25,755.315750790555
2672.5,756.544666345497
2672.75,756.547516352809
2673,755.628414021357
2673.25,754.120511098928
2673.5,752.357246485614
2673.75,750.67231232354
2674,749.393104394368
2674.25,748.719532996746
2674.5,748.733062618951
2674.75,749.482220792136
2675,750.440548270373
2675.25,750.547434105684
2675.5,748.799852922467
2675.75,745.740514910489
2676,743.333000585785
2676.25,743.490588911542
2676.5,746.079422162788
2676.75,749.084100841874
2677,750.512337416633
2677.25,750.008435098089
2677.5,748.614584311171
2677.75,747.365130579793
2678,746.366334459404
2678.25,744.93183209815
2678.5,742.404595879656
2678.75,739.059527549265
2679,735.950846148864
2679.25,734.089221181012
2679.5,733.444351026005
2679.75,733.168648495289
2680,732.44639196306
2680.25,731.120816523795
2680.5,729.476591173652
2680.75,727.768999101475
2681,725.892721196177
2681.25,723.541240536448
2681.5,720.492435218013
2681.75,717.154621854079
2682,714.215024093385
2682.25,712.216642773333
2682.5,710.94552777405
2682.75,709.942298706888
2683,708.814222140911
2683.25,707.393990102449
2683.5,705.562728651577
2683.75,703.359269295505
2684,701.158198486733
2684.25,699.370708236392
2684.5,698.147143229711
2684.75,697.292529811012
2685,696.592997315997
2685.25,695.909238427313
2685.5,695.160432587901
2685.75,694.272887760793
2686,693.213361737772
2686.25,691.966495395054
2686.5,690.595164371581
2686.75,689.452339823935
2687,688.954786416132
2687.25,689.123815905956
2687.5,689.227293984898
2687.75,688.483347969971
2688,686.907255106966
2688.25,685.309300946078
2688.5,684.437533691922
2688.75,684.184944633549
2689,683.998270037687
2689.25,683.402250611753
2689.5,682.244139900503
2689.75,680.453590724392
2690,678.262677586898
2690.25,676.460824242721
2690.5,675.84897337921
2690.75,676.317543092708
2691,676.947756596421
2691.25,676.908507765302
2691.5,676.11989357774
2691.75,674.801687822181
2692,673.208968086622
2692.25,671.689939756599
2692.5,670.601369230694
2692.75,670.075205751956
2693,669.975810654004
2693.25,670.114525966525
2693.5,669.976486756256
2693.75,668.878685422093
2694,666.547004926629
2694.25,664.041334544762
2694.5,662.666582152295
2694.75,662.69129442292
2695,663.014321635163
2695.25,662.582212338587
2695.5,661.609882934417
2695.75,660.980510797445
2696,661.160051227658
2696.25,661.317691182392
2696.5,660.412762900609
2696.75,658.540275788571
2697,657.104343943258
2697.25,657.319058818496
2697.5,658.467754150027
2697.75,658.975024360381
2698,658.094602182847
2698.25,657.082363362869
2698.5,657.413864786727
2698.75,659.11189729966
2699,660.88258251423
2699.25,661.617121466586
2699.5,661.428595434901
2699.75,660.828960299734
2700,660.249632153345
2700.25,659.971795478396
2700.5,660.238738292165
2700.75,660.997912758163
2701,661.981763162215
2701.25,662.88565800458
2701.5,663.268819584298
2701.75,662.663000739481
2702,661.106152392566
2702.25,659.41965991762
2702.5,658.418565111898
2702.75,658.108046527546
2703,657.991728812787
2703.25,657.752751288745
2703.5,657.72602824185
2703.75,658.373963710126
2704,659.641540825683
2704.25,660.825902723424
2704.5,661.284335876022
2704.75,661.16575139734
2705,660.991707026707
2705.25,661.066352894405
2705.5,661.109670021727
2705.75,660.759789459308
2706,659.991033146851
2706.25,659.119095785183
2706.5,658.443725004217
2706.75,658.067897261329
2707,658.01786817056
2707.25,658.280862998338
2707.5,658.760783694772
2707.75,659.345862705471
2708,659.845589692991
2708.25,660.005945338715
2708.5,659.628283209664
2708.75,658.782744054586
2709,657.620724921498
2709.25,656.466578153003
2709.5,655.932843658923
2709.75,656.572422606482
2710,657.955313149686
2710.25,659.030362146183
2710.5,659.061394272654
2710.75,658.429393013646
2711,657.746683102108
2711.25,657.314943015661
2711.5,657.04735899555
2711.75,656.827323359469
2712,656.496853725276
2712.25,655.878906260262
2712.5,654.96631899394
2712.75,654.183306885996
2713,653.997822019582
2713.25,654.404383346826
2713.5,654.960387983517
2713.75,655.30872240311
2714,655.619314262737
2714.25,656.228144263129
2714.5,657.158516132717
2714.75,657.895886461955
2715,657.931515775095
2715.25,657.43123884668
2715.5,656.991423775626
2715.75,657.065850413971
2716,657.575609572765
2716.25,658.327651009337
2716.5,659.289803959358
2716.75,660.63304486961
2717,662.458445277478
2717.25,664.210875150988
2717.5,665.023962086888
2717.75,664.487937454268
2718,663.424161405195
2718.25,662.828117365351
2718.5,662.906896726048
2718.75,663.025848534476
2719,662.638086410845
2719.25,662.081675949218
2719.5,662.065165446112
2719.75,662.877380330112
2720,663.787711881656
2720.25,663.956232320308
2720.5,663.411111359845
2720.75,662.997998012318
2721,663.422432678013
2721.25,664.361075432793
2721.5,665.111788000554
2721.75,665.36891333156
2722,665.676154436298
2722.25,666.649968352194
2722.5,668.246834262607
2722.75,669.851760570993
2723,670.903512038695
2723.25,671.244470188588
2723.5,670.857051334578
2723.75,669.845183413819
2724,668.57523434792
2724.25,667.444922814408
2724.5,666.793160721477
2724.75,666.90409246988
2725,667.936822507545
2725.25,669.28735222868
2725.5,670.061173939527
2725.75,669.823843304988
2726,669.205897538075
2726.25,668.963269907099
2726.5,669.304179840152
2726.75,669.899598233756
2727,670.431500943583
2727.25,670.806310550858
2727.5,671.022532677905
2727.75,671.090521177089
2728,671.05024452025
2728.25,670.95314559854
2728.5,671.033851614898
2728.75,671.726377764923
2729,673.342934585724
2729.25,675.168103800819
2729.5,676.004595017579
2729.75,675.192840920438
2730,673.700130194733
2730.25,672.780454520773
2730.5,672.946514970257
2730.75,673.726623577898
2731,674.609784711253
2731.25,675.38142323809
2731.5,676.001985392737
2731.75,676.453056032249
2732,676.790863974542
2732.25,677.089952310759
2732.5,677.414064357846
2732.75,677.808625545394
2733,678.317582742293
2733.25,678.989478186561
2733.5,679.876468663272
2733.75,681.029850678725
2734,682.495410298143
2734.25,684.316576282148
2734.5,686.389222565645
2734.75,688.240475916594
2735,689.355295208772
2735.25,689.709830237607
2735.5,689.879432266337
2735.75,690.421911153605
2736,691.271420475592
2736.25,691.961159928978
2736.5,692.130015290991
2736.75,692.009644734118
2737,692.026325936271
2737.25,692.477262195719
2737.5,693.317920175149
2737.75,694.446114216678
2738,695.676867362373
2738.25,696.709440392672
2738.5,697.253069019378
2738.75,697.299542634859
2739,697.060377215665
2739.25,696.757918547247
2739.5,696.650855957465
2739.75,697.013796695234
2740,697.986902402324
2740.25,699.203953374671
2740.5,700.181193273561
2740.75,700.667642296767
2741,700.887041210542
2741.25,701.115933267465
2741.5,701.467815159046
2741.75,701.86160569107
2742,702.201107406574
2742.25,702.340387684333
2742.5,702.097987745701
2742.75,701.359126978901
2743,700.476085735662
2743.25,699.998794772923
2743.5,700.314833640179
2743.75,701.183447829329
2744,702.21306416192
2744.25,703.10427467372
2744.5,703.756247621679
2744.75,704.09644386503
2745,704.146376421846
2745.25,704.048287412702
2745.5,703.938583436197
2745.75,703.738168596097
2746,703.196995199493
2746.25,702.146737307391
2746.5,701.117073796451
2746.75,700.97534045005
2747,702.305784553632
2747.25,704.408411378219
2747.5,706.222779415392
2747.75,706.989747496946
2748,706.710081985381
2748.25,705.507012117939
2748.5,703.776655278232
2748.75,702.338766446478
2749,702.011572294627
2749.25,702.773300750526
2749.5,703.781228363848
2749.75,704.236781670619
2750,704.148269850781
2750.25,703.998947951796
2750.5,704.189893145873
2750.75,704.622109576346
2751,705.020731610017
2751.25,705.181637006959
2751.5,705.131679941343
2751.75,704.945781120844
2752,704.837620656673
2752.25,705.291137376219
2752.5,706.79712554378
2752.75,709.045406294114
2753,710.761606670193
2753.25,710.713202934515
2753.5,709.121950571084
2753.75,707.314323558291
2754,706.514092735074
2754.25,706.852135215237
2754.5,707.91352935376
2754.75,709.271739663218
2755,710.463134788694
2755.25,711.01292312517
2755.5,710.656258841072
2755.75,709.749975663546
2756,708.763801879922
2756.25,707.983619682695
2756.5,707.345261308221
2756.75,706.752454853553
2757,706.355019432423
2757.25,706.605084204326
2757.5,707.922779888344
2757.75,709.951533306306
2758,711.726255329914
2758.25,712.418199130934
2758.5,712.461056501872
2758.75,712.911616831994
2759,714.542672903147
2759.25,716.647606449883
2759.5,718.046803560696
2759.75,717.963145459604
2760,716.944317902109
2760.25,715.809274284226
2760.5,715.201300122716
2760.75,715.364511757974
2761,716.480390045898
2761.25,718.268678172486
2761.5,719.726117910762
2761.75,719.82566200097
2762,718.608032996495
2762.25,717.282084927788
2762.5,717.049117586459
2762.75,718.049400370555
2763,719.574959763243
2763.25,720.962655350654
2763.5,722.214998758351
2763.75,723.70887258991
2764,725.734241556102
2764.25,727.983757239325
2764.5,729.909418061904
2764.75,731.085603395949
2765,731.673041844881
2765.25,732.006930768338
2765.5,732.352379176716
2765.75,732.711770490865
2766,733.0259932833
2766.25,733.279855296208
2766.5,733.591040048162
2766.75,734.101968821139
2767,734.847377354279
2767.25,735.594412222882
2767.5,736.069897837793
2767.75,736.084409363238
2768,735.622348132946
2768.25,734.692413997917
2768.5,733.543929432823
2768.75,732.854473486884
2769,733.334287945982
2769.25,735.045210652851
2769.5,737.067083644134
2769.75,738.417101856228
2770,738.815944437177
2770.25,738.874270222131
2770.5,739.244886305201
2770.75,740.157251299268
2771,741.368567817984
2771.25,742.620399331488
2771.5,743.863045331754
2771.75,745.254369281207
2772,746.940966113761
2772.25,748.671697323831
2772.5,749.8316536207
2772.75,749.825284835971
2773,748.658448065206
2773.25,746.864469470966
2773.5,744.991233574825
2773.75,743.525568746246
2774,742.900760013511
2774.25,743.500437005808
2774.5,744.887501415061
2774.75,745.934706646119
2775,745.575500803983
2775.25,744.000637664998
2775.5,742.383140542899
2775.75,741.858581727475
2776,742.64964451912
2776.25,744.295315184903
2776.5,746.319823866686
2776.75,748.269831716626
2777,749.70743412718
2777.25,750.23637618858
2777.5,749.9483424804
2777.75,749.253317453621
2778,748.552348569246
2778.25,748.076552675815
2778.5,747.946208601984
2778.75,748.263010757
2779,748.934687628503
2779.25,749.743811625374
2779.5,750.486557627818
2779.75,751.136294542046
2780,751.778291766865
2780.25,752.488521632052
2780.5,753.218105912823
2780.75,753.839331241914
2781,754.22912184796
2781.25,754.332695962401
2781.5,754.139322111593
2781.75,753.657326954474
2782,753.120807474992
2782.25,752.915810408718
2782.5,753.40475624931
2782.75,754.604074355913
2783,756.287258735535
2783.25,758.218251978592
2783.5,760.099178415461
2783.75,761.58736221219
2784,762.36215099551
2784.25,762.454425983049
2784.5,762.169305162057
2784.75,761.80928602052
2785,761.492742683769
2785.25,761.175179051052
2785.5,760.813994690592
2785.75,760.540162006997
2786,760.658664408226
2786.25,761.468352292476
2786.5,762.874092516705
2786.75,764.337756558551
2787,765.306856479984
2787.25,765.564784192072
2787.5,765.318673473052
2787.75,764.804414675812
2788,764.346229104729
2788.25,764.398894740551
2788.5,765.421478132105
2788.75,767.354878694269
2789,769.240584092794
2789.25,770.033649826681
2789.5,769.187733274041
2789.75,767.176167388978
2790,764.596881953495
2790.25,762.025121977783
2790.5,759.97803426091
2790.75,758.963382394748
2791,759.125767225906
2791.25,759.503026991909
2791.5,758.922985678894
2791.75,756.676594482632
2792,753.624446814306
2792.25,750.959350524412
2792.5,749.557891044431
2792.75,749.103446741426
2793,748.998010624588
2793.25,748.765660855873
2793.5,748.396632346606
2793.75,747.992403364102
2794,747.710795252837
2794.25,747.92217092369
2794.5,749.046996277124
2794.75,751.228654376631
2795,753.590176597586
2795.25,755.019790359076
2795.5,754.735677644556
2795.75,753.156454203821
2796,750.973653525375
2796.25,748.851667959165
2796.5,747.350064733888
2796.75,747.003107566517
2797,748.11190686849
2797.25,750.066341866194
2797.5,752.033708425167
2797.75,753.308354948634
2798,753.663576394196
2798.25,752.985505456842
2798.5,751.364533171012
2798.75,749.679615020806
2799,748.999976686461
2799.25,750.03645631235
2799.5,752.065783359649
2799.75,754.006020448259
2800,755.092784026299
2800.25,755.8170704184
2800.5,756.980055275191
2800.75,759.053803227385
2801,761.145521518831
2801.25,762.008657911571
2801.5,760.816116188499
2801.75,758.632703801066
2802,757.056380508082
2802.25,757.343212663117
2802.5,758.966553813334
2802.75,760.820640196395
2803,761.953936973693
2803.25,762.29243172959
2803.5,762.071457269217
2803.75,761.519406971502
2804,760.817252058741
2804.25,760.126990210882
2804.5,759.594264895832
2804.75,759.241156745179
2805,759.033142269719
2805.25,758.936327585592
2805.5,758.924800158264
2805.75,758.976731756682
2806,759.066032224349
2806.25,759.124708088919
2806.5,759.061110846224
2806.75,758.797335531693
2807,758.410526498796
2807.25,758.07426686163
2807.5,757.947783311446
2807.75,757.990815701829
2808,758.026533703191
2808.25,757.903113521143
2808.5,757.862955392702
2808.75,758.442159367218
2809,760.129217238948
2809.25,762.528645405914
2809.5,764.528658623885
2809.75,765.05395999003
2810,764.104076487692
2810.25,762.635437663375
2810.5,761.613348059659
2810.75,761.395384588632
2811,761.706431534023
2811.25,762.249208415672
2811.5,762.959779247089
2811.75,764.049562204326
2812,765.739709445676
2812.25,767.996742398497
2812.5,770.446381663739
2812.75,772.693499599342
2813,774.526960703476
2813.25,776.024363602844
2813.5,777.287844985163
2813.75,778.324078759926
2814,778.949560298182
2814.25,778.958540591759
2814.5,778.322555761676
2814.75,777.492008219582
2815,776.997350495812
2815.25,777.183974622123
2815.5,777.693512860013
2815.75,778.000332822138
2816,777.716277609113
2816.25,777.176868992324
2816.5,776.954907110472
2816.75,777.509953859123
2817,778.455385873784
2817.25,779.022060290171
2817.5,778.530735731046
2817.75,777.287039442061
2818,776.195095662009
2818.25,776.123350528894
2818.5,777.204117925447
2818.75,778.961472419881
2819,780.900496967781
2819.25,782.506405462888
2819.5,783.24287381269
2819.75,782.585254896059
2820,780.693851105515
2820.25,778.746840869864
2820.5,778.000872261766
2820.75,778.996349856647
2821,780.750544678215
2821.25,782.086126108273
2821.5,782.239588618951
2821.75,781.658376841567
2822,781.010269965604
2822.25,780.748473706851
2822.5,780.407347701445
2822.75,779.275349097407
2823,776.858583157559
2823.25,774.022356956678
2823.5,772.155664750162
2823.75,772.430231629114
2824,774.034916924746
2824.25,775.101691454163
2824.5,773.923169468049
2824.75,770.903481142006
2825,767.873071691279
2825.25,766.601407430329
2825.5,767.240308290063
2825.75,768.519942261487
2826,769.160013004842
2826.25,768.833321944833
2826.5,768.212844430439
2826.75,768.007258972186
2827,768.486829022865
2827.25,769.360580394339
2827.5,770.30268372288
2827.75,771.097002497842
2828,771.697296250107
2828.25,772.072683437886
2828.5,772.280889385986
2828.75,772.550006076881
2829,773.127165512263
2829.25,774.157658813032
2829.5,775.536451208639
2829.75,777.120743902502
2830,778.779316495529
2830.25,780.418112967548
2830.5,781.950518929584
2830.75,783.34539864364
2831,784.817521908573
2831.25,786.649767176576
2831.5,789.033469264976
2831.75,791.559943610213
2832,793.578861878731
2832.25,794.48700263995
2832.5,794.192135940591
2832.75,792.911802058784
2833,790.883209560948
2833.25,788.674096148574
2833.5,787.17091585282
2833.75,787.258777498668
2834,789.037465637096
2834.25,791.429933331932
2834.5,793.264939185749
2834.75,793.905345362898
2835,793.912214444937
2835.25,794.009749792212
2835.5,794.752374927575
2835.75,796.06649393086
2836,797.733333129149
2836.25,799.533431039382
2836.5,801.24298805375
2836.75,802.636517786423
2837,803.508717908732
2837.25,803.896335511191
2837.5,803.995848929046
2837.75,804.003285840938
2838,804.016199136446
2838.25,804.018828695347
2838.5,803.989704751789
2838.75,803.989652495154
2839,804.2482511489
2839.25,805.015774645888
2839.5,806.328858512464
2839.75,807.405562907525
2840,807.267923102808
2840.25,805.16049444317
2840.5,802.002340000536
2840.75,799.474922135073
2841,799.156830173591
2841.25,800.796374896412
2841.5,802.603187783026
2841.75,802.77001792767
2842,800.933723114809
2842.25,798.759015760548
2842.5,798.060408419383
2842.75,799.817627937576
2843,802.91612372965
2843.25,805.918183306832
2843.5,807.667500788002
2843.75,808.25215500417
2844,808.10407746352
2844.25,807.642609344885
2844.5,807.174671822394
2844.75,806.948120988993
2845,807.197002871924
2845.25,807.864600102311
2845.5,808.61142637775
2845.75,809.087965488265
2846,809.092752861229
2846.25,808.687281938465
2846.5,807.960096391129
2846.75,807.083990255527
2847,806.524724221735
2847.25,806.811698091577
2847.5,808.339862657594
2847.75,810.556510206711
2848,812.501546115656
2848.25,813.285105447935
2848.5,813.149628212678
2848.75,813.239775536376
2849,814.708878687874
2849.25,817.739013638299
2849.5,821.013236629691
2849.75,823.086630317621
2850,823.090036400315
2850.25,821.974060349895
2850.5,821.047962008138
2850.75,821.412251313813
2851,822.558767343756
2851.25,823.231727842674
2851.5,822.230358212878
2851.75,819.694672382684
2852,817.094721679194
2852.25,815.953099049097
2852.5,816.969960885399
2852.75,819.066768333298
2853,820.932799383302
2853.25,821.578405777435
2853.5,821.519108202637
2853.75,821.711116694047
2854,823.032386206488
2854.25,825.439085348239
2854.5,828.287211962074
2854.75,830.929469382286
2855,833.033113253323
2855.25,834.701531234448
2855.5,836.07019117262
2855.75,837.207280076491
2856,837.952907520892
2856.25,838.098900009358
2856.5,837.472846105622
2856.75,836.257190880246
2857,834.837378760236
2857.25,833.596468376104
2857.5,832.678351438185
2857.75,831.881098337805
2858,830.975763304179
2858.25,829.898337781291
2858.5,829.199692747455
2858.75,829.573954934939
2859,831.595700127231
2859.25,834.603334063666
2859.5,837.205090139626
2859.75,838.027349992851
2860,836.911958532684
2860.25,835.366949171772
2860.5,835.020930768055
2860.75,836.948123992886
2861,840.181548490397
2861.25,843.284556747722
2861.5,844.929960089792
2861.75,844.970600252318
2862,843.978920960006
2862.25,842.536479717498
2862.5,841.144631350957
2862.75,840.17301552955
2863,839.979030131054
2863.25,840.765264330332
2863.5,841.992225188187
2863.75,842.898328304089
2864,842.762333944243
2864.25,841.518270669528
2864.5,839.63201120999
2864.75,837.584916532733
2865,835.882403783062
2865.25,835.082388392257
2865.5,835.749710662537
2865.75,838.270596977616
2866,841.924921107838
2866.25,845.56949040965
2866.5,848.09674634386
2866.75,849.192808425689
2867,849.312998324151
2867.25,848.944162970496
2867.5,848.526249941794
2867.75,848.369281541941
2868,848.7609666821
2868.25,849.924481277105
2868.5,851.478345931372
2868.75,852.710539667022
2869,852.913633484428
2869.25,851.861372042122
2869.5,850.075653889919
2869.75,848.143008552517
2870,846.598113251724
2870.25,845.711915297064
2870.5,845.671723011177
2870.75,846.638720026876
2871,848.246733061442
2871.25,849.639729384731
2871.5,849.944033164907
2871.75,848.74857672156
2872,846.851092918805
2872.25,845.244301117312
2872.5,844.786690974638
2872.75,845.146258935211
2873,845.368485863488
2873.25,844.512851133374
2873.5,842.581113617759
2873.75,840.919631464881
2874,840.977863888023
2874.25,843.700596712218
2874.5,847.917668282334
2874.75,851.904980214931
2875,854.036462138014
2875.25,854.039927930957
2875.5,852.630514661159
2875.75,850.544186542623
2876,848.21358125166
2876.25,845.410628596578
2876.5,841.820296535103
2876.75,837.292929255592
2877,832.88308907825
2877.25,830.178102630085
2877.5,830.717839578682
2877.75,834.500599926574
2878,839.724845511068
2878.25,844.487917145098
2878.5,847.48061064821
2878.75,849.053695263225
2879,849.845956344746
2879.25,850.440011565175
2879.5,850.921014825676
2879.75,851.114288759491
2880,850.845728953505
2880.25,850.097933555793
2880.5,849.089050459677
2880.75,848.056655745157
2881,847.246250167212
2881.25,846.941196980955
2881.5,847.43615437836
2881.75,848.987109849127
2882,851.135923550603
2882.25,852.795980920759
2882.5,852.861203600995
2882.75,851.014314636187
2883,848.925693649271
2883.25,848.573915362351
2883.5,851.634724258472
2883.75,857.104113914795
2884,862.579412881862
2884.25,865.676139575627
2884.5,865.638674271306
2884.75,864.132237506002
2885,863.018607306053
2885.25,863.795480982649
2885.5,865.924913698531
2885.75,868.161825421701
2886,869.286749319372
2886.25,868.909838570404
2886.5,867.618714529579
2886.75,866.057136327271
2887,864.788378962156
2887.25,864.014066818938
2887.5,863.834288105204
2887.75,864.334498524651
2888,865.259442884824
2888.25,866.010757690067
2888.5,865.97499059577
2888.75,864.823818911665
2889,863.236568582374
2889.25,862.115051051649
2889.5,862.305667668089
2889.75,863.746774011058
2890,865.634996245903
2890.25,867.145718929906
2890.5,867.769662337479
2890.75,867.857543880646
2891,867.905332730417
2891.25,868.363873333748
2891.5,869.149523956097
2891.75,869.829047717308
2892,869.964119276058
2892.25,869.348788498617
2892.5,868.310970869662
2892.75,867.253266959478
2893,866.526782973182
2893.25,865.968542287241
2893.5,865.1200782253
2893.75,863.521502661004
2894,860.990149112099
2894.25,857.894214937798
2894.5,854.666962306946
2894.75,851.745530512489
2895,849.597062787305
2895.25,848.702697082577
2895.5,849.532582971693
2895.75,852.03863317411
2896,855.443690334119
2896.25,858.915817321543
2896.5,861.742497397199
2896.75,863.727906975458
2897,864.815932199009
2897.25,864.964167316497
2897.5,864.395709193985
2897.75,863.574156498287
2898,862.971731412498
2898.25,862.884318633806
2898.5,863.048756252442
2898.75,863.091353699994
2899,862.665676075428
2899.25,861.793898698435
2899.5,860.76314605282
2899.75,859.866166700003
2900,859.338713598107
2900.25,859.279725121283
2900.5,859.768033459366
2900.75,860.83720770343
2901,862.105254410626
2901.25,862.966692334471
2901.5,862.820191947533
2901.75,861.575905520771
2902,860.024765256502
2902.25,859.044775850317
2902.5,859.326158123299
2902.75,860.345042939371
2903,861.094657959612
2903.25,860.592028947116
2903.5,858.792258191728
2903.75,856.849128457047
2904,855.994560099239
2904.25,857.021741701858
2904.5,858.758717241941
2904.75,859.48354360872
2905,857.565270413242
2905.25,853.132462992984
2905.5,847.905539321493
2905.75,843.661865185969
2906,841.640383514184
2906.25,841.4914882285
2906.5,842.574040067753
2906.75,844.269584850966
2907,846.173408149926
2907.25,847.998160465279
2907.5,849.463736762547
2907.75,850.602406599578
2908,851.904046022761
2908.25,853.89494505921
2908.5,856.914307613328
2908.75,860.453872770167
2909,863.765536622206
2909.25,866.126905154213
2909.5,867.303737567053
2909.75,867.498541782747
2910,866.929226723548
2910.25,865.806601856527
2910.5,864.319281263907
2910.75,862.651553398616
2911,860.982566476679
2911.25,859.418871870034
2911.5,858.01326420963
2911.75,856.817157522071
2912,855.842941641408
2912.25,855.007379124274
2912.5,854.212853779173
2912.75,853.38142307137
2913,852.612903663636
2913.25,852.101481024986
2913.5,852.041535939908
2913.75,852.583827318516
2914,853.80958585828
2914.25,855.79383186223
2914.5,858.519102028947
2914.75,861.489964306805
2915,864.057033354061
2915.25,865.592220837593
2915.5,865.980389420198
2915.75,865.631537581976
2916,864.979469303194
2916.25,864.341509369118
2916.5,863.610467863504
2916.75,862.582471800926
2917,861.085393019475
2917.25,859.481026961524
2917.5,858.574574854554
2917.75,859.183927997829
2918,861.557292783553
2918.25,864.360559970579
2918.5,865.987119730462
2918.75,865.036420345541
2919,862.333156607611
2919.25,860.060783597055
2919.5,860.413867494504
2919.75,864.252082050956
2920,869.643934908432
2920.25,874.307671447261
2920.5,876.24013119558
2920.75,875.611107611598
2921,873.61077411432
2921.25,871.430234245075
2921.5,869.819081199562
2921.75,868.744083280093
2922,868.09167864225
2922.25,867.730523655231
2922.5,867.395908774195
2922.75,866.762578837698
2923,865.509153931169
2923.25,863.58366712487
2923.5,861.362894106989
2923.75,859.261826640287
2924,857.647867816895
2924.25,856.596907498158
2924.5,856.07450202354
2924.75,856.044905800331
2925,856.43521306783
2925.25,857.127145107429
2925.5,857.99966585684
2925.75,858.963840773073
2926,860.059281000886
2926.25,861.357769047554
2926.5,862.919255517603
2926.75,864.601845760564
2927,866.094512365553
2927.25,867.081184029038
2927.5,867.393334662831
2927.75,867.276330919537
2928,867.047571727939
2928.25,866.999211052923
2928.5,867.113509195714
2928.75,867.164711030723
2929,866.924072809742
2929.25,866.389099425043
2929.5,866.085548468162
2929.75,866.614437138131
2930,868.48623102473
2930.25,871.326759303336
2930.5,874.261938020902
2930.75,876.415109540888
2931,877.290607820268
2931.25,877.136875694826
2931.5,876.288433736248
2931.75,875.083353196607
2932,873.891234801549
2932.25,873.098182569678
2932.5,873.088440694842
2932.75,873.977992898604
2933,875.34737933968
2933.25,876.713556488025
2933.5,877.607808491506
2933.75,877.686909635572
2934,876.672583086237
2934.25,874.290456083298
2934.5,870.714962102838
2934.75,867.016079247635
2935,864.370093349746
2935.25,863.782335821944
2935.5,864.72066608761
2935.75,865.839809360396
2936,865.795772380764
2936.25,864.009323858887
2936.5,861.253875079234
2936.75,858.441207803794
2937,856.41469040289
2937.25,855.543821811362
2937.5,855.997528071294
2937.75,857.935639457889
2938,861.168816575018
2938.25,865.040043939875
2938.5,868.859591531979
2938.75,871.96278689373
2939,873.797831073221
2939.25,873.844693114081
2939.5,871.616349971844
2939.75,867.443204610982
2940,862.506840394772
2940.25,858.028601190086
2940.5,854.963024192889
2940.75,853.173277097038
2941,852.243513601752
2941.25,851.757319785932
2941.5,851.288308627953
2941.75,850.401579661069
2942,848.662965698691
2942.25,846.067637639911
2942.5,843.706159484175
2942.75,842.841263474824
2943,844.544487653118
2943.25,848.259957220691
2943.5,852.609152600059
2943.75,856.226715211214
2944,858.579063722986
2944.25,860.257417849799
2944.5,861.932796591004
2944.75,864.07200359022
2945,866.233946068535
2945.25,867.725317934481
2945.5,867.890521065145
2945.75,866.876471169394
2946,865.598067493852
2946.25,865.000986373055
2946.5,865.646306777631
2946.75,866.750239528989
2947,867.23520524135
2947.25,866.089770593712
2947.5,863.353670900552
2947.75,859.908447861151
2948,856.658960446975
2948.25,854.243618131931
2948.5,852.547446971204
2948.75,851.323254323917
2949,850.350517159497
2949.25,849.694832101796
2949.5,849.595633571913
2949.75,850.293490020497
2950,851.913710869085
2950.25,854.378211888661
2950.5,857.588162824307
2950.75,861.333027596445
2951,864.77003813391
2951.25,866.834245264572
2951.5,866.501071704537
2951.75,863.922372648025
2952,860.579205999598
2952.25,858.023942284532
2952.5,857.386523781953
2952.75,858.030883110339
2953,858.85952286173
2953.25,858.827464844905
2953.5,857.84153434783
2953.75,856.636640264086
2954,855.974863813994
2954.25,856.228670081253
2954.5,856.670067049156
2954.75,856.37815102102
2955,854.562460583397
2955.25,851.810542842837
2955.5,849.537399741378
2955.75,849.159794229225
2956,851.13845620334
2956.25,854.17379202053
2956.5,856.776797073315
2956.75,857.703124669053
2957,857.143573816437
2957.25,855.810600420368
2957.5,854.408760254715
2957.75,853.382092157882
2958,852.874355684004
2958.25,853.012663121206
2958.5,853.789024750101
2958.75,854.695035951132
2959,855.106456878266
2959.25,854.462047039313
2959.5,853.093910425465
2959.75,851.997470149053
2960,852.181403953617
2960.25,854.089432283859
2960.5,856.882483767524
2960.75,859.54440776621
2961,861.155954177032
2961.25,861.547592654033
2961.5,860.899417878675
2961.75,859.399321621711
2962,857.555664385025
2962.25,856.357217825575
2962.5,856.832229517702
2962.75,859.660046337505
2963,863.666593638937
2963.25,867.064745926421
2963.5,868.127118987679
2963.75,866.663724428146
2964,864.112950801148
2964.25,861.99153383064
2964.5,861.393842691743
2964.75,861.755002437365
2965,862.102747932378
2965.25,861.51495921854
2965.5,859.960184996954
2965.75,858.172327603339
2966,856.909921455562
2966.25,856.656698715934
2966.5,857.103641760318
2966.75,857.799632285703
2967,858.317680569232
2967.25,858.496073137057
2967.5,858.337282769801
2967.75,857.848110030034
2968,857.263250507834
2968.25,857.259728469322
2968.5,858.565350233209
2968.75,861.656595147401
2969,865.257755336702
2969.25,867.347170315673
2969.5,865.947977347031
2969.75,861.140428413193
2970,855.804399097573
2970.25,853.020252436209
2970.5,855.083968103777
2970.75,860.230799506946
2971,865.385881126022
2971.25,867.578018130177
2971.5,866.207989985901
2971.75,863.033504566266
2972,859.913557058874
2972.25,858.222438481455
2972.5,857.585975761247
2972.75,857.235878089097
2973,856.462775409169
2973.25,855.458257356934
2973.5,855.117495631828
2973.75,856.352802302355
2974,859.55160931728
2974.25,863.814444136716
2974.5,868.048214697995
2974.75,871.236485507711
2975,873.046631681235
2975.25,873.505287034132
2975.5,872.643519442003
2975.75,870.620723603403
2976,867.834383046121
2976.25,864.707842896208
2976.5,861.662478473982
2976.75,859.10386642693
2977,857.429986034313
2977.25,857.032055050222
2977.5,857.852946674744
2977.75,859.113056092188
2978,859.967295232681
2978.25,859.759829450948
2978.5,858.887445646783
2978.75,858.110768629867
2979,858.172603974294
2979.25,859.283185863877
2979.5,861.04737153018
2979.75,863.037214967634
2980,864.832789394765
2980.25,866.044471254382
2980.5,866.289793638585
2980.75,865.235186256093
2981,863.383552195869
2981.25,861.939931810808
2981.5,862.130587899099
2981.75,864.511651296198
2982,867.665873831839
2982.25,869.814569371414
2982.5,869.346592038072
2982.75,866.682326397533
2983,863.593780453577
2983.25,861.874920243417
2983.5,862.580105683562
2983.75,864.993979003124
2984,868.142030482617
2984.25,871.078537076182
2984.5,873.128304843787
2984.75,873.764381321046
2985,872.467069139632
2985.25,869.401965897912
2985.5,866.060917250678
2985.75,864.087492844012
2986,864.915697214176
2986.25,868.211291086998
2986.5,872.752679908735
2986.75,877.313085780405
2987,880.777759908975
2987.25,882.220120596883
2987.5,880.731597518903
2987.75,875.693661605634
2988,868.63517398455
2988.25,862.048952976505
2988.5,858.414817737488
2988.75,858.596572476421
2989,860.562460930401
2989.25,861.979622126007
2989.5,860.934439803429
2989.75,858.212506557069
2990,855.668915149734
2990.25,855.12281100977
2990.5,856.852211881746
2990.75,859.109875261775
2991,860.010839588716
2991.25,858.215633418604
2991.5,854.732091899606
2991.75,851.199298409975
2992,849.204720421447
2992.25,849.326168939552
2992.5,851.22164512528
2992.75,854.515073412028
2993,858.556730026632
2993.25,861.96402405868
2993.5,863.232969886578
2993.75,861.079822111803
2994,856.34371219106
2994.25,851.050743193383
2994.5,847.229998550503
2994.75,845.889400933957
2995,846.148302702007
2995.25,846.921725773703
2995.5,847.298891902843
2995.75,847.38340185952
2996,847.645038015374
2996.25,848.529599222474
2996.5,849.886762166688
2996.75,850.951083465519
2997,850.929152223866
2997.25,849.490080432523
2997.5,847.69339081913
2997.75,846.85880565699
2998,848.162274304449
2998.25,851.253615344597
2998.5,854.862889529677
2998.75,857.71548512115
2999,859.134832928907
2999.25,859.446859637536
2999.5,859.073202960499
2999.75,858.41029693379
3000,857.707930549212
3000.25,857.162995287527
3000.5,856.960741748405
3000.75,856.927594266923
3001,856.470543953722
3001.25,854.972798622544
3001.5,852.084572846283
3001.75,848.485457309201
3002,845.103071216204
3002.25,842.840993534993
3002.5,842.231949017727
3002.75,843.517370551306
3003,846.928123317988
3003.25,852.220850411721
3003.5,858.141503551361
3003.75,863.306332548144
3004,866.555722861217
3004.25,868.224282677466
3004.5,869.257718149944
3004.75,870.590857130913
3005,872.588413541933
3005.25,874.827154369104
3005.5,876.826138829478
3005.75,878.195272461889
3006,879.041029870239
3006.25,879.6386977586
3006.5,880.259066946966
3006.75,880.979974691079
3007,881.620968135744
3007.25,881.983542289902
3007.5,881.858077663719
3007.75,880.96876780654
3008,879.015406013034
3008.25,875.702535666374
3008.5,871.007315260745
3008.75,865.321216788264
3009,859.070406152503
3009.25,852.659877246899
3009.5,846.35362173141
3009.75,840.358017877596
3010,834.87975855658
3010.25,830.144340784046
3010.5,826.401636163217
3010.75,823.903113648949
3011,822.692211763242
3011.25,822.101967225405
3011.5,821.313904733472
3011.75,819.596284660845
3012,816.955104523186
3012.25,813.769054906426
3012.5,810.40286643791
3012.75,806.780175203009
3013,802.351293267135
3013.25,796.546533134066
3013.5,789.313709064456
3013.75,781.677433367877
3014,774.796660319025
3014.25,769.474604555068
3014.5,765.225766009134
3014.75,761.272914596141
3015,756.97126177954
3015.25,752.323828530884
3015.5,747.531393164728
3015.75,742.796695295229
3016,738.333167428137
3016.25,734.357956390184
3016.5,731.015475611311
3016.75,728.058171459089
3017,725.107042517704
3017.25,721.861106020508
3017.5,718.36618746219
3017.75,714.764345392826
3018,711.283611776589
3018.25,708.4349577864
3018.5,706.785433187135
3018.75,706.496908072085
3019,706.840672652615
3019.25,706.978925518406
3019.5,706.491293108163
3019.75,705.532967479896
3020,704.29722212752
3020.25,702.904943516
3020.5,701.413394602255
3020.75,699.863768317235
3021,698.167587521996
3021.25,696.165752467744
3021.5,693.796524327685
3021.75,691.489013268471
3022,689.824935564575
3022.25,689.051208129356
3022.5,688.532814902196
3022.75,687.503513172708
3023,685.729795698634
3023.25,683.704578917406
3023.5,681.939640819257
3023.75,680.502532583698
3024,679.144568568352
3024.25,677.627050316095
3024.5,675.802599835423
3024.75,673.555620776301
3025,670.998026646213
3025.25,668.776060870171
3025.5,667.574937177577
3025.75,667.152716987969
3026,666.30524484483
3026.25,664.026616938964
3026.5,661.028848002354
3026.75,658.763178085062
3027,658.046459233948
3027.25,658.056502503464
3027.5,657.749194066599
3027.75,656.898808914324
3028,656.06887955368
3028.25,655.751455891328
3028.5,655.84635996511
3028.75,656.044160765714
3029,656.129200803783
3029.25,656.064477898104
3029.5,655.835672510225
3029.75,655.46384576873
3030,654.994955959465
3030.25,654.438213180653
3030.5,653.658188385637
3030.75,652.492335960244
3031,651.106825260539
3031.25,650.106123788415
3031.5,650.02167334742
3031.75,650.564054885008
3032,651.053807084816
3032.25,651.098671668076
3032.5,650.993495523669
3032.75,651.113528687456
3033,651.514110954077
3033.25,651.987062050219
3033.5,652.368895364032
3033.75,652.725948619014
3034,653.18663720662
3034.25,653.843207626459
3034.5,654.736000365898
3034.75,655.879335299684
3035,657.09619032963
3035.25,658.11124073451
3035.5,658.731018348178
3035.75,658.986920864404
3036,658.953641469497
3036.25,658.831510429896
3036.5,658.947015558921
3036.75,659.517445772826
3037,660.063661992946
3037.25,659.848507651551
3037.5,658.654650437089
3037.75,657.342941708893
3038,656.853603934691
3038.25,657.266123934867
3038.5,657.973525991739
3038.75,658.421058381625
3039,658.377026918465
3039.25,657.706959892502
3039.5,656.641366668561
3039.75,655.986717287573
3040,656.497451221159
3040.25,657.846739269959
3040.5,659.060692168511
3040.75,659.443408913238
3041,659.227659994296
3041.25,658.832039427195
3041.5,658.615741789706
3041.75,658.867523078719
3042,659.798914356158
3042.25,661.078790618766
3042.5,662.132429740303
3042.75,662.548425621576
3043,662.323019213445
3043.25,661.528410021248
3043.5,660.535122290525
3043.75,660.000660805103
3044,660.470636866831
3044.25,661.751103045694
3044.5,663.374166605863
3044.75,664.884721969668
3045,665.85505464973
3045.25,665.902122156632
3045.5,665.326097575677
3045.75,664.988808880025
3046,665.589672312226
3046.25,666.89147244565
3046.5,668.353268408119
3046.75,669.609492636911
3047,670.634508212525
3047.25,671.426652248458
3047.5,671.74105772609
3047.75,671.135075106283
3048,669.390283924623
3048.25,667.550678809113
3048.5,667.086163494677
3048.75,668.539416310035
3049,670.447275607159
3049.25,671.157957557991
3049.5,670.404526683008
3049.75,669.15713594078
3050,668.3057225846
3050.25,667.981769726625
3050.5,668.029561225004
3050.75,668.314558404781
3051,668.753014696039
3051.25,669.259472824822
3051.5,669.552990932628
3051.75,669.162846718642
3052,667.759166706378
3052.25,665.994039588645
3052.5,664.916474221203
3052.75,665.072995166428
3053,665.749883439148
3053.25,666.059107812527
3053.5,665.564737480751
3053.75,664.283562276417
3054,662.322236982022
3054.25,660.250472647999
3054.5,658.824177536636
3054.75,658.371123611804
3055,658.205990163042
3055.25,657.544642158672
3055.5,656.500531296408
3055.75,655.988154201491
3056,656.70983708862
3056.25,658.113526637121
3056.5,659.243966780723
3056.75,659.555800320897
3057,659.222396798124
3057.25,658.507601229234
3057.5,657.893937392198
3057.75,658.010746556444
3058,659.238758848588
3058.25,660.999794395224
3058.5,662.500400224784
3058.75,663.520893977469
3059,664.619450969498
3059.25,666.344906087366
3059.5,668.65527604405
3059.75,671.192331801278
3060,673.577789523594
3060.25,675.378948362262
3060.5,676.16274366964
3060.75,675.922951107625
3061,675.219748289767
3061.25,674.613500034664
3061.5,674.245710229332
3061.75,674.002636636819
3062,673.8138732108
3062.25,673.803758026008
3062.5,674.145232142795
3062.75,674.857059905563
3063,675.690988770159
3063.25,676.382084592671
3063.5,676.816015309259
3063.75,676.995582052149
3064,676.991552262303
3064.25,677.234176198339
3064.5,678.276181559947
3064.75,680.324856630707
3065,682.781407694931
3065.25,684.94297869387
3065.5,686.38718042376
3065.75,686.993181813331
3066,686.718787926161
3066.25,686.102849021802
3066.5,685.994872091932
3066.75,686.952081681564
3067,688.308648197715
3067.25,689.08697576749
3067.5,688.939905513945
3067.75,688.763891965095
3068,689.557895099156
3068.25,691.273419915823
3068.5,692.782278490948
3068.75,693.055162283608
3069,692.433248502877
3069.25,691.998151284019
3069.5,692.542040553261
3069.75,693.520779614466
3070,694.016653220757
3070.25,693.693819446845
3070.5,693.542319636471
3070.75,694.703371208102
3071,697.167169371131
3071.25,699.492323688479
3071.5,700.272117902646
3071.75,699.689428016799
3072,699.026377550694
3072.25,699.391703214028
3072.5,700.625059752926
3072.75,702.059054779721
3073,703.099919085867
3073.25,703.416165629903
3073.5,702.736952900287
3073.75,701.250068662889
3074,700.06719694883
3074.25,700.374314576063
3074.5,702.121303198359
3074.75,703.753420683192
3075,703.75437564745
3075.25,702.366520311215
3075.5,701.100275623665
3075.75,701.269387845061
3076,702.573300916452
3076.25,704.005688983832
3076.5,704.827641440328
3076.75,705.366007567089
3077,706.208617530957
3077.25,707.557025345464
3077.5,708.723741306485
3077.75,708.909711858992
3078,707.946931175912
3078.25,706.566547622845
3078.5,705.541860125742
3078.75,705.109320920342
3079,705.00769189159
3079.25,704.976438139372
3079.5,704.952886656231
3079.75,704.989505916711
3080,705.1415429269
3080.25,705.471890766644
3080.5,706.046100124143
3080.75,706.799216080216
3081,707.236573736955
3081.25,706.779987727464
3081.5,705.485025755883
3081.75,704.668268924238
3082,705.756762131793
3082.25,708.783707251006
3082.5,712.033586996851
3082.75,713.788460171936
3083,713.996583001208
3083.25,713.911706828141
3083.5,714.667764890528
3083.75,716.012133058761
3084,716.961078971093
3084.25,716.739825716836
3084.5,715.792710634412
3084.75,714.992249120775
3085,714.976704937385
3085.25,715.493242989321
3085.5,716.078037252037
3085.75,716.440692057118
3086,716.727249150297
3086.25,717.147706576752
3086.5,717.616932763136
3086.75,717.540676651813
3087,716.29657245001
3087.25,714.012399669448
3087.5,711.727172295954
3087.75,710.506296216159
3088,710.90723995216
3088.25,713.05045411226
3088.5,716.912499685488
3088.75,721.193548166307
3089,723.868028105748
3089.25,723.338864555786
3089.5,720.700563596064
3089.75,718.071798942551
3090,717.151728348917
3090.25,717.748117734807
3090.5,719.138473891783
3090.75,720.6480684085
3091,721.74850383465
3091.25,721.941667722682
3091.5,721.154298864559
3091.75,720.225138301192
3092,720.097752214282
3092.25,720.879564239974
3092.5,721.35580735652
3092.75,720.238305077471
3093,717.546301415794
3093.25,714.804809492337
3093.5,713.557473255739
3093.75,714.216851001971
3094,716.233362496851
3094.25,719.012296087735
3094.5,721.812653087901
3094.75,723.808517868674
3095,724.311786795828
3095.25,723.543951475465
3095.5,722.09263386053
3095.75,720.494912428836
3096,719.042469839053
3096.25,717.954036202627
3096.5,717.412031530968
3096.75,717.475381646149
3097,718.175884165062
3097.25,719.305967007816
3097.5,720.096505659453
3097.75,719.707585354772
3098,717.987241371642
3098.25,715.91800011358
3098.5,714.567510793951
3098.75,714.319474325058
3099,714.736952310681
3099.25,715.344269323724
3099.5,715.830799269947
3099.75,716.023274896898
3100,715.770891917004
3100.25,715.104885768283
3100.5,714.160925554964
3100.75,713.075338383909
3101,711.980741060356
3101.25,711.008292117847
3101.5,710.243884951695
3101.75,709.58709266815
3102,708.889736235006
3102.25,708.09138198113
3102.5,707.35946274484
3102.75,706.896210721071
3103,706.782045059824
3103.25,706.896670084523
3103.5,707.095377214499
3103.75,707.091547665458
3104,706.450046554825
3104.25,704.788898276366
3104.5,702.456988404991
3104.75,700.290140030305
3105,699.026645558074
3105.25,698.691660010347
3105.5,699.017189435111
3105.75,699.727705498611
3106,700.523479444861
3106.25,701.100181102731
3106.5,701.283171170513
3106.75,701.160508258559
3107,700.851728047741
3107.25,700.467485531023
3107.5,700.107794715539
3107.75,699.880302738625
3108,700.004029932636
3108.25,700.777876292473
3108.5,702.377258866026
3108.75,704.127941380731
3109,705.002652799916
3109.25,704.351681996887
3109.5,702.939618661843
3109.75,701.858683525151
3110,701.699213639944
3110.25,701.94098830417
3110.5,701.924133163125
3110.75,701.35703237338
3111,700.432799844785
3111.25,699.371085803465
3111.5,698.289017511514
3111.75,697.222063899468
3112,696.193455233356
3112.25,695.149571837569
3112.5,694.001082594431
3112.75,692.774281485355
3113,691.95997692229
3113.25,692.162563485181
3113.5,693.528669015835
3113.75,695.247489743882
3114,696.407285950146
3114.25,696.648278599417
3114.5,696.231110627179
3114.75,695.436489348262
3115,694.397183116246
3115.25,693.151677380529
3115.5,691.843833637543
3115.75,691.218608719277
3116,692.230103843747
3116.25,695.114522047784
3116.5,698.067630868214
3116.75,698.956643085772
3117,697.355342355831
3117.25,695.385501429362
3117.5,695.266048666354
3117.75,697.186955313628
3118,699.564110336577
3118.25,700.905515768232
3118.5,700.950670408391
3118.75,700.036718286593
3119,698.578641231552
3119.25,697.313366662789
3119.5,697.063799484578
3119.75,698.122853588336
3120,699.502148970183
3120.25,700.045154054458
3120.5,699.524358448079
3120.75,698.972413229132
3121,699.437345661876
3121.25,700.777976763118
3121.5,701.897443729308
3121.75,701.837025312716
3122,700.908164318034
3122.25,700.011552337991
3122.5,699.90200758534
3122.75,700.700490748779
3123,702.358913299987
3123.25,704.648285244984
3123.5,706.912338774018
3123.75,708.443393328769
3124,709.00785595723
3124.25,709.035545669489
3124.5,708.982866812735
3124.75,708.866758886116
3125,708.308105080143
3125.25,707.000178671878
3125.5,705.517799743641
3125.75,704.950417373843
3126,706.124290389642
3126.25,708.276163613777
3126.5,710.062364884968
3126.75,710.505173906226
3127,709.882804939291
3127.25,708.741933465764
3127.5,707.60699229517
3127.75,706.954428453393
3128,707.240394215256
3128.25,708.288957296138
3128.5,709.049591760345
3128.75,708.47495882062
3129,706.765801441642
3129.25,705.223643897469
3129.5,705.009747039924
3129.75,705.52373912268
3130,705.159569478462
3130.25,702.750268830355
3130.5,699.626187574032
3130.75,697.977255860028
3131,699.123387452512
3131.25,701.576795921888
3131.5,703.295385559898
3131.75,703.194046350206
3132,701.898753487451
3132.25,700.206987986997
3132.5,698.756613345684
3132.75,698.01212228534
3133,698.371787652405
3133.25,699.559702444239
3133.5,700.86232816299
3133.75,701.663755861247
3134,701.966414444015
3134.25,701.998219871231
3134.5,701.957415598642
3134.75,701.944425167987
3135,702.039509843049
3135.25,702.29468687234
3135.5,702.708675332114
3135.75,703.269412905534
3136,703.823290169664
3136.25,704.056482316962
3136.5,703.682053353451
3136.75,702.867535978473
3137,702.094747987126
3137.25,701.804804663622
3137.5,702.117843223979
3137.75,703.019783606304
3138,704.423237468798
3138.25,705.963602335755
3138.5,707.21113774595
3138.75,707.892803940676
3139,708.080596307177
3139.25,707.893483671342
3139.5,707.494797523357
3139.75,707.109140473954
3140,706.960084425883
3140.25,707.167553588178
3140.5,707.759263077885
3140.75,708.754310494656
3141,710.11919538087
3141.25,711.790769585819
3141.5,713.647724363341
3141.75,715.241169565936
3142,716.007014561236
3142.25,715.723473751799
3142.5,715.395043807588
3142.75,716.29823712239
3143,718.977316400981
3143.25,722.213436868686
3143.5,724.54022147559
3143.75,725.38834425165
3144,725.672542084826
3144.25,726.42562184694
3144.5,727.916493164389
3144.75,729.455231152011
3145,730.318240070291
3145.25,730.38041460868
3145.5,730.101086777743
3145.75,729.948266399849
3146,730.145286593257
3146.25,730.721679560373
3146.5,731.671477661809
3146.75,732.640964875346
3147,733.053583565587
3147.25,732.461129127362
3147.5,731.582700875402
3147.75,731.746332756906
3148,733.996025993813
3148.25,737.326553908946
3148.5,739.84789699917
3148.75,740.108906156071
3149,739.160947549621
3149.25,738.934425560607
3149.5,740.825820556636
3149.75,743.553328959133
3150,744.998604868996
3150.25,743.688635588775
3150.5,740.981096252779
3150.75,739.00924362233
3151,739.333789747772
3151.25,741.151672207445
3151.5,743.049929333613
3151.75,743.883294939399
3152,743.474984727824
3152.25,741.867207245356
3152.5,739.341009187325
3152.75,736.972258236205
3153,736.00150535437
3153.25,736.957525036943
3153.5,738.214143856521
3153.75,737.741554694233
3154,734.689855908559
3154.25,731.245454897595
3154.5,730.069738171434
3154.75,732.353447072634
3155,735.984850459574
3155.25,738.416805817168
3155.5,738.479300806985
3155.75,737.481687842233
3156,736.978391186663
3156.25,737.616512572651
3156.5,738.608136930647
3156.75,739.054949846732
3157,738.790810900702
3157.25,738.657948174409
3157.5,739.549464701816
3157.75,741.583644692531
3158,743.928463371309
3158.25,745.710345985888
3158.5,746.506509669438
3158.75,746.386887881087
3159,745.445852351767
3159.25,743.763659180458
3159.5,741.405922531128
3159.75,738.457302646393
3160,735.451882970772
3160.25,733.370815130314
3160.5,733.154045232715
3160.75,734.591387491104
3161,736.4420981739
3161.25,737.471880455082
3161.5,737.063371156077
3161.75,735.061652534726
3162,731.385005889705
3162.25,726.684429189885
3162.5,722.089375039107
3162.75,718.655910763503
3163,716.670330325281
3163.25,715.995920644515
3163.5,716.428263524604
3163.75,717.353522216473
3164,717.995026416125
3164.25,717.729368630919
3164.5,716.589251944618
3164.75,714.782491343881
3165,712.57094534443
3165.25,710.374108153781
3165.5,708.637774461489
3165.75,707.520915476761
3166,706.619864674247
3166.25,705.475369683566
3166.5,703.988320242075
3166.75,702.51480800007
3167,701.418063713632
3167.25,700.713108930478
3167.5,700.137200382499
3167.75,699.475091140862
3168,698.949086611442
3168.25,698.989730052268
3168.5,699.862487605505
3168.75,701.123177984313
3169,702.139247375065
3169.25,702.499800317562
3169.5,702.313329583654
3169.75,701.762552204822
3170,701.027013297002
3170.25,700.28185240841
3170.5,699.71105525299
3170.75,699.65572602443
3171,700.588974892877
3171.25,702.857222672742
3171.5,705.729860177413
3171.75,707.946686395614
3172,708.586420825559
3172.25,708.260325960244
3172.5,708.007340359301
3172.75,708.433715802841
3173,708.97013972913
3173.25,708.85729791443
3173.5,707.939898217993
3173.75,707.089700946857
3174,707.249917896355
3174.25,708.579919385659
3174.5,710.37552291403
3174.75,711.915899154253
3175,712.843376644665
3175.25,713.055214840789
3175.5,712.534298429818
3175.75,711.8748234083
3176,711.951982606529
3176.25,713.372887406008
3176.5,715.449433564321
3176.75,717.105255658069
3177,717.7306134771
3177.25,718.139308386214
3177.5,719.411324661278
3177.75,721.939680145454
3178,724.680365124155
3178.25,726.423005505444
3178.5,726.722642087159
3178.75,726.277795748768
3179,725.872964957301
3179.25,726.062572112328
3179.5,727.134178063054
3179.75,729.323234841037
3180,732.149480890175
3180.25,734.486612062344
3180.5,735.260962749005
3180.75,734.419296342236
3181,732.639349878549
3181.25,730.605063766883
3181.5,728.895654328347
3181.75,728.026412562648
3182,728.412965040459
3182.25,729.637804465238
3182.5,730.865373730352
3182.75,731.360204088744
3183,731.043470041393
3183.25,730.09366542798
3183.5,728.745465613055
3183.75,727.513458662952
3184,727.00015649579
3184.25,727.554547536569
3184.5,728.522025295414
3184.75,728.99999849626
3185,728.514723561216
3185.25,727.883417764165
3185.5,728.162862143939
3185.75,729.747233805671
3186,731.464951604976
3186.25,731.927195913854
3186.5,730.651261310009
3186.75,728.831274019293
3187,727.829023885565
3187.25,728.209404234685
3187.5,729.322894589828
3187.75,730.433085798032
3188,731.307583126639
3188.25,732.322741977744
3188.5,733.873017703408
3188.75,735.947671173849
3189,738.138908949637
3189.25,740.023969573078
3189.5,741.207659567864
3189.75,741.3173984437
3190,740.053796192208
3190.25,738.121602942933
3190.5,736.959113460959
3190.75,737.881426051246
3191,740.51190844457
3191.25,743.350739127401
3191.5,745.00624671224
3191.75,745.375552413537
3192,745.099920130486
3192.25,744.791042472977
3192.5,744.703872782951
3192.75,744.900408512679
3193,745.389552703829
3193.25,745.737605819829
3193.5,745.284256224152
3193.75,743.5645401307
3194,741.708812378519
3194.25,741.62027283268
3194.5,744.829082907805
3194.75,749.99935042274
3195,754.482052187351
3195.25,756.020564134693
3195.5,755.08999309359
3195.75,753.309139105892
3196,752.131855771818
3196.25,751.781128631559
3196.5,751.934781479759
3196.75,752.304341864708
3197,752.875144643124
3197.25,753.757925713485
3197.5,755.027628736163
3197.75,756.475878443552
3198,757.761631299556
3198.25,758.564977614578
3198.5,758.745300102553
3198.75,758.249738950707
3199,757.095102670437
3199.25,755.927382611708
3199.5,755.728810496997
3199.75,757.313541646253
3200,759.755226063476
3200.25,761.11301841373
3200.5,759.655807539015
3200.75,756.111903102458
3201,752.73861467678
3201.25,751.657899935114
3201.5,752.934059590371
3201.75,755.193168032673
3202,757.082444579095
3202.25,757.926915610872
3202.5,757.535454694069
3202.75,755.780209299303
3203,753.309501290708
3203.25,751.361879829234
3203.5,751.106765796496
3203.75,752.334643289176
3204,753.707497876725
3204.25,753.946509989198
3204.5,753.316007842403
3204.75,753.356362720092
3205,755.55299982029
3205.25,759.725324543708
3205.5,764.256331831806
3205.75,767.533290801546
3206,768.925073202507
3206.25,768.682911914663
3206.5,767.101904899569
3206.75,764.797323582087
3207,762.724516433466
3207.25,761.839814227159
3207.5,762.515703887083
3207.75,764.376013659978
3208,766.989897683132
3208.25,769.64073903244
3208.5,771.196003410936
3208.75,770.503472397465
3209,767.485019836288
3209.25,763.917801044357
3209.5,761.758076507255
3209.75,762.009628947965
3210,763.604405847572
3210.25,765.203193404212
3210.5,765.87315766831
3210.75,765.693494245884
3211,764.898296670363
3211.25,763.712049072948
3211.5,762.330779889906
3211.75,760.945278544087
3212,759.799492572604
3212.25,759.325315098961
3212.5,759.996155885562
3212.75,762.039223810847
3213,764.688798112536
3213.25,766.928877356952
3213.5,767.91927138123
3213.75,767.619235439453
3214,766.21513774895
3214.25,764.026105016134
3214.5,762.112994802021
3214.75,761.794173302872
3215,764.085763485587
3215.25,767.941960614724
3215.5,771.456654501945
3215.75,772.935599885179
3216,772.391689529592
3216.25,770.652647944607
3216.5,768.517598993888
3216.75,766.425335327007
3217,764.595973438997
3217.25,763.236045125064
3217.5,762.40057712189
3217.75,762.030861779613
3218,762.074342393787
3218.25,762.63983257973
3218.5,763.976446371871
3218.75,766.311930946257
3219,769.290646567021
