2245,859.940134510923
2245.25,858.098368613542
2245.5,856.832233780005
2245.75,856.646905657977
2246,858.001085100073
2246.25,860.631276882741
2246.5,863.70400651075
2246.75,866.371064532613
2247,868.059611609249
2247.25,868.879827332116
2247.5,869.045975706681
2247.75,868.76830284145
2248,868.215363106751
2248.25,867.531017940222
2248.5,866.857883596702
2248.75,866.189380773824
2249,865.206352383612
2249.25,863.550324357632
2249.5,860.939371494178
2249.75,857.74778621242
2250,854.68353373301
2250.25,852.452596915057
2250.5,851.411072338871
2250.75,851.326072593333
2251,851.908169560698
2251.25,852.84961523192
2251.5,853.740678826819
2251.75,854.136350264121
2252,853.615986581841
2252.25,852.368855864187
2252.5,851.222477502439
2252.75,851.034343439049
2253,852.250530487713
2253.25,853.96829220028
2253.5,855.008888252919
2253.75,854.34886528863
2254,852.796810900399
2254.25,852.356140491145
2254.5,855.038417490931
2254.75,861.245168006494
2255,868.18687690136
2255.25,872.698290172242
2255.5,872.153423825775
2255.75,867.587880520007
2256,861.559683121174
2256.25,856.610522029258
2256.5,854.015605781852
2256.75,853.093942038249
2257,852.997060718925
2257.25,852.953253241882
2257.5,852.602652201566
2257.75,851.722921597653
2258,850.106850236487
2258.25,847.908524877173
2258.5,845.652240002805
2258.75,843.879013162842
2259,842.957289345613
2259.25,842.722286826668
2259.5,842.906554841907
2259.75,843.262750556501
2260,843.74354559368
2260.25,844.416251564453
2260.5,845.349035233666
2260.75,846.581102329601
2261,848.107406395499
2261.25,849.919167872438
2261.5,852.047654334914
2261.75,854.70547245963
2262,858.156531368894
2262.25,862.622043571785
2262.5,867.566849407809
2262.75,871.806927190928
2263,874.137963046702
2263.25,873.977709249401
2263.5,872.494116807025
2263.75,871.160692379179
2264,871.345639174931
2264.25,872.975089597292
2264.5,874.92965084596
2264.75,876.067330279048
2265,875.693390657868
2265.25,874.300674265359
2265.5,872.5769321835
2265.75,871.177451689855
2266,870.332823924922
2266.25,869.975367887791
2266.5,870.031273454596
2266.75,870.453206352948
2267,871.262530447137
2267.25,872.491607112941
2267.5,874.154371528447
2267.75,876.050637271186
2268,877.842114327136
2268.25,879.188942680206
2268.5,879.96999241739
2268.75,880.588097357057
2269,881.522915373056
2269.25,883.195743557576
2269.5,885.329679273159
2269.75,887.187806716484
2270,888.02565191339
2270.25,887.45187695887
2270.5,886.034528115532
2270.75,884.503023950247
2271,883.549371649484
2271.25,883.25598554761
2271.5,883.209159705149
2271.75,882.980779576571
2272,882.229519606608
2272.25,880.919433383992
2272.5,879.081705570893
2272.75,876.765758583062
2273,874.419886790374
2273.25,872.880138923059
2273.5,872.998577389152
2273.75,875.237163443556
2274,878.492043278162
2274.25,881.266552019836
2274.5,882.128524738278
2274.75,881.082602407714
2275,879.54476046908
2275.25,878.990379508254
2275.5,880.446609763176
2275.75,883.030298280083
2276,885.349474797243
2276.25,886.059361431693
2276.5,885.11623189416
2276.75,883.909765509661
2277,883.90338720478
2277.25,886.125626316695
2277.5,889.3841284213
2277.75,891.779447596555
2278,891.447751038527
2278.25,888.073412051757
2278.5,883.444692396224
2278.75,879.500189798355
2279,877.905799767111
2279.25,878.405733287037
2279.5,879.918262610506
2279.75,881.364179384782
2280,882.110318735979
2280.25,882.281798828081
2280.5,882.077467195662
2280.75,881.64996832562
2281,880.781587186335
2281.25,879.076592835125
2281.5,876.143302191254
2281.75,872.236241173124
2282,868.875568186753
2282.25,867.728344883456
2282.5,870.199943078014
2282.75,875.332114775323
2283,880.912179850175
2283.25,884.727325925361
2283.5,885.738254374159
2283.75,885.081399265904
2284,884.129320994231
2284.25,884.112463124227
2284.5,884.94255168234
2284.75,885.816018053025
2285,885.924179641412
2285.25,884.904206275172
2285.5,883.402132197691
2285.75,882.202711334687
2286,882.021915578296
2286.25,882.728870198931
2286.5,883.623038392864
2286.75,883.993594045331
2287,883.363968228436
2287.25,881.908545331808
2287.5,879.913868969303
2287.75,877.664906286162
2288,875.421778443056
2288.25,873.424815932934
2288.5,871.913777604625
2288.75,871.050775594491
2289,870.746668377249
2289.25,870.86158638632
2289.5,871.252447529813
2289.75,871.724716045402
2290,872.042441221314
2290.25,871.968620042403
2290.5,871.433524173617
2290.75,870.865852472913
2291,870.786724598633
2291.25,871.675625958717
2291.5,873.415547837646
2291.75,875.443475186795
2292,877.185782523033
2292.25,878.15661121313
2292.5,878.111136397624
2292.75,876.845546791286
2293,874.208103975938
2293.25,870.770278461965
2293.5,867.632969825005
2293.75,865.908663080253
2294,866.215626284439
2294.25,867.76685996056
2294.5,869.527272857621
2294.75,870.523278010107
2295,870.538241937554
2295.25,869.864583434591
2295.5,868.804025144255
2295.75,867.607458540504
2296,866.402732996787
2296.25,865.299446661593
2296.5,864.399538036778
2296.75,863.724504326638
2297,863.24775770468
2297.25,862.942127976304
2297.5,862.789458143238
2297.75,862.789828253032
2298,862.945519594095
2298.25,863.260168789902
2298.5,863.747989958825
2298.75,864.428166744678
2299,865.318431077784
2299.25,866.3462702993
2299.5,867.298472912383
2299.75,867.949627977714
2300,868.100945635652
2300.25,867.710947222025
2300.5,866.795730857605
2300.75,865.374532143946
2301,863.585794215844
2301.25,861.72315489676
2301.5,860.090658192787
2301.75,858.960400940541
2302,858.449186178565
2302.25,858.62669849521
2302.5,859.546524361422
2302.75,860.883740174657
2303,861.930130022275
2303.25,861.96048554036
2303.5,860.544517839987
2303.75,858.240298134144
2304,855.81270775611
2304.25,854.009506391769
2304.5,853.333298526194
2304.75,854.103457119333
2305,856.633271253779
2305.25,860.837306704179
2305.5,865.718309153705
2305.75,870.152130918
2306,873.14347412442
2306.25,874.756307740133
2306.5,875.574721806891
2306.75,876.183920897256
2307,876.948057180562
2307.25,877.839200379401
2307.5,878.789167781307
2307.75,879.700321703145
2308,880.242221156609
2308.25,879.973860328423
2308.5,878.457131474948
2308.75,875.633857563838
2309,872.157422472721
2309.25,868.759406415193
2309.5,866.120775582264
2309.75,864.477930087128
2310,863.836643407775
2310.25,864.198665520744
2310.5,865.368647073355
2310.75,866.794000313532
2311,867.88444849933
2311.25,868.121053530465
2311.5,867.480643271123
2311.75,866.15050553753
2312,864.324299339792
2312.25,862.500530995614
2312.5,861.632950185113
2312.75,862.71251615503
2313,866.384461497261
2313.25,871.350050768353
2313.5,875.631624972103
2313.75,877.303107055314
2314,876.103562409898
2314.25,873.743654287995
2314.5,872.048176022709
2314.75,872.430955726058
2315,874.260161556251
2315.25,876.268691340069
2315.5,877.218994456925
2315.75,876.800598938017
2316,875.789240489645
2316.25,875.022480503073
2316.5,875.131481743446
2316.75,875.732440929522
2317,876.130088845598
2317.25,875.643793132994
2317.5,874.071838832025
2317.75,871.785478167436
2318,869.189682599512
2318.25,866.66044742794
2318.5,864.429551477726
2318.75,862.683993280174
2319,861.607873305463
2319.25,861.300948402551
2319.5,861.767218309931
2319.75,863.005504391153
2320,864.961057151664
2320.25,867.367013342547
2320.5,869.90401821485
2320.75,872.252610561917
2321,874.09138393824
2321.25,875.097230944932
2321.5,874.947056996336
2321.75,873.595921005923
2322,871.908616985798
2322.25,870.935631049587
2322.5,871.649907197773
2322.75,873.700094289864
2323,875.624393704566
2323.25,875.926971028375
2323.5,873.812514087065
2323.75,870.670964047154
2324,868.317176349938
2324.25,868.437711304759
2324.5,870.634012825901
2324.75,872.813338516151
2325,872.834816738481
2325.25,869.563043849799
2325.5,864.785854642305
2325.75,860.819374242956
2326,859.810118431132
2326.25,861.515902990564
2326.5,863.929138274908
2326.75,865.004169923742
2327,863.674735204379
2327.25,861.216097117164
2327.5,859.246086635884
2327.75,859.235384381872
2328,861.21502561486
2328.25,864.401570015125
2328.5,868.004368718747
2328.75,871.420726916681
2329,874.384730606191
2329.25,876.665487933957
2329.5,878.052410426389
2329.75,878.479542542219
2330,877.943691264102
2330.25,876.44574704452
2330.5,874.274599573418
2330.75,872.202711659281
2331,871.048814065387
2331.25,871.498853498538
2331.5,873.24319752999
2331.75,875.520365715357
2332,877.56964432461
2332.25,878.843674997273
2332.5,879.145689124422
2332.75,878.311526998507
2333,876.242048693849
2333.25,873.313216627946
2333.5,870.111827399823
2333.75,867.223325106653
2334,865.042194310485
2334.25,863.631761473364
2334.5,863.022318092012
2334.75,863.230423100365
2335,864.17728529502
2335.25,865.743667675993
2335.5,867.808869531591
2335.75,870.189623933001
2336,872.614126901124
2336.25,874.803866038131
2336.5,876.455916866025
2336.75,877.135149012995
2337,876.361885029154
2337.25,873.67903102153
2337.5,869.510841598852
2337.75,865.427686510405
2338,863.076654374254
2338.25,863.726428630169
2338.5,866.596533482437
2338.75,870.216065996552
2339,873.138316341106
2339.25,874.653820110715
2339.5,874.898400486539
2339.75,874.054334835446
2340,872.365214396932
2340.25,870.351495101422
2340.5,868.611743986833
2340.75,867.724479262362
2341,867.717547998054
2341.25,868.013312804551
2341.5,868.003089281122
2341.75,867.289920945096
2342,866.345249023357
2342.25,865.863121254566
2342.5,866.517728378856
2342.75,868.566098807881
2343,871.868955937304
2343.25,876.271321985621
2343.5,881.489037207837
2343.75,886.8004546046
2344,891.391405316377
2344.25,894.480547153826
2344.5,895.885649399925
2344.75,895.94797569331
2345,895.02640656533
2345.25,893.498090742372
2345.5,891.817841493638
2345.75,890.461107391397
2346,889.889510583458
2346.25,890.026214306651
2346.5,890.094354347498
2346.75,889.270227085382
2347,886.945633847597
2347.25,883.916648796898
2347.5,881.541895053257
2347.75,881.170444642229
2348,883.17205168213
2348.25,886.181726121351
2348.5,888.656679895639
2348.75,889.229202903801
2349,888.006924466502
2349.25,885.837042799307
2349.5,883.571666221513
2349.75,881.935971870663
2350,881.374890314547
2350.25,882.29588650337
2350.5,885.030271348469
2350.75,889.027547652561
2351,893.169959077023
2351.25,896.331021161389
2351.5,897.763590440147
2351.75,897.736453776331
2352,896.686680961072
2352.25,895.065957058768
2352.5,893.592599255219
2352.75,893.217846227905
2353,894.900771163185
2353.25,899.16451532987
2353.5,904.611446242896
2353.75,909.31507290199
2354,911.378921437265
2354.25,910.162863938365
2354.5,906.712128663798
2354.75,902.190107064913
2355,897.698628831635
2355.25,893.792491426649
2355.5,890.740002464806
2355.75,888.80657304075
2356,888.052744975106
2356.25,887.996758915513
2356.5,888.068147628297
2356.75,887.725661895227
2357,886.894518959629
2357.25,885.87461226244
2357.5,884.97641677478
2357.75,884.453563989203
2358,884.353001436493
2358.25,884.674715232942
2358.5,885.420591807402
2358.75,886.637944332727
2359,888.420489081844
2359.25,890.864037939144
2359.5,893.879812114861
2359.75,896.52578326659
2360,897.613555860289
2360.25,895.984595171725
2360.5,891.729936309287
2360.75,886.616554347469
2361,882.528893620038
2361.25,881.024589538143
2361.5,881.245024742286
2361.75,881.248245984514
2362,879.102557506982
2362.25,874.388719522685
2362.5,869.454195284235
2362.75,866.941728059258
2363,869.086875391271
2363.25,874.60355628854
2363.5,880.401865732367
2363.75,883.397475766032
2364,882.293850523835
2364.25,878.959690720597
2364.5,875.587898771623
2364.75,874.153216889339
2365,874.743708912746
2365.25,876.481115061725
2365.5,878.481918744107
2365.75,880.16864025121
2366,881.555024975397
2366.25,882.722309554918
2366.5,883.755564409583
2366.75,884.774371764823
2367,885.916580494009
2367.25,887.319061507478
2367.5,888.89896118213
2367.75,890.09398135812
2368,890.278591844209
2368.25,888.88721969711
2368.5,886.068528109774
2368.75,882.440294968405
2369,878.628458891679
2369.25,875.205634880773
2369.5,872.585981826191
2369.75,871.154360163985
2370,871.25251592027
2370.25,872.534309070666
2370.5,874.101301116602
2370.75,875.039671785408
2371,874.707367910548
2371.25,873.269868830423
2371.5,871.041956817857
2371.75,868.360167988162
2372,865.88653444887
2372.25,864.53365272521
2372.5,865.219806885733
2372.75,868.250504221297
2373,872.213649311153
2373.25,875.398471283187
2373.5,876.252136907132
2373.75,875.102806461279
2374,873.513884164194
2374.25,873.068461804488
2374.5,874.585734421659
2374.75,876.95471216959
2375,878.764221796927
2375.25,878.725813070673
2375.5,876.991346146165
2375.75,874.648439119858
2376,872.799649599608
2376.25,872.10735998299
2376.5,872.096037622009
2376.75,872.108719010777
2377,871.544629983982
2377.25,870.481979491446
2377.5,869.44959155725
2377.75,868.9835652714
2378,869.347958888179
2378.25,870.142637831274
2378.5,870.868001130759
2378.75,871.077550849125
2379,870.888454814471
2379.25,870.757579637825
2379.5,871.14503102499
2379.75,872.235417932208
2380,873.61245126034
2380.25,874.780628862516
2380.5,875.31788958794
2380.75,875.499747711463
2381,875.987233605499
2381.25,877.442753423356
2381.5,880.101740187618
2381.75,883.308964764123
2382,886.297739778066
2382.25,888.367732013735
2382.5,889.466347549636
2382.75,889.906810183164
2383,890.006154869799
2383.25,889.974788896303
2383.5,889.762831955702
2383.75,889.281431901079
2384,888.456598208819
2384.25,887.42969263657
2384.5,886.504336175797
2384.75,885.98811003809
2385,886.062783893747
2385.25,886.479583377834
2385.5,886.897711928709
2385.75,886.980440172209
2386,886.481090646998
2386.25,885.241138750087
2386.5,883.105747200979
2386.75,880.084433891845
2387,876.927636098193
2387.25,874.594480587159
2387.5,874.020974638066
2387.75,875.377339910259
2388,877.909986023637
2388.25,880.81023698791
2388.5,883.402160454745
2388.75,885.660915267888
2389,887.760960391726
2389.25,889.869854654293
2389.5,891.897592397576
2389.75,893.426729701783
2390,894.01864380852
2390.25,893.334608877915
2390.5,891.661898890212
2390.75,889.529747582947
2391,887.466154938404
2391.25,885.833099898189
2391.5,884.692431257648
2391.75,884.07443672131
2392,883.983195909572
2392.25,884.173967744885
2392.5,884.264550807159
2392.75,883.872193907015
2393,882.836099028052
2393.25,881.507295117213
2393.5,880.308715934931
2393.75,879.627117418834
2394,879.405922250323
2394.25,879.291336664156
2394.5,878.924669478472
2394.75,878.311406881667
2395,878.442223516549
2395.25,880.47275567203
2395.5,885.422489573819
2395.75,892.399520166281
2396,899.102355374507
2396.25,903.197128941253
2396.5,903.262222711333
2396.75,900.681319394426
2397,897.37558338331
2397.25,895.211667214787
2397.5,894.651109106919
2397.75,894.660727297247
2398,894.134885561979
2398.25,892.22417369002
2398.5,889.497976041163
2398.75,887.014007732856
2399,885.818016192958
2399.25,886.110605322759
2399.5,886.721380612377
2399.75,886.354579531196
2400,883.944811322446
2400.25,880.289055624514
2400.5,877.085909088213
2400.75,876.033030194386
2401,877.790953345979
2401.25,880.882007453486
2401.5,883.564623124376
2401.75,884.285441448242
2402,883.277279796559
2402.25,881.75941494224
2402.5,880.959307498671
2402.75,881.564018768553
2403,883.014846228636
2403.25,884.578138461322
2403.5,885.578921479662
2403.75,886.030039844468
2404,886.390810518911
2404.25,887.127774544895
2404.5,888.457553027647
2404.75,889.905077009457
2405,890.876607482013
2405.25,890.811260917313
2405.5,889.68883327699
2405.75,887.931950494131
2406,885.976279206608
2406.25,884.236343287363
2406.5,883.045185870617
2406.75,882.71622445578
2407,883.542425971368
2407.25,885.268549312838
2407.5,887.044057874332
2407.75,887.9885269347
2408,887.428255760253
2408.25,885.690617917475
2408.5,883.405600062371
2408.75,881.200854904817
2409,879.601610607506
2409.25,878.99447454625
2409.5,879.756207778925
2409.75,882.172588652504
2410,885.966708865908
2410.25,890.646797096393
2410.5,895.720688242533
2410.75,900.698247604427
2411,905.092461418181
2411.25,908.416581350079
2411.5,910.255377539665
2411.75,910.794813452568
2412,910.521608017571
2412.25,909.924459222722
2412.5,909.304631398852
2412.75,908.444780705897
2413,907.038613996434
2413.25,904.794799919806
2413.5,901.792539927922
2413.75,898.4968638345
2414,895.390823931083
2414.25,892.866018351042
2414.5,890.755514472337
2414.75,888.681575131381
2415,886.269353608524
2415.25,883.442886874062
2415.5,880.660275458069
2415.75,878.434963512554
2416,877.226024069881
2416.25,876.990668916554
2416.5,877.415044562283
2416.75,878.182355789885
2417,878.927010548518
2417.25,879.180609777376
2417.5,878.461737868607
2417.75,876.38475483894
2418,873.523773701794
2418.25,871.006184846212
2418.5,869.963163994893
2418.75,870.887591543033
2419,872.834408215112
2419.25,874.661832286824
2419.5,875.317523346816
2419.75,874.620933249189
2420,872.883280744166
2420.25,870.42151053868
2420.5,867.585662475881
2420.75,864.796274444322
2421,862.482925897948
2421.25,861.015470551072
2421.5,860.212591953407
2421.75,859.595325997606
2422,858.684387881319
2422.25,857.227795027753
2422.5,855.375247126566
2422.75,853.317489162891
2423,851.242305235739
2423.25,849.318715059476
2423.5,847.708410099952
2423.75,846.569752534003
2424,845.956357810412
2424.25,845.798237926489
2424.5,846.018278261185
2424.75,846.435407912897
2425,846.50904465278
2425.25,845.620944387984
2425.5,843.262507772587
2425.75,840.209180180434
2426,838.069320138735
2426.25,838.450922892928
2426.5,841.691617756466
2426.75,845.8843836738
2427,848.892873021124
2427.25,849.055319561485
2427.5,847.034501881608
2427.75,844.203782089925
2428,841.906019863009
2428.25,840.886534730027
2428.5,841.347637152403
2428.75,843.471120083781
2429,847.168075787496
2429.25,851.682256692069
2429.5,856.156404024634
2429.75,859.924709399929
2430,863.769996585738
2430.25,869.137793621242
2430.5,877.440906993091
2430.75,888.342774178745
2431,899.012365429951
2431.25,906.427578916804
2431.5,908.180116112508
2431.75,905.516321567425
2432,901.02965406418
2432.25,897.307185633778
2432.5,895.805372197319
2432.75,895.728056693279
2433,896.012165502304
2433.25,895.682300784261
2433.5,894.851609068033
2433.75,894.369901906467
2434,895.100821716872
2434.25,897.516465907958
2434.5,900.798158564846
2434.75,903.861619247942
2435,905.647375989051
2435.25,905.709581285176
2435.5,904.240914419915
2435.75,901.463846083391
2436,897.680174802148
2436.25,893.669824470713
2436.5,890.39097673545
2436.75,888.794426851361
2437,888.992694422563
2437.25,889.517612418631
2437.5,888.72584389406
2437.75,885.204204167488
2438,879.876183315257
2438.25,875.026093759914
2438.5,872.952411273209
2438.75,874.782910278467
2439,878.659736358827
2439.25,882.255982483558
2439.5,883.437307359635
2439.75,882.35624896497
2440,880.664015844523
2440.25,880.036866129816
2440.5,881.485748055508
2440.75,884.203701142412
2441,887.076101122646
2441.25,889.031693839662
2441.5,889.626019544115
2441.75,888.886042144067
2442,886.850257129309
2442.25,883.738454222825
2442.5,880.382269529244
2442.75,877.742280967091
2443,876.734674477126
2443.25,877.295813807319
2443.5,878.40459356846
2443.75,878.999987751296
2444,878.354509151119
2444.25,877.071401748632
2444.5,876.085738508448
2444.75,876.292723483636
2445,877.601973758929
2445.25,878.897830058252
2445.5,879.016822436708
2445.75,877.147303324372
2446,873.968027015098
2446.25,870.552338952545
2446.5,867.951841570076
2446.75,866.624756908741
2447,866.37898631146
2447.25,866.989267461104
2447.5,868.193775321945
2447.75,869.57948054096
2448,870.694272669152
2448.25,871.117425650114
2448.5,871.083835463218
2448.75,871.449213927709
2449,873.093671922641
2449.25,876.506303783653
2449.5,880.77588374658
2449.75,884.677836639113
2450,887.030738664762
2450.25,887.463893958383
2450.5,886.327620759658
2450.75,883.997368526315
2451,880.945174681935
2451.25,878.028341416437
2451.5,876.200216101324
2451.75,876.373435684056
2452,878.350105059425
2452.25,880.715428331427
2452.5,881.992569622165
2452.75,881.141966242301
2453,879.090683838585
2453.25,877.318427026952
2453.5,877.267389303107
2453.75,879.168994245744
2454,881.81221556334
2454.25,883.90170480143
2454.5,884.398678235676
2454.75,883.55057335983
2455,882.007041243399
2455.25,880.413365524451
2455.5,879.227774868371
2455.75,878.658358255151
2456,878.895748429657
2456.25,880.076059544979
2456.5,882.007053945374
2456.75,884.374160146064
2457,886.859759621568
2457.25,888.993604399089
2457.5,890.078553418958
2457.75,889.399037323304
2458,886.437821713064
2458.25,882.120081609897
2458.5,878.008436130666
2458.75,875.660673108556
2459,875.700087978183
2459.25,876.930225331065
2459.5,877.944876672756
2459.75,877.504320496877
2460,875.842101980331
2460.25,873.960729349177
2460.5,872.865496499247
2460.75,873.001693437057
2461,873.675005975425
2461.25,874.052626098437
2461.5,873.401099910196
2461.75,871.877993315844
2462,870.111031835097
2462.25,868.729914785429
2462.5,868.076456459235
2462.75,867.92573301326
2463,867.986629416077
2463.25,868.019808409777
2463.5,868.209004891509
2463.75,868.944626281376
2464,870.61244711954
2464.25,873.120199191997
2464.5,875.558919455234
2464.75,876.939728717582
2465,876.455232128017
2465.25,874.568028537934
2465.5,872.283185664138
2465.75,870.598837775777
2466,869.867755013949
2466.25,869.375307011787
2466.5,868.306729314752
2466.75,866.028010205177
2467,863.138280138863
2467.25,860.751580295581
2467.5,859.9655435405
2467.75,860.930384187595
2468,862.40327729252
2468.25,863.029971807919
2468.5,861.764017084162
2468.75,859.158453733306
2469,856.284256238959
2469.25,854.190219945989
2469.5,853.301002442542
2469.75,853.350533007237
2470,854.036941030628
2470.25,855.141514472904
2470.5,856.73959815373
2470.75,858.971502517868
2471,861.936694714714
2471.25,865.180527436811
2471.5,867.849198523285
2471.75,869.081881924303
2472,868.476812709251
2472.25,866.700020855053
2472.5,864.569018898365
2472.75,862.846353172851
2473,861.745000586667
2473.25,861.161679115709
2473.5,860.989735086753
2473.75,861.171513533082
2474,861.743688235452
2474.25,862.753655246524
2474.5,864.198716034672
2474.75,865.716705803177
2475,866.788463582897
2475.25,866.901402673971
2475.5,865.910570587601
2475.75,864.2057247093
2476,862.21874546635
2476.25,860.341196931948
2476.5,858.739285816596
2476.75,857.500954287938
2477,856.709969392799
2477.25,856.32371068458
2477.5,856.152213479517
2477.75,855.997193707881
2478,855.714727285639
2478.25,855.369853080352
2478.5,855.077813445246
2478.75,854.951188990566
2479,855.060989474086
2479.25,855.445307613292
2479.5,856.141091146162
2479.75,857.105974937529
2480,858.104610013509
2480.25,858.872856176588
2480.5,859.173342070041
2480.75,859.005383195031
2481,858.491749441125
2481.25,857.755991709549
2481.5,856.900998460962
2481.75,855.995500317924
2482,855.105025587176
2482.25,854.294335673488
2482.5,853.623745269394
2482.75,853.151970280369
2483,852.936819606387
2483.25,853.010439081067
2483.5,853.37628725517
2483.75,854.036307177884
2484,854.950802052217
2484.25,855.934649135064
2484.5,856.770996890596
2484.75,857.269084905654
2485,857.586553807962
2485.25,858.129265944153
2485.5,859.307328510419
2485.75,861.304590763094
2486,863.801995434478
2486.25,866.412732945229
2486.5,868.753598367552
2486.75,870.471203234595
2487,871.226875370304
2487.25,870.686793237542
2487.5,868.892333648965
2487.75,866.52539241543
2488,864.330482151429
2488.25,862.978712382399
2488.5,862.621411598275
2488.75,863.185541188564
2489,864.591032690404
2489.25,866.445811138765
2489.5,867.904195606701
2489.75,868.084792952659
2490,866.352100436295
2490.25,863.394913070785
2490.5,860.345889770381
2490.75,858.31466567667
2491,857.64314894403
2491.25,857.750047572367
2491.5,857.999297466187
2491.75,857.99388860563
2492,858.312089685576
2492.25,859.78084930242
2492.5,863.176177305068
2492.75,868.382045358948
2493,874.522605817004
2493.25,880.697810240935
2493.5,886.076820387826
2493.75,890.024248678681
2494,891.938964548726
2494.25,891.287082099488
2494.5,888.55112230948
2494.75,885.00130219335
2495,881.92839722867
2495.25,880.18724440907
2495.5,879.036294766864
2495.75,877.368679330942
2496,874.132197574422
2496.25,869.523374158963
2496.5,864.982672735661
2496.75,862.0042681556
2497,861.584384118117
2497.25,862.712339197605
2497.5,863.871921981356
2497.75,863.618884451137
2498,861.834720378549
2498.25,859.565980130597
2498.5,857.898635803475
2498.75,857.541532969748
2499,858.06139801898
2499.25,858.809572974018
2499.5,859.184208521385
2499.75,859.13791063398
2500,858.98595296554
2500.25,859.048893690945
2500.5,859.492936167104
2500.75,860.163553700853
2501,860.866267099537
2501.25,861.459732764336
2501.5,862.208783929043
2501.75,863.565711908702
2502,865.969605543647
2502.25,869.07741498981
2502.5,871.372611365655
2502.75,871.242127792046
2503,867.552435863092
2503.25,861.880942326117
2503.5,856.756690162086
2503.75,854.661417543778
2504,856.214896826617
2504.25,859.628072328914
2504.5,862.951897478215
2504.75,864.645996296235
2505,864.897600208423
2505.25,864.350379290849
2505.5,863.623632714713
2505.75,862.846887947616
2506,861.69628651579
2506.25,859.830977019347
2506.5,857.188940882006
2506.75,854.603588816683
2507,853.087716761086
2507.25,853.560467113234
2507.5,855.710466665939
2507.75,858.359494820868
2508,860.315035522195
2508.25,861.008247426526
2508.5,861.18034265268
2508.75,861.737819571218
2509,863.427291720313
2509.25,865.741430533537
2509.5,867.581296827318
2509.75,867.857623708964
2510,866.268975649855
2510.25,863.734072419618
2510.5,861.27647854042
2510.75,859.767229957886
2511,859.149122003856
2511.25,859.015754513768
2511.5,858.967038525476
2511.75,858.846623327885
2512,858.800430221344
2512.25,858.993200190613
2512.5,859.501014927726
2512.75,860.025262220917
2513,860.168361836411
2513.25,859.558083191719
2513.5,858.29694172368
2513.75,856.908840989253
2514,855.932183849555
2514.25,855.755010345332
2514.5,856.325942445979
2514.75,857.513759399195
2515,859.169820095784
2515.25,860.953631320139
2515.5,862.405804786214
2515.75,863.068410653088
2516,862.875717207954
2516.25,862.524315084512
2516.5,862.798466813456
2516.75,864.338171473847
2517,866.709377886029
2517.25,868.99355212416
2517.5,870.281055951656
2517.75,870.280616874417
2518,869.628273327093
2518.25,869.036298952056
2518.5,869.07040096126
2518.75,869.415559128116
2519,869.429316145901
2519.25,868.482079986298
2519.5,866.498678256958
2519.75,864.143861849595
2520,862.133865916398
2520.25,861.010350867085
2520.5,860.409478811512
2520.75,859.674727610963
2521,858.168002729178
2521.25,855.75581033336
2521.5,852.856409370939
2521.75,849.916087458418
2522,847.392566090816
2522.25,845.785397538045
2522.5,845.603697623512
2522.75,847.283372993483
2523,850.284416405919
2523.25,853.372346438065
2523.5,855.303961090162
2523.75,855.612222129033
2524,855.355030454682
2524.25,855.767961987703
2524.5,857.849901482747
2524.75,860.988440308601
2525,863.899657538375
2525.25,865.324469076148
2525.5,865.044470712786
2525.75,864.186688596153
2526,863.967420395696
2526.25,865.259019900756
2526.5,867.295187291984
2526.75,868.822147123175
2527,868.632678792249
2527.25,866.667030458867
2527.5,864.056106294892
2527.75,861.986087216508
2528,861.331609194506
2528.25,861.757404458434
2528.5,862.634535823909
2528.75,863.353063270322
2529,863.635126329397
2529.25,863.485406175941
2529.5,862.917748389591
2529.75,862.106132934042
2530,861.686837886403
2530.25,862.379072945625
2530.5,864.813809382323
2530.75,868.562830835964
2531,872.498364811808
2531.25,875.482198209994
2531.5,876.763856675475
2531.75,876.443815237886
2532,874.735526867988
2532.25,871.898554377605
2532.5,868.658787865017
2532.75,866.012877255503
2533,864.957539053612
2533.25,865.876735763051
2533.5,867.824673107029
2533.75,869.681285968845
2534,870.437307185517
2534.25,870.048079348558
2534.5,868.965725496117
2534.75,867.644996955258
2535,866.392390506752
2535.25,865.241751638925
2535.5,864.197632255605
2535.75,863.235551126896
2536,862.11502944748
2536.25,860.498217396658
2536.5,858.058092091741
2536.75,855.105301972647
2537,852.916422182616
2537.25,852.848547177093
2537.5,855.808756064006
2537.75,860.313930094926
2538,864.09046714101
2538.25,864.95924907413
2538.5,862.988980398108
2538.75,860.531821397409
2539,860.042011825107
2539.25,862.987599950942
2539.5,867.273723966706
2539.75,870.001178381989
2540,868.480604609564
2540.25,863.238528931557
2540.5,857.316502694473
2540.75,853.821732784876
2541,854.598955897117
2541.25,857.891841109471
2541.5,861.306193480309
2541.75,862.627662080217
2542,861.511506924495
2542.25,858.721888664586
2542.5,855.037409993986
2542.75,851.22193077951
2543,848.010679848923
2543.25,846.135596746876
2543.5,846.178900590974
2543.75,847.704299161484
2544,849.851301885928
2544.25,851.77634633952
2544.5,853.198814603646
2544.75,854.493014875678
2545,856.070103772422
2545.25,858.202171039978
2545.5,860.664959264526
2545.75,863.12352149974
2546,865.257140886491
2546.25,866.946603301573
2546.5,868.222170266957
2546.75,869.11746731664
2547,869.600412629268
2547.25,869.473860726106
2547.5,868.5151584122
2547.75,866.566642180652
2548,864.185399846373
2548.25,862.371007410672
2548.5,862.125958402482
2548.75,863.767417315617
2549,866.126054135836
2549.25,867.837842050098
2549.5,867.720065648712
2549.75,866.105949983371
2550,864.083689266802
2550.25,862.739624199044
2550.5,862.541585923995
2550.75,862.880600954074
2551,863.039739570976
2551.25,862.460503988598
2551.5,861.621923708509
2551.75,861.420545971178
2552,862.731868138253
2552.25,865.493588516151
2552.5,868.379845301251
2552.75,869.975612129827
2553,869.3316944595
2553.25,867.743082550128
2553.5,867.179720872984
2553.75,869.538220656988
2554,874.640598383261
2554.25,879.994855492255
2554.5,882.987463468589
2554.75,881.796597913437
2555,877.901476662659
2555.25,873.641544705396
2555.5,871.293273504548
2555.75,871.31797402265
2556,872.131154332236
2556.25,872.03901131727
2556.5,869.800849639516
2556.75,866.182050791979
2557,862.502989931197
2557.25,860.054150266844
2557.5,859.362141993093
2557.75,860.144986186926
2558,862.081839257924
2558.25,864.824176308083
2558.5,867.923532518425
2558.75,870.908896374787
2559,873.325368154486
2559.25,874.972797483961
2559.5,875.854375536176
2559.75,875.978985173645
2560,875.391009090187
2560.25,874.24086213979
2560.5,872.698669276006
2560.75,870.958573236615
2561,869.582427040279
2561.25,869.419471206801
2561.5,871.325985194619
2561.75,875.474642781587
2562,880.043627438862
2562.25,882.849342772126
2562.5,881.901714096325
2562.75,877.865673243102
2563,873.333494446765
2563.25,870.94013368221
2563.5,872.247355000147
2563.75,875.535765459121
2564,878.461077776202
2564.25,878.842607831465
2564.5,876.887816442501
2564.75,874.612429254862
2565,874.076425014051
2565.25,876.36644010834
2565.5,879.593412787812
2565.75,881.301597039316
2566,879.220925210116
2566.25,873.92334616001
2566.5,868.201652097346
2566.75,864.907412313789
2567,865.859637719904
2567.25,869.529059137151
2567.5,873.708927822032
2567.75,876.32175344417
2568,877.147248000125
2568.25,877.356470937994
2568.5,878.153676412965
2568.75,880.286331914744
2569,883.184958795033
2569.25,886.044164535964
2569.5,888.100096931781
2569.75,889.214575421373
2570,889.733171134524
2570.25,890.01400631093
2570.5,890.278540769234
2570.75,890.278031499669
2571,889.662687284101
2571.25,888.104882511319
2571.5,885.81063921895
2571.75,883.533216712165
2572,882.050758365591
2572.25,881.89507168903
2572.5,882.397616611763
2572.75,882.524778823204
2573,881.267581142474
2573.25,878.542863181222
2573.5,875.45011782004
2573.75,873.165894940367
2574,872.612030232101
2574.25,873.23837118246
2574.5,873.967181489131
2574.75,873.740329848567
2575,872.355336954659
2575.25,870.761784654816
2575.5,869.99046653352
2575.75,870.84075994604
2576,872.823135747481
2576.25,875.00196960566
2576.5,876.457038547088
2576.75,876.847343618457
2577,876.563980366258
2577.25,876.044977960415
2577.5,875.659327298104
2577.75,875.409858602478
2578,875.178473561026
2578.25,874.845613377756
2578.5,874.238664005342
2578.75,873.116532377922
2579,871.233593016855
2579.25,868.491976406226
2579.5,865.587032151407
2579.75,863.479153166832
2580,863.102768065802
2580.25,864.478395739022
2580.5,866.495572746741
2580.75,867.973651210051
2581,867.995403656722
2581.25,866.808849070905
2581.5,864.984100491881
2581.75,863.080686061987
2582,861.40799893294
2582.25,860.021672323994
2582.5,858.96601930689
2582.75,858.300667310772
2583,858.139830408146
2583.25,858.609879743959
2583.5,859.818136265635
2583.75,861.589682367839
2584,863.533760326291
2584.25,865.254432409002
2584.5,866.4544086113
2584.75,867.078321038757
2585,867.107209349519
2585.25,866.534278202102
2585.5,865.475494461361
2585.75,864.117982920297
2586,862.649610311348
2586.25,861.240578483005
2586.5,860.025681528844
2586.75,859.135487585781
2587,858.66784647821
2587.25,858.468073160324
2587.5,858.263957935485
2587.75,857.788338679966
2588,857.077275521073
2588.25,856.615740187852
2588.5,856.924957309654
2588.75,858.43604722028
2589,861.119544764722
2589.25,864.799203105964
2589.5,869.287905105272
2589.75,874.138605595675
2590,878.637861994124
2590.25,882.060132426088
2590.5,883.898103560109
2590.75,884.460220321664
2591,884.245502349087
2591.25,883.742840015128
2591.5,883.202131555616
2591.75,882.630890552888
2592,882.025822778126
2592.25,881.432975103809
2592.5,881.121881378413
2592.75,881.42531971644
2593,882.655798023263
2593.25,884.463493685374
2593.5,885.704639638077
2593.75,885.188600477501
2594,882.062555476108
2594.25,877.286259062743
2594.5,872.424803890456
2594.75,869.025440821335
2595,867.739402167934
2595.25,867.933269176778
2595.5,868.874454112664
2595.75,869.877004351515
2596,870.520966970555
2596.25,870.480556540814
2596.5,869.438982085443
2596.75,867.411640017817
2597,864.837958880485
2597.25,862.184964830525
2597.5,859.89922586736
2597.75,858.325271438002
2598,857.775881386011
2598.25,858.545612558894
2598.5,860.465007520364
2598.75,862.874051978068
2599,865.089220106538
2599.25,866.595802636968
2599.5,867.466290570207
2599.75,867.900765392788
2600,868.088809073014
2600.25,868.054316375274
2600.5,867.689098140875
2600.75,866.881421968101
2601,865.635767687297
2601.25,864.287416078749
2601.5,863.230116109148
2601.75,862.819254456398
2602,862.930359733737
2602.25,863.11248019378
2602.5,862.909665411138
2602.75,862.150698682942
2603,861.309106341682
2603.25,860.947138605306
2603.5,861.525971964714
2603.75,862.605433560977
2604,863.271918908359
2604.25,862.618335062395
2604.5,860.574774098546
2604.75,858.495205988148
2605,857.872128564773
2605.25,859.890910960695
2605.5,863.779260548809
2605.75,867.996284273437
2606,871.040900188859
2606.25,872.897667544529
2606.5,875.407562638255
2606.75,880.528504210024
2607,889.649974084688
2607.25,901.395002533814
2607.5,913.546252643536
2607.75,923.910023075639
2608,931.162508688188
2608.25,935.078320862674
2608.5,935.502384569157
2608.75,932.421221259421
2609,927.135991696164
2609.25,921.661266315538
2609.5,918.018692786366
2609.75,917.574097520902
2610,918.996719139751
2610.25,920.262814440069
2610.5,919.368936058595
2610.75,915.667010637514
2611,910.692978832148
2611.25,906.180723829396
2611.5,903.731831646912
2611.75,903.243558959576
2612,903.429064026415
2612.25,902.977602428513
2612.5,901.028771090187
2612.75,898.424551281387
2613,896.409120613485
2613.25,896.206091904869
2613.5,898.271082379053
2613.75,902.079884108524
2614,907.044568871904
2614.25,912.610755191074
2614.5,918.454566386541
2614.75,924.348993001621
2615,930.067429133593
2615.25,935.399732875531
2615.5,940.173448976227
2615.75,944.221372529907
2616,947.391439961304
2616.25,949.924614399913
2616.5,952.481498478098
2616.75,955.743165881762
2617,960.287615284559
2617.25,965.594156714362
2617.5,970.477847075089
2617.75,973.744513247651
2618,974.448435726164
2618.25,973.149983259458
2618.5,970.974037840861
2618.75,969.046477667328
2619,968.3197252238
2619.25,968.979951681682
2619.5,971.001807144698
2619.75,974.359796108888
2620,978.789550872374
2620.25,983.297810137388
2620.5,986.752776763913
2620.75,988.025671408293
2621,986.670653985507
2621.25,983.787376866431
2621.5,980.688022943657
2621.75,978.680230666326
2622,978.481320517282
2622.25,979.639706276658
2622.5,981.566318787205
2622.75,983.67173521349
2623,985.344306209544
2623.25,985.937340198291
2623.5,984.801061051905
2623.75,981.30379652166
2624,975.538990815004
2624.25,968.554567891494
2624.5,961.463517173965
2624.75,955.347176204684
2625,950.414861665492
2625.25,945.915449027061
2625.5,941.048426084881
2625.75,935.10901050103
2626,928.66266623834
2626.25,923.175877175339
2626.5,920.1342704997
2626.75,920.671365833716
2627,923.864592345947
2627.25,928.047194908205
2627.5,931.553699925062
2627.75,933.240322463482
2628,933.143595406541
2628.25,931.46232327015
2628.5,928.406950132828
2628.75,924.49588350001
2629,920.579670543498
2629.25,917.525341904492
2629.5,916.068337952523
2629.75,915.802771041646
2630,915.736780014868
2630.25,914.873897013202
2630.5,912.629033062337
2630.75,909.701798112061
2631,907.041891413854
2631.25,905.577958806923
2631.5,905.521613727611
2631.75,906.207780578615
2632,906.917993949537
2632.25,907.030440290459
2632.5,906.639737380379
2632.75,906.162438596174
2633,906.015907280158
2633.25,906.387444478793
2633.5,906.907438437947
2633.75,907.123664934813
2634,906.610121029034
2634.25,905.428853028267
2634.5,904.073492085659
2634.75,903.052544213086
2635,902.783211165862
2635.25,903.21674811252
2635.5,904.156158890456
2635.75,905.403620135004
2636,906.705395037787
2636.25,907.714771515754
2636.5,908.076253837382
2636.75,907.49317592118
2637,906.304358610449
2637.25,905.236740708325
2637.5,905.022770956151
2637.75,906.09143094078
2638,907.842374808185
2638.25,909.457224485663
2638.5,910.13599268729
2638.75,909.664856899507
2639,908.524338400443
2639.25,907.235179795901
2639.5,906.283436381222
2639.75,905.89478549506
2640,906.176611674223
2640.25,907.235178047792
2640.5,908.999012398283
2640.75,910.961586144842
2641,912.551033866132
2641.25,913.218295682829
2641.5,912.85360264194
2641.75,911.743770337434
2642,910.189850613665
2642.25,908.470505483482
2642.5,906.738459086136
2642.75,905.102437871841
2643,903.670551294613
2643.25,902.479868945099
2643.5,901.428428065722
2643.75,900.398142697641
2644,899.296795052737
2644.25,898.375133445404
2644.5,898.127042532624
2644.75,899.051557405571
2645,901.354852768596
2645.25,904.176319515234
2645.5,906.412517384018
2645.75,906.988285331308
2646,905.729381429264
2646.25,903.528511864765
2646.5,901.340165925907
2646.75,899.995894508018
2647,899.439517281222
2647.25,899.224988755702
2647.5,898.905487206229
2647.75,898.216746792199
2648,897.298103085238
2648.25,896.342931960991
2648.5,895.530038335897
2648.75,894.826360460201
2649,894.038834448604
2649.25,892.97045676708
2649.5,891.542440564481
2649.75,890.116982763241
2650,889.159086145687
2650.25,889.113233069439
2650.5,889.823531801123
2650.75,890.452315414278
2651,890.125033787747
2651.25,888.259185555187
2651.5,885.874715566071
2651.75,884.538320671832
2652,885.792643561318
2652.25,889.729828527459
2652.5,894.205610780819
2652.75,896.884726168942
2653,895.826878416528
2653.25,892.055048869839
2653.5,887.937870884164
2653.75,885.844473075342
2654,886.937542219391
2654.25,889.742736560323
2654.5,892.437233894892
2654.75,893.32971887103
2655,892.276213027418
2655.25,890.139908736762
2655.5,887.801077641197
2655.75,885.951494460734
2656,884.708467841735
2656.25,884.080261745883
2656.5,884.06494224115
2656.75,884.464293175917
2657,884.902981407121
2657.25,884.999321637386
2657.5,884.509558987812
2657.75,883.736097991812
2658,883.116506461238
2658.25,883.076363173142
2658.5,883.711606381545
2658.75,884.755484145844
2659,885.922626634343
2659.25,886.969090179834
2659.5,887.854615298747
2659.75,888.601438983276
2660,889.227013073564
2660.25,889.547449875289
2660.5,889.108494282931
2660.75,887.436906731895
2661,884.220081353819
2661.25,880.219755936898
2661.5,876.638329629165
2661.75,874.671268398389
2662,874.779054879463
2662.25,876.119204526139
2662.5,877.715554310919
2662.75,878.686361353362
2663,878.886041860226
2663.25,878.514582104418
2663.5,877.772918232366
2663.75,876.758843195277
2664,875.381246131437
2664.25,873.528824990079
2664.5,871.136133323076
2664.75,868.524486081377
2665,866.20922196693
2665.25,864.704669700957
2665.5,864.272523728601
2665.75,864.706738698077
2666,865.750594489802
2666.25,867.126639413543
2666.5,868.40783037183
2666.75,869.101470695448
2667,868.724184219219
2667.25,867.328693708384
2667.5,865.77646249917
2667.75,864.995990088959
2668,865.697690291178
2668.25,867.288620219632
2668.5,868.693737170698
2668.75,868.85807703045
2669,867.502578945035
2669.25,865.336392449467
2669.5,863.132764330216
2669.75,861.637448069733
2670,861.461068741446
2670.25,863.172805147835
2670.5,867.302030272267
2670.75,873.368480004234
2671,879.826873663844
2671.25,885.081052632247
2671.5,887.92603960908
2671.75,888.632520854608
2672,887.819086743582
2672.25,886.104969421664
2672.5,884.125681769424
2672.75,882.533909488768
2673,881.983158628971
2673.25,882.911847952636
2673.5,884.701383567493
2673.75,886.409006789998
2674,887.105079252904
2674.25,886.362652593757
2674.5,884.40167975933
2674.75,881.484737941024
2675,877.890909553063
2675.25,874.001629984895
2675.5,870.237515874914
2675.75,867.014778718081
2676,864.477160628528
2676.25,862.344110418268
2676.5,860.298347827499
2676.75,858.087345918675
2677,855.855146521958
2677.25,853.895855498574
2677.5,852.493344907675
2677.75,851.566353586782
2678,850.58312315953
2678.25,848.984070112637
2678.5,846.535737870011
2678.75,844.279675428661
2679,843.568973690433
2679.25,845.631452676876
2679.5,849.90423886266
2679.75,854.487585825237
2680,857.455627868939
2680.25,857.71657585738
2680.5,855.863866805525
2680.75,852.693999156065
2681,849.007637567755
2681.25,845.635491862854
2681.5,843.421451807035
2681.75,843.18505969558
2682,844.795286251796
2682.25,846.885189687095
2682.5,848.005128534373
2682.75,847.10528787853
2683,844.60784293521
2683.25,841.273634155373
2683.5,837.841382218371
2683.75,834.761450514515
2684,832.282183672416
2684.25,830.644103086489
2684.5,829.739812565626
2684.75,828.832036399939
2685,827.117140364626
2685.25,824.054106442629
2685.5,820.31639155588
2685.75,816.928280313474
2686,814.85552321634
2686.25,814.323015839419
2686.5,815.047559911107
2686.75,816.73550348139
2687,819.07019316729
2687.25,821.703455473025
2687.5,824.284917949475
2687.75,826.536540738689
2688,828.38556794978
2688.25,829.79541320349
2688.5,830.733359917274
2688.75,831.193545812523
2689,831.181494013519
2689.25,830.703180376681
2689.5,829.774058197095
2689.75,828.419064291235
2690,826.6644702596
2690.25,824.808849788751
2690.5,823.801261847515
2690.75,824.685845145188
2691,828.261353858344
2691.25,833.861268542092
2691.5,840.277503177477
2691.75,846.316515635686
2692,851.047582009239
2692.25,853.760148817814
2692.5,853.75311596436
2692.75,850.919565944932
2693,846.494021126966
2693.25,841.894974226441
2693.5,838.395462294215
2693.75,836.12096136961
2694,834.652778635747
2694.25,833.575447693617
2694.5,832.704139154612
2694.75,832.14143415577
2695,832.007901304937
2695.25,832.322090540169
2695.5,832.780904097319
2695.75,833.018012074408
2696,832.707723766309
2696.25,831.87590524202
2696.5,830.728527593146
2696.75,829.476791959273
2697,828.462582376411
2697.25,828.188921837378
2697.5,829.168644114001
2697.75,831.737568790132
2698,835.70531499678
2698.25,840.784171744823
2698.5,846.626976623104
2698.75,852.423681542081
2699,857.147204406077
2699.25,859.789634737982
2699.5,860.067147507945
2699.75,858.598103902775
2700,856.057444088701
2700.25,853.038553251247
2700.5,849.78829732341
2700.75,846.46152574274
2701,843.218395672861
2701.25,840.314225023542
2701.5,838.086570663703
2701.75,836.874587556249
2702,836.690645438294
2702.25,836.766784194261
2702.5,836.221034952113
2702.75,834.361287912627
2703,831.77935398166
2703.25,829.59893790393
2703.5,828.898155561208
2703.75,829.580621973921
2704,830.3251393302
2704.25,829.755368399387
2704.5,827.233021097102
2704.75,823.922515870217
2705,821.258358897338
2705.25,820.385158147917
2705.5,820.606486577329
2705.75,820.505544224344
2706,818.752177382386
2706.25,815.546581924851
2706.5,812.383899512362
2706.75,810.788527558144
2707,811.261622149796
2707.25,812.492965765858
2707.5,812.986869528028
2707.75,811.737900168917
2708,809.480412862402
2708.25,807.334517119932
2708.5,806.284805972437
2708.75,806.274744765214
2709,806.7652132492
2709.25,807.240104270747
2709.5,807.635275167615
2709.75,808.2730111628
2710,809.485460490014
2710.25,811.448374128805
2710.5,814.094222022452
2710.75,817.334380973581
2711,820.984859130073
2711.25,824.574957894727
2711.5,827.580321892551
2711.75,829.539154220119
2712,830.412567402464
2712.25,830.336821148605
2712.5,829.453261438424
2712.75,827.999891042058
2713,826.307410994669
2713.25,824.709630365344
2713.5,823.400798481995
2713.75,822.260308205777
2714,821.124405607229
2714.25,819.948698193621
2714.5,819.342231902492
2714.75,820.136520753413
2715,823.049609216072
2715.25,827.177547561168
2715.5,830.406805739976
2715.75,830.621256652936
2716,827.347046367663
2716.25,822.691926662033
2716.5,818.98999427814
2716.75,817.936027772044
2717,818.698622029332
2717.25,819.822504028376
2717.5,820.016867634542
2717.75,819.53204048636
2718,819.460883867455
2718.25,820.872087757997
2718.5,823.860373819385
2718.75,827.405157637769
2719,830.425939098768
2719.25,832.257512141853
2719.5,833.248533694133
2719.75,833.8994778935
2720,834.650454494178
2720.25,835.558429928677
2720.5,836.530526391519
2720.75,837.465745187244
2721,838.094065156734
2721.25,837.981705900833
2721.5,836.689269528351
2721.75,834.1667307543
2722,831.325443277471
2722.25,829.222527394023
2722.5,828.722213031937
2722.75,829.334799598359
2723,829.990695970891
2723.25,829.680488052759
2723.5,828.828503330144
2723.75,829.29222926645
2724,832.987252176414
2724.25,840.67461943906
2724.5,850.391516416277
2724.75,859.78249814338
2725,866.816015540268
2725.25,871.490497499963
2725.5,874.589100650375
2725.75,876.881690196062
2726,878.582911160397
2726.25,879.201515476515
2726.5,878.200592777953
2726.75,875.285809120855
2727,871.458191658848
2727.25,868.149391204076
2727.5,866.760930945877
2727.75,867.455581155835
2728,868.75356367954
2728.25,869.061904422849
2728.5,867.176200910451
2728.75,863.844571408797
2729,860.427086290803
2729.25,858.250851169808
2729.5,857.65655912401
2729.75,857.855730664792
2730,857.997992029021
2730.25,857.426822286357
2730.5,856.23316753856
2730.75,854.688104569981
2731,853.060783929202
2731.25,851.589152479195
2731.5,850.485856999598
2731.75,849.962388697166
2732,850.080115458448
2732.25,850.529871463613
2732.5,850.946331032593
2732.75,850.982480304049
2733,850.443320774271
2733.25,849.209109761902
2733.5,847.171723264489
2733.75,844.775148614213
2734,843.25992609794
2734.25,843.928634062416
2734.5,847.62983793664
2734.75,853.214677374276
2735,858.985153174039
2735.25,863.324642408828
2735.5,865.87233457173
2735.75,867.253927312808
2736,868.121147368929
2736.25,868.88792726319
2736.5,869.353910189053
2736.75,869.220872670531
2737,868.227449494826
2737.25,866.526086729598
2737.5,864.529402531495
2737.75,862.653188514164
2738,861.130175570514
2738.25,859.785036877186
2738.5,858.387290787922
2738.75,856.747738939406
2739,855.038499909811
2739.25,853.618583024289
2739.5,852.844210082395
2739.75,852.77507686635
2740,852.989879112286
2740.25,853.023331780676
2740.5,852.522730609248
2740.75,851.736256686711
2741,851.111751503278
2741.25,851.079925781595
2741.5,851.659819700477
2741.75,852.450524553155
2742,853.032262035074
2742.25,853.078826701165
2742.5,852.551693825479
2742.75,851.467443014133
2743,849.828565140616
2743.25,847.479415729799
2743.5,844.16494606228
2743.75,839.640180840009
2744,834.797612656077
2744.25,832.607603389128
2744.5,836.261895350562
2744.75,847.820841057463
2745,863.38017230285
2745.25,877.077125828704
2745.5,883.363969488868
2745.75,882.253727478012
2746,878.508526348242
2746.25,877.043015131152
2746.5,881.167402231328
2746.75,888.437609611569
2747,895.12002491909
2747.25,897.625553095104
2747.5,895.283902506566
2747.75,890.134834312537
2748,884.320804758205
2748.25,879.703252199589
2748.5,876.799178180763
2748.75,875.723993091495
2749,876.576296235596
2749.25,878.820755148526
2749.5,881.108141304282
2749.75,882.035787540307
2750,880.535168507956
2750.25,877.342466656036
2750.5,873.800395893591
2750.75,871.230970989526
2751,869.982711820871
2751.25,869.044314537563
2751.5,867.30334344979
2751.75,863.921594071518
2752,859.616214039169
2752.25,855.652026078935
2752.5,853.264539459459
2752.75,852.631828242935
2753,852.61661015433
2753.25,851.999322902265
2753.5,849.943294143451
2753.75,847.141064063548
2754,844.666890063685
2754.25,843.535478468714
2754.5,843.843538649574
2754.75,844.967069084708
2755,846.263698542876
2755.25,847.26415847575
2755.5,847.867965736868
2755.75,848.021942154702
2756,847.715491063626
2756.25,847.221803879029
2756.5,846.930102216463
2756.75,847.220516373124
2757,848.180961960416
2757.25,849.558065260776
2757.5,851.079130442502
2757.75,852.510482601861
2758,853.751822255494
2758.25,854.731322391338
2758.5,855.385161325143
2758.75,855.748966798802
2759,855.925696793523
2759.25,856.018995457814
2759.5,856.043652637277
2759.75,855.831388446293
2760,855.191345720839
2760.25,854.00652791503
2760.5,852.697838070199
2760.75,851.924181160947
2761,852.33027255119
2761.25,853.910367214286
2761.5,855.778761199637
2761.75,856.987285151575
2762,856.868616347023
2762.25,855.960498865271
2762.5,855.123826712202
2762.75,855.184632534907
2763,856.32424158853
2763.25,858.156121662511
2763.5,860.274364705987
2763.75,862.301081556373
2764,863.93498305068
2764.25,864.887751170217
2764.5,864.907632540766
2764.75,864.135745233391
2765,862.952179220736
2765.25,861.739477005143
2765.5,860.740057226219
2765.75,859.907692916589
2766,859.160567835642
2766.25,858.418712240335
2766.5,857.616683489182
2766.75,856.695911202715
2767,855.601455699743
2767.25,854.477172017277
2767.5,853.765868481798
2767.75,853.935026204031
2768,855.233417705166
2768.25,856.798999611687
2768.5,857.417930623037
2768.75,855.935093486552
2769,852.519867141999
2769.25,848.650010874836
2769.5,845.858765771441
2769.75,845.240853735387
2770,846.49563102215
2770.25,849.045534209746
2770.5,852.302749404396
2770.75,855.570898236861
2771,858.088284999548
2771.25,859.100431360695
2771.5,858.51909699645
2771.75,857.407779160257
2772,856.94440375536
2772.25,858.050350945489
2772.5,860.061764509236
2772.75,861.709950270071
2773,861.757756395542
2773.25,860.048710529164
2773.5,857.72814263159
2773.75,856.018830254301
2774,855.8196968346
2774.25,856.657233599229
2774.5,857.69443873134
2774.75,858.123700621238
2775,857.662368614752
2775.25,856.480436741514
2775.5,854.762844354939
2775.75,852.778747635862
2776,851.030126146051
2776.25,850.058856669459
2776.5,850.316524202053
2776.75,851.338005437207
2777,852.124308626577
2777.25,851.680200964295
2777.5,849.784374772856
2777.75,847.510534908738
2778,846.055736977571
2778.25,846.365380250171
2778.5,848.010361206584
2778.75,850.094648766448
2779,851.743594487202
2779.25,852.554287183242
2779.5,852.580043930208
2779.75,851.892959899833
2780,850.686211116183
2780.25,849.503593152399
2780.5,848.952000768206
2780.75,849.538290996075
2781,850.739576594595
2781.25,851.426841869452
2781.5,850.48073011661
2781.75,848.079846454877
2782,846.574387998152
2782.25,848.521360858185
2782.5,855.707960456865
2782.75,865.768482185526
2783,874.943069786473
2783.25,879.600749782691
2783.5,879.031303652212
2783.75,875.40844100333
2784,871.02841472231
2784.25,867.799783675076
2784.5,866.046822082374
2784.75,865.689175644754
2785,866.629418934488
2785.25,868.393401649682
2785.5,870.138879903342
2785.75,871.008302940824
2786,870.617616105872
2786.25,870.238576423584
2786.5,871.504675383459
2786.75,875.951070325821
2787,883.387086273421
2787.25,892.149997927137
2787.5,900.529983408201
2787.75,907.109138959862
2788,911.420076098847
2788.25,913.188542703446
2788.5,912.16379213617
2788.75,908.723585670967
2789,903.927278138411
2789.25,898.868368869649
2789.5,894.541816327118
2789.75,891.252639854426
2790,889.011016145096
2790.25,887.824843424319
2790.5,887.517824858201
2790.75,887.530317736985
2791,887.254837002417
2791.25,886.150562072188
2791.5,884.434216687084
2791.75,882.803111643917
2792,881.961741031595
2792.25,882.274986671167
2792.5,883.169377951285
2792.75,883.910742233568
2793,883.807232991699
2793.25,882.807967830452
2793.5,881.359416745014
2793.75,879.921054783349
2794,878.857332511784
2794.25,878.215935698012
2794.5,877.9786260154
2794.75,878.117418888504
2795,878.418070300787
2795.25,878.498978631019
2795.5,877.972592280219
2795.75,876.555282033945
2796,874.34449197125
2796.25,871.524990110771
2796.5,868.288178958073
2796.75,864.966517082735
2797,862.027392573034
2797.25,859.943592408125
2797.5,858.978645664529
2797.75,858.646931991985
2798,858.295250565841
2798.25,857.307342414876
2798.5,855.626238414477
2798.75,853.62887639527
2799,851.703708160165
2799.25,850.293530587005
2799.5,849.97497193675
2799.75,851.344894053915
2800,854.833237638286
2800.25,859.450835849828
2800.5,863.491885288035
2800.75,865.270300104632
2801,864.455653378927
2801.25,862.732471969587
2801.5,861.948901879712
2801.75,863.531949915019
2802,866.55344208548
2802.25,869.266898933975
2802.5,869.971246468443
2802.75,868.392456945286
2803,865.92085321398
2803.25,864.040794533957
2803.5,863.925393990387
2803.75,865.348537364914
2804,867.69108228201
2804.25,870.334157926467
2804.5,872.665455342323
2804.75,874.079140506561
2805,873.969662151515
2805.25,872.082140658861
2805.5,869.447143834442
2805.75,867.389703855478
2806,867.171813796498
2806.25,868.808478626642
2806.5,871.171000681608
2806.75,873.088431712608
2807,873.752339673124
2807.25,873.547947429284
2807.5,873.105800294724
2807.75,873.047283282176
2808,873.841009188546
2808.25,875.829396982227
2808.5,879.350924524487
2808.75,884.372582053442
2809,889.694740934363
2809.25,893.889359601708
2809.5,895.597028842032
2809.75,894.641517961806
2810,891.844575685723
2810.25,888.059206485748
2810.5,884.087233858649
2810.75,880.516451601536
2811,877.878714854486
2811.25,876.700393508145
2811.5,877.331166111935
2811.75,879.91033379412
2812,884.564911017354
2812.25,891.32044757931
2812.5,899.694171981008
2812.75,909.044461187878
2813,918.72976282679
2813.25,928.11380573088
2813.5,936.567451714076
2813.75,943.462067733517
2814,948.250666515701
2814.25,951.158812816403
2814.5,952.837725661157
2814.75,953.943064631996
2815,955.055867535761
2815.25,956.405289199982
2815.5,958.116859760237
2815.75,960.315720100789
2816,962.87857959651
2816.25,965.004178764191
2816.5,965.776671929923
2816.75,964.288401438664
2817,960.323951537535
2817.25,954.87586314477
2817.5,949.058140312642
2817.75,943.974674731434
2818,940.396557065009
2818.25,938.694535647478
2818.5,939.215593450816
2818.75,942.199582521404
2819,946.539110453344
2819.25,950.206654655552
2819.5,951.156896990132
2819.75,947.813379669116
2820,941.252327177297
2820.25,933.481855203181
2820.5,926.510840431998
2820.75,921.74027286892
2821,918.662933773439
2821.25,916.398155794545
2821.5,914.076959927433
2821.75,911.36549522188
2822,908.675752948246
2822.25,906.475017186478
2822.5,905.181732726728
2822.75,904.732957763086
2823,904.791809477405
2823.25,905.018277942654
2823.5,905.150010031697
2823.75,905.162728622169
2824,905.077626444488
2824.25,904.911225023871
2824.5,904.555407165211
2824.75,903.767038489067
2825,902.296233554498
2825.25,900.005623888509
2825.5,897.469242774393
2825.75,895.538358517381
2826,895.059344767396
2826.25,896.149418238805
2826.5,897.475638828023
2826.75,897.533603653418
2827,894.977072125361
2827.25,890.334167040191
2827.5,885.359461387874
2827.75,881.828569745212
2828,880.938073831996
2828.25,882.023959767476
2828.5,884.049242608156
2828.75,886.028722750873
2829,887.948159724588
2829.25,890.655762068672
2829.5,895.029725970867
2829.75,901.446948890632
2830,908.311423495019
2830.25,913.541859207069
2830.5,915.118773843829
2830.75,913.100422835446
2831,910.069813284415
2831.25,908.762229029314
2831.5,911.508107875713
2831.75,917.289952631747
2832,923.438187766017
2832.25,927.273195522996
2832.5,927.177703598489
2832.75,924.431944720691
2833,920.805575925796
2833.25,918.027904533853
2833.5,916.441579922412
2833.75,914.686641861368
2834,911.298754278403
2834.25,905.15615220797
2834.5,898.1642458585
2834.75,893.806634263082
2835,895.578941472545
2835.25,905.127780731883
2835.5,918.692936564613
2835.75,931.531137444739
2836,939.083075081489
2836.25,940.554193175096
2836.5,938.672474606475
2836.75,936.301355764584
2837,935.930959406644
2837.25,937.122381685218
2837.5,938.054314536805
2837.75,936.897327686533
2838,932.608468864261
2838.25,926.956381297187
2838.5,922.337742299454
2838.75,921.128434986185
2839,923.950174413434
2839.25,928.36581836565
2839.5,931.630925054214
2839.75,931.177584459318
2840,927.022320590635
2840.25,921.142402347766
2840.5,915.563902353856
2840.75,911.961255824976
2841,909.971469363704
2841.25,908.499500407239
2841.5,906.45274831009
2841.75,903.320582301812
2842,899.828705690388
2842.25,896.860883728279
2842.5,895.248141371185
2842.75,894.998788429059
2843,895.470189408886
2843.25,896.001914198871
2843.5,896.058570126703
2843.75,895.596620638984
2844,894.693454070517
2844.25,893.434787392691
2844.5,892.192351684044
2844.75,891.688941174696
2845,892.668860044271
2845.25,895.65228616824
2845.5,899.725587168196
2845.75,903.410319719177
2846,905.235942273748
2846.25,904.629472469916
2846.5,902.65216227718
2846.75,900.538663839246
2847,899.429340886973
2847.25,899.314869622779
2847.5,899.417929051629
2847.75,898.94720162944
2848,897.390412995338
2848.25,895.186052961803
2848.5,892.974925796593
2848.75,891.384071397932
2849,890.650812614057
2849.25,890.577192584004
2849.5,890.942342608666
2849.75,891.549278264681
2850,892.334353937537
2850.25,893.280176008392
2850.5,894.368119644697
2850.75,895.498542289917
2851,896.443620329038
2851.25,896.964193803617
2851.5,896.878577583166
2851.75,896.50588284213
2852,896.423311929303
2852.25,897.209159924298
2852.5,899.057451618174
2852.75,901.206768574763
2853,902.749704744121
2853.25,902.838027077236
2853.5,901.60818470831
2853.75,900.008855366504
2854,899.012997760223
2854.25,899.30925895752
2854.5,900.310446383584
2854.75,901.071638260835
2855,900.661664606682
2855.25,898.811387963804
2855.5,896.193149526414
2855.75,893.551131062241
2856,891.566725412356
2856.25,890.395687971115
2856.5,889.931720828092
2856.75,890.066527709174
2857,890.673278647699
2857.25,891.5825824123
2857.5,892.61909661016
2857.75,893.593444467787
2858,894.129132667318
2858.25,893.716497519273
2858.5,891.843081241322
2858.75,888.354419751773
2859,884.300943479099
2859.25,880.986302470187
2859.5,879.669220586428
2859.75,880.523708647139
2860,882.609709980287
2860.25,884.936369526224
2860.5,886.67325452664
2860.75,887.692560242581
2861,888.058793141924
2861.25,887.843437815924
2861.5,887.346826121287
2861.75,887.144211053062
2862,887.827130948064
2862.25,889.797745771979
2862.5,892.361791892923
2862.75,894.431350015508
2863,894.929032721575
2863.25,893.477402199731
2863.5,890.80599867141
2863.75,887.742211617821
2864,885.038008049739
2864.25,882.779657866178
2864.5,880.706710270786
2864.75,878.55670600402
2865,876.280206570659
2865.25,874.305955870464
2865.5,873.127851634171
2865.75,873.160136042626
2866,873.940240370284
2866.25,874.462423041583
2866.5,873.715504898512
2866.75,871.331445214391
2867,868.418644779676
2867.25,866.291873161163
2867.5,866.120589771454
2867.75,867.541446768734
2868,869.27172888909
2868.25,870.021723681156
2868.5,869.319675858156
2868.75,868.37310081265
2869,868.595739396393
2869.25,871.165593175959
2869.5,875.208029055497
2869.75,878.791173624532
2870,879.987177162046
2870.25,878.102153089407
2870.5,874.687225293587
2870.75,871.531494183523
2871,870.219455826249
2871.25,870.577769954712
2871.5,871.537646527313
2871.75,872.028430570663
2872,871.505491304495
2872.25,870.391650430021
2872.5,869.213679763498
2872.75,868.441724146216
2873,868.102241661376
2873.25,868.012530592327
2873.5,867.990536236234
2873.75,867.992589303171
2874,868.205873728335
2874.25,868.839474626834
2874.5,870.019288026473
2874.75,871.319223908098
2875,872.088402450038
2875.25,871.688754788024
2875.5,870.163664070244
2875.75,868.545758200708
2876,867.945384764758
2876.25,869.199144085954
2876.5,871.520008789575
2876.75,873.524637312815
2877,873.856736939336
2877.25,872.260224370716
2877.5,869.915877886014
2877.75,868.101277111677
2878,867.825843453251
2878.25,868.657332038816
2878.5,869.681118119873
2878.75,870.001239617263
2879,869.344790316865
2879.25,868.186954749415
2879.5,867.047193714399
2879.75,866.326270761376
2880,865.873207312457
2880.25,865.37683147953
2880.5,864.53721806785
2880.75,863.336781842509
2881,862.053843119318
2881.25,860.980700968335
2881.5,860.386327072936
2881.75,860.452345852467
2882,861.339941378836
2882.25,863.17972594877
2882.5,865.60256907655
2882.75,867.831786896856
2883,869.079488653217
2883.25,869.005389127473
2883.5,868.487916512044
2883.75,868.61097419298
2884,870.329448887686
2884.25,873.027618372378
2884.5,875.041805001167
2884.75,874.692650593557
2885,871.274855409213
2885.25,866.394884418986
2885.5,861.994657567688
2885.75,859.846487016246
2886,859.830436236129
2886.25,860.642456163296
2886.5,860.965331418498
2886.75,860.192199200675
2887,859.157648067394
2887.25,858.870850250206
2887.5,860.143485935724
2887.75,862.280311106349
2888,863.891696569562
2888.25,863.605447192053
2888.5,861.146806120665
2888.75,857.85049154629
2889,855.179497140098
2889.25,854.448420637472
2889.5,856.164585651564
2889.75,860.562128381207
2890,867.83467452626
2890.25,877.146472730299
2890.5,886.571934929698
2890.75,894.133081744505
2891,898.522419459872
2891.25,900.942183202831
2891.5,903.181718116209
2891.75,906.973566418242
2892,912.342943732653
2892.25,917.349978377002
2892.5,919.946123889153
2892.75,918.478670123774
2893,913.986629467992
2893.25,908.629691796706
2893.5,904.56937634281
2893.75,903.078395130926
2894,903.119281413513
2894.25,903.284057775117
2894.5,902.215542637893
2894.75,899.592870224582
2895,896.063070343211
2895.25,892.310264580598
2895.5,888.956946439667
2895.75,886.306370322357
2896,884.558733763667
2896.25,883.908042588588
2896.5,884.211812062312
2896.75,884.823585099718
2897,885.055544566357
2897.25,884.375932667049
2897.5,883.369296211684
2897.75,883.10636629455
2898,884.651176710281
2898.25,888.198576043599
2898.5,892.346176103911
2898.75,895.520150567981
2899,896.335811519511
2899.25,895.144234396474
2899.5,893.229666510712
2899.75,891.884113836426
2900,891.860770435082
2900.25,892.528620124954
2900.5,893.037443367275
2900.75,892.582118140154
2901,891.082130435654
2901.25,889.041399995633
2901.5,886.980502258009
2901.75,885.275936151873
2902,883.745363900738
2902.25,882.070974285404
2902.5,879.959356367346
2902.75,877.791798016103
2903,876.694097604639
2903.25,877.830458571265
2903.5,881.929792967548
2903.75,887.624838105592
2904,892.918151756906
2904.25,895.85649212742
2904.5,895.96945571635
2904.75,894.584393714314
2905,893.13669805491
2905.25,892.831561369139
2905.5,893.404770609461
2905.75,894.014451661756
2906,893.823736645712
2906.25,892.610322398632
2906.5,891.268720894902
2906.75,890.811657762449
2907,892.131608485959
2907.25,894.872330185817
2907.5,897.937566927456
2907.75,900.222017744124
2908,901.008909898331
2908.25,900.626301782324
2908.5,899.576088868862
2908.75,898.354023647524
2909,897.334991248438
2909.25,896.783371303105
2909.5,896.959478052194
2909.75,897.963779206715
2910,899.127162369921
2910.25,899.549204539555
2910.5,898.344966597741
2910.75,895.456460170555
2911,892.050588031782
2911.25,889.393241125655
2911.5,888.593101566675
2911.75,889.410354284198
2912,890.91915676027
2912.25,892.189713482733
2912.5,892.611104389112
2912.75,892.287085615517
2913,891.41861515032
2913.25,890.220064401577
2913.5,889.084197592235
2913.75,888.530520625778
2914,889.081157121086
2914.25,890.904191988639
2914.5,893.006335732178
2914.75,894.156522654362
2915,893.18649968006
2915.25,890.304399979968
2915.5,887.057832865601
2915.75,885.049836539721
2916,885.461108474853
2916.25,887.414728124094
2916.5,889.408079708317
2916.75,889.965725918004
2917,888.71020466469
2917.25,886.711389745712
2917.5,885.138027370884
2917.75,884.931017029384
2918,885.521848016493
2918.25,885.728212720263
2918.5,884.375880845185
2918.75,881.08853887186
2919,876.862777139133
2919.25,872.830766530685
2919.5,870.088152202672
2919.75,869.417369306751
2920,871.441553571851
2920.25,876.774116130167
2920.5,885.153554190769
2920.75,894.694128090746
2921,903.33353859653
2921.25,909.222423082019
2921.5,912.266196394258
2921.75,913.233656567171
2922,912.899255386311
2922.25,911.863176191059
2922.5,910.273082774719
2922.75,908.20413897922
2923,905.733528985712
2923.25,902.986123997768
2923.5,900.135169584711
2923.75,897.356069132583
2924,894.844173194586
2924.25,892.914404282988
2924.5,891.926038407937
2924.75,892.236563035154
2925,894.030880552519
2925.25,897.183843958153
2925.5,901.53795781274
2925.75,906.958202039375
2926,913.533224945386
2926.25,921.479919368605
2926.5,931.016283121353
2926.75,941.78806639899
2927,951.733464301986
2927.25,958.473578047377
2927.5,959.676388638835
2927.75,955.086163636126
2928,947.301129184585
2928.25,939.12687678265
2928.5,933.258827473206
2928.75,930.264604181697
2929,928.787835573532
2929.25,927.402870205337
2929.5,924.862673723104
2929.75,921.263477892648
2930,917.312759559422
2930.25,913.72099375579
2930.5,911.026085699591
2930.75,909.232611452022
2931,908.242436240865
2931.25,907.95135388198
2931.5,908.056806920448
2931.75,908.018467945632
2932,907.281973107956
2932.25,905.399139445318
2932.5,902.710007123774
2932.75,899.909266595803
2933,897.69234020135
2933.25,896.445161256243
2933.5,895.80350793885
2933.75,895.291719764145
2934,894.459378580608
2934.25,893.267660646735
2934.5,892.012870783059
2934.75,891.001060186834
2935,890.494459274061
2935.25,890.579306360658
2935.5,891.297663777435
2935.75,892.688158732204
2936,894.679641056544
2936.25,897.07075642855
2936.5,899.652592717285
2936.75,902.196021104204
2937,904.350781599375
2937.25,905.721701866475
2937.5,905.916815458201
2937.75,904.882445995807
2938,903.192587776569
2938.25,901.489417806541
2938.5,900.368886612434
2938.75,899.839979906492
2939,899.508040795499
2939.25,898.970477716604
2939.5,897.985025455657
2939.75,896.880524907412
2940,896.112927543088
2940.25,896.122244313502
2940.5,896.860596391796
2940.75,897.713500129087
2941,898.034677857295
2941.25,897.333295888201
2941.5,896.073099500001
2941.75,895.079964592897
2942,895.175996787312
2942.25,896.723218096873
2942.5,899.230125296601
2942.75,902.112514967528
2943,904.814345701492
2943.25,907.084200744972
2943.5,908.856902030591
2943.75,910.069936371042
2944,910.637742754181
2944.25,910.401000188285
2944.5,909.185663120027
2944.75,906.828853218149
2945,903.524361608727
2945.25,899.888898290268
2945.5,896.563711044728
2945.75,894.134246058385
2946,892.777204926731
2946.25,892.487512716587
2946.5,893.257999216102
2946.75,894.86739455445
2947,896.641162608018
2947.25,897.847051620013
2947.5,897.817563471688
2947.75,896.694927556875
2948,895.172165361058
2948.25,893.952808413845
2948.5,893.499747553189
2948.75,893.458844069253
2949,893.302723380668
2949.25,892.522563991695
2949.5,891.081891479121
2949.75,889.443409152892
2950,888.09374467585
2950.25,887.463420033751
2950.5,887.685751235616
2950.75,888.796014373836
2951,890.823502959555
2951.25,893.491586677994
2951.5,896.075857315253
2951.75,897.816316994558
2952,898.079049096301
2952.25,897.177502894768
2952.5,895.855900521367
2952.75,894.859758339431
2953,894.756040691815
2953.25,895.716525068362
2953.5,897.860007943668
2953.75,901.251235397657
2954,905.215175067793
2954.25,908.540648158972
2954.5,910.004488733084
2954.75,908.884051998294
2955,906.303748895296
2955.25,903.81395534449
2955.5,902.938249827964
2955.75,904.073055638423
2956,906.099163652199
2956.25,907.790729664693
2956.5,908.060178084868
2956.75,906.928356611953
2957,904.948914743431
2957.25,902.678740649996
2957.5,900.59854701032
2957.75,898.989196767891
2958,898.099175408674
2958.25,898.160705102775
2958.5,899.081152819342
2958.75,900.468219306125
2959,901.918390080622
2959.25,903.0413981483
2959.5,903.510643992819
2959.75,903.018631295017
2960,901.265735103301
2960.25,898.432591269366
2960.5,895.448992010201
2960.75,893.309731732965
2961,892.868200846024
2961.25,893.62940519915
2961.5,894.350839265239
2961.75,893.783401286925
2962,891.275354253684
2962.25,887.706379015363
2962.5,884.198118569983
2962.75,881.821503195136
2963,880.808047202759
2963.25,880.69920385832
2963.5,881.015947123355
2963.75,881.315226374898
2964,881.280511927376
2964.25,880.623072924483
2964.5,879.076666208412
2964.75,876.848877300457
2965,874.598200198205
2965.25,873.001029024258
2965.5,872.563568291695
2965.75,873.10924869199
2966,874.290302124599
2966.25,875.763780236752
2966.5,877.294016039744
2966.75,878.750675757203
2967,880.007855705221
2967.25,880.98627331185
2967.5,881.789236026849
2967.75,882.564745446863
2968,883.44909716909
2968.25,884.292235808274
2968.5,884.64791221671
2968.75,884.056201986403
2969,882.211872748243
2969.25,879.517887539852
2969.5,876.579754636182
2969.75,873.994788192506
2970,872.074345575591
2970.25,870.776465409329
2970.5,870.037314433522
2970.75,869.756556039612
2971,869.647548666889
2971.25,869.364367487227
2971.5,868.578452265268
2971.75,867.503889180971
2972,866.990976065728
2972.25,867.926261871503
2972.5,870.907246267102
2972.75,875.239764701277
2973,879.868993545818
2973.25,883.761691194368
2973.5,886.402750504663
2973.75,887.807358977716
2974,888.014734842975
2974.25,887.133828747868
2974.5,885.585182745552
2974.75,883.876336214655
2975,882.502104459546
2975.25,881.49354732162
2975.5,880.296658864652
2975.75,878.320031699667
2976,875.188208164294
2976.25,871.770835459696
2976.5,869.38286002427
2976.75,869.315643287649
2977,871.71041735181
2977.25,875.079028300478
2977.5,877.809664106539
2977.75,878.599365724794
2978,877.861446289315
2978.25,876.601934672669
2978.5,875.812705385119
2978.75,875.836275006897
2979,876.124004398801
2979.25,876.062653799844
2979.5,875.222143628564
2979.75,874.241391653216
2980,874.146044753937
2980.25,875.944002272062
2980.5,879.794870167575
2980.75,884.669267124234
2981,889.448949868931
2981.25,893.134046663943
2981.5,895.4240794665
2981.75,896.274519394023
2982,895.647340631597
2982.25,893.937800696567
2982.5,892.253758345906
2982.75,891.76942870251
2983,893.478562093805
2983.25,896.678881732514
2983.5,899.738710662422
2983.75,901.018747386068
2984,899.60499087486
2984.25,896.399445767511
2984.5,892.583731089058
2984.75,889.309511072547
2985,887.189987958062
2985.25,886.37222813518
2985.5,886.987902836933
2985.75,888.955624034932
2986,891.319108090003
2986.25,892.897533022066
2986.5,892.547222267157
2986.75,890.258118865955
2987,887.334801544195
2987.25,885.155447058609
2987.5,884.847252509674
2987.75,886.05484899119
2988,887.880425548238
2988.25,889.43519800079
2988.5,890.429350044589
2988.75,891.506559673981
2989,893.391403815821
2989.25,896.638224081528
2989.5,900.438403525064
2989.75,903.328874741778
2990,903.846499024093
2990.25,901.399352337879
2990.5,897.343089892635
2990.75,893.297474620842
2991,890.797617909145
2991.25,890.024363206994
2991.5,890.069317380807
2991.75,889.993232032356
2992,889.047872944292
2992.25,887.214734275531
2992.5,884.649542445394
2992.75,881.51470666871
2993,878.164101627772
2993.25,875.166740959607
2993.5,873.103075974182
2993.75,872.403194982433
2994,872.739642747694
2994.25,873.546928206713
2994.5,874.26904277349
2994.75,874.661305519251
2995,874.851504435211
2995.25,874.989347640778
2995.5,875.294901133253
2995.75,876.33003909889
2996,878.76028640005
2996.25,883.228069212565
2996.5,889.639748918915
2996.75,897.030290617324
2997,904.384229284589
2997.25,910.742492352335
2997.5,915.4406206091
2997.75,917.910048047509
2998,917.590650432408
2998.25,914.618993011232
2998.5,910.340336700729
2998.75,906.220582282576
2999,903.627153582682
2999.25,902.56156039846
2999.5,902.026276264017
2999.75,901.000931101658
3000,898.840082285294
3000.25,896.400599695029
3000.5,894.915583141282
3000.75,895.586287647299
3001,898.341929518713
3001.25,901.43931549876
3001.5,903.021449035442
3001.75,901.593077324544
3002,898.203764235127
3002.25,894.995185896602
3002.5,894.106834910817
3002.75,896.383845105129
3003,899.811270474059
3003.25,901.991450462172
3003.5,900.721723484884
3003.75,896.421942697032
3004,891.389686719776
3004.25,887.963340162465
3004.5,887.884556345938
3004.75,890.643465971876
3005,895.199270118137
3005.25,900.536467047153
3005.5,906.320874788739
3005.75,912.959961707961
3006,920.898586704184
3006.25,930.300759191448
3006.5,939.692930955548
3006.75,947.009679548191
3007,950.189346969837
3007.25,948.313375260446
3007.5,943.104763046849
3007.75,936.658495957378
3008,931.038524455887
3008.25,927.008337503814
3008.5,923.585611544718
3008.75,919.665488958228
3009,914.264938535555
3009.25,907.875970124911
3009.5,901.970923158007
3009.75,898.039814612691
3010,897.091697856232
3010.25,898.11437238228
3010.5,899.564754132948
3010.75,899.923743045016
3011,898.652995554216
3011.25,896.516868631849
3011.5,894.369725207492
3011.75,892.95684179932
3012,892.195069433897
3012.25,891.62108441484
3012.5,890.770708992354
3012.75,889.379210008195
3013,887.607896130164
3013.25,885.672895942375
3013.5,883.780205037981
3013.75,882.011333362412
3014,880.364182523724
3014.25,878.835121941172
3014.5,877.437344240955
3014.75,876.232366234289
3015,875.290327937291
3015.25,874.674216890866
3015.5,874.338112431755
3015.75,874.151280971211
3016,873.980776097679
3016.25,873.73257550236
3016.5,873.429810138664
3016.75,873.117562476958
3017,872.84772490856
3017.25,872.77423833643
3017.5,873.1296785799
3017.75,874.148454145556
3018,875.853710529007
3018.25,877.654702460698
3018.5,878.849802930226
3018.75,878.79269208215
3019,877.627614655806
3019.25,876.089011022184
3019.5,874.925297178844
3019.75,874.613003981272
3020,874.810445034779
3020.25,875.022640322952
3020.5,874.77597644722
3020.75,873.92210154274
3021,872.565921854986
3021.25,870.819057700164
3021.5,868.840117586677
3021.75,866.929108777214
3022,865.412528030017
3022.25,864.588176048539
3022.5,864.34373601312
3022.75,864.260751421067
3023,863.913971217406
3023.25,863.115319140511
3023.5,862.283487674913
3023.75,861.932821983866
3024,862.514414349477
3024.25,863.816455214256
3024.5,865.231505097427
3024.75,866.149582353998
3025,866.301189064424
3025.25,866.082259459408
3025.5,865.965765770502
3025.75,866.376827076086
3026,867.367816016695
3026.25,868.816268913655
3026.5,870.597916693525
3026.75,872.53544726852
3027,874.366285282511
3027.25,875.820152895462
3027.5,876.701577786067
3027.75,877.302480854274
3028,878.110011969582
3028.25,879.60086804802
3028.5,881.604722704036
3028.75,882.954834009862
3029,882.399498699047
3029.25,878.964075708763
3029.5,873.596442005841
3029.75,868.059508774079
3030,864.1081788401
3030.25,862.59071608949
3030.5,862.784051858465
3030.75,863.808488222067
3031,864.830809800942
3031.25,865.328322843126
3031.5,864.905566092278
3031.75,863.182448857221
3032,860.454276145594
3032.25,857.951535946173
3032.5,856.973391055162
3032.75,858.404414653251
3033,861.017901237361
3033.25,862.916773310999
3033.5,862.280620566262
3033.75,859.128577946887
3034,855.359007006521
3034.25,852.955111879836
3034.5,853.246477544182
3034.75,855.242185394045
3035,857.4365842434
3035.25,858.415970020332
3035.5,858.001457555143
3035.75,856.897417891674
3036,855.826210574746
3036.25,855.250280533198
3036.5,855.045376197514
3036.75,855.006798595851
3037,854.952739877472
3037.25,854.886738612059
3037.5,854.902182842794
3037.75,855.09221935159
3038,855.506121392175
3038.25,856.128435206458
3038.5,856.938505259031
3038.75,857.896614548867
3039,858.869460958467
3039.25,859.695068509758
3039.5,860.22276603402
3039.75,860.557372756875
3040,861.056618789334
3040.25,862.088989561384
3040.5,863.833826490261
3040.75,865.845378914737
3041,867.548942620111
3041.25,868.404809348765
3041.5,868.365287343485
3041.75,867.745889580396
3042,866.870526553808
3042.25,866.018441362558
3042.5,865.352026740307
3042.75,865.01480337972
3043,865.133717439068
3043.25,865.649372719932
3043.5,866.385094178895
3043.75,867.162424350239
3044,867.810620081839
3044.25,868.175400161117
3044.5,868.104599040051
3044.75,867.481485718796
3045,866.499858154408
3045.25,865.514305564716
3045.5,864.878588735601
3045.75,864.739279207356
3046,864.868118508329
3046.25,864.997395223294
3046.5,864.922216579414
3046.75,864.878868611558
3047,865.292687805893
3047.25,866.581167751943
3047.5,868.722762019047
3047.75,871.055242017729
3048,872.865672636219
3048.25,873.557097081251
3048.5,873.175400953812
3048.75,871.987937516198
3049,870.266191147811
3049.25,868.434236810312
3049.5,867.114368782739
3049.75,866.942128549398
3050,868.311350292578
3050.25,870.370721174894
3050.5,871.869122475981
3050.75,871.590081290897
3051,869.353791437592
3051.25,866.167778605998
3051.5,863.1047076836
3051.75,861.070028575446
3052,860.215045191724
3052.25,860.478552984231
3052.5,861.779420214639
3052.75,863.595314301796
3053,864.971863162153
3053.25,864.936712203961
3053.5,862.975964716038
3053.75,860.090167801105
3054,857.592146329505
3054.25,856.722921179384
3054.5,857.6662159056
3054.75,859.800504125803
3055,862.484276545359
3055.25,865.145656185463
3055.5,867.378960292326
3055.75,868.802774486334
3056,869.114397500202
3056.25,868.748714993969
3056.5,868.543852563411
3056.75,869.336798458873
3057,871.343763542939
3057.25,873.58222887019
3057.5,874.932908900403
3057.75,874.468737892823
3058,872.797561301937
3058.25,871.26258903702
3058.5,871.201762224091
3058.75,873.016841162133
3059,875.416630612437
3059.25,876.931835750796
3059.5,876.331678499907
3059.75,874.193432957504
3060,871.922804854518
3060.25,870.920177243721
3060.5,871.735199535184
3060.75,873.412237573845
3061,874.841596505517
3061.25,875.049245613718
3061.5,874.063327505668
3061.75,872.36097820932
3062,870.421331251814
3062.25,868.714520823544
3062.5,867.695433041086
3062.75,867.817477818668
3063,869.413910859673
3063.25,871.974660445866
3063.5,874.628477563701
3063.75,876.510854164977
3064,877.208173046082
3064.25,876.985775793336
3064.5,876.165141121507
3064.75,875.050752735989
3065,873.836516363855
3065.25,872.672100443456
3065.5,871.705578725256
3065.75,870.998162390423
3066,870.477451260501
3066.25,870.059670748312
3066.5,869.645329925951
3066.75,869.035211997167
3067,867.99110841401
3067.25,866.284166426058
3067.5,864.132360363739
3067.75,862.384894795711
3068,861.938686416516
3068.25,863.41953165558
3068.5,865.987818270645
3068.75,868.311086222143
3069,869.095851804397
3069.25,868.194133238815
3069.5,866.755553997602
3069.75,865.999651950034
3070,866.784126556734
3070.25,868.412394563548
3070.5,869.770623950114
3070.75,869.797088811031
3071,868.562350169666
3071.25,867.233617121559
3071.5,867.023064276012
3071.75,868.627179769184
3072,870.869821517564
3072.25,872.149911274485
3072.5,870.966563635643
3072.75,867.552626394441
3073,863.60673331957
3073.25,860.873413419587
3073.5,860.440447580454
3073.75,861.303296491905
3074,862.041665576353
3074.25,861.343682201299
3074.5,859.329081971688
3074.75,857.129600151843
3075,855.89589382616
3075.25,856.151417978755
3075.5,856.957116595457
3075.75,857.16587573271
3076,855.81310743284
3076.25,853.46933872676
3076.5,851.473384503272
3076.75,851.152995691245
3077,852.821706573848
3077.25,855.21679767868
3077.5,856.939463629276
3077.75,856.938797517599
3078,855.890340298858
3078.25,855.00417494472
3078.5,855.440064231646
3078.75,857.198634457538
3079,859.122434625051
3079.25,860.003980843268
3079.5,859.207021193728
3079.75,857.893450560888
3080,857.578082552654
3080.25,859.632715913722
3080.5,863.59732853171
3080.75,867.744395769047
3081,870.325730670719
3081.25,870.484869400406
3081.5,869.30878467
3081.75,868.140407154767
3082,868.159572368862
3082.25,869.019416072305
3082.5,869.539122649979
3082.75,868.535908209697
3083,865.564406943458
3083.25,861.586499826106
3083.5,857.722325860026
3083.75,855.098334663972
3084,854.890664450475
3084.25,858.298975762621
3084.5,866.492669868014
3084.75,879.044760193865
3085,893.176547775287
3085.25,905.920725548556
3085.5,914.871324977963
3085.75,920.654534537372
3086,924.915713147515
3086.25,929.293814577616
3086.5,934.726566131964
3086.75,940.870884501204
3087,947.247246798341
3087.25,953.373626721878
3087.5,958.723977720499
3087.75,962.734661727977
3088,964.840833064348
3088.25,964.595687245499
3088.5,962.544717611944
3088.75,959.729840459715
3089,957.196661047575
3089.25,955.743928702131
3089.5,954.83714235195
3089.75,953.493726077049
3090,950.730906907943
3090.25,946.006589887133
3090.5,940.198488843218
3090.75,934.469708870574
3091,929.97611130943
3091.25,927.138684215212
3091.5,925.021642227794
3091.75,922.542718658806
3092,918.720159107742
3092.25,914.46405845819
3092.5,912.368855421753
3092.75,915.08782422891
3093,924.583847378408
3093.25,938.603627277905
3093.5,953.302634713796
3093.75,964.840664106209
3094,970.98764128551
3094.25,973.141034911906
3094.5,973.194634561328
3094.75,973.026213488244
3095,973.625785071561
3095.25,974.647861914314
3095.5,975.636684340364
3095.75,976.152470154909
3096,976.219842813015
3096.25,976.389062491546
3096.5,977.23867197968
3096.75,979.307874581747
3097,982.408255572318
3097.25,985.710421316036
3097.5,988.363053870915
3097.75,989.570014473996
3098,989.25207723126
3098.25,987.831089112591
3098.5,985.739164421674
3098.75,983.401137628917
3099,981.161352285304
3099.25,979.314121596725
3099.5,978.153006252422
3099.75,977.881843629911
3100,977.898566808488
3100.25,977.175322090891
3100.5,974.680400466891
3100.75,969.663288839678
3101,963.270867276716
3101.25,957.434495530711
3101.5,954.088021608346
3101.75,954.659293638451
3102,958.097459719494
3102.25,962.593881963608
3102.5,966.340450172132
3102.75,968.156644789574
3103,968.63842720295
3103.25,968.693897491908
3103.5,969.226594266385
3103.75,970.602332436232
3104,972.150146611997
3104.25,973.081000198031
3104.5,972.620119591153
3104.75,970.632061489312
3105,967.864620026231
3105.25,965.130236463477
3105.5,963.207947548177
3105.75,962.050216717991
3106,960.749204599525
3106.25,958.356918021612
3106.5,954.027193611412
3106.75,948.277034240299
3107,942.596336808569
3107.25,938.4959792613
3107.5,937.243169116303
3107.75,938.308233152374
3108,940.357691881832
3108.25,942.054351027646
3108.5,942.4943008304
3108.75,942.271726602983
3109,942.304361031234
3109.25,943.502894731395
3109.5,946.137436486042
3109.75,949.334079556218
3110,952.100446306662
3110.25,953.481467870711
3110.5,953.346016279584
3110.75,952.368361573398
3111,951.256373380714
3111.25,950.666341352486
3111.5,950.715939707274
3111.75,951.202279948764
3112,951.918220188835
3112.25,952.630840543461
3112.5,952.964669390874
3112.75,952.495232325865
3113,950.798114139342
3113.25,947.666269862657
3113.5,943.568091394555
3113.75,939.102779163793
3114,934.867662858454
3114.25,931.28998336902
3114.5,928.493266152452
3114.75,926.569590836925
3115,925.592803771409
3115.25,925.281817417533
3115.5,925.033095959299
3115.75,924.231386195212
3116,922.402783984713
3116.25,920.014674433249
3116.5,917.919025606801
3116.75,916.968048862688
3117,917.500684876153
3117.25,918.485372434561
3117.5,918.664264074794
3117.75,916.822873781631
3118,912.906798713156
3118.25,908.120071570064
3118.5,903.729797819034
3118.75,900.861556727406
3119,899.584230590953
3119.25,899.488855522178
3119.5,900.163893682588
3119.75,901.138721299254
3120,901.805142065261
3120.25,901.535421163572
3120.5,899.751798455557
3120.75,896.671073089312
3121,893.146547822468
3121.25,890.04940067293
3121.5,888.109775403078
3121.75,887.460324867492
3122,888.075503564363
3122.25,889.920660746448
3122.5,892.647241043992
3122.75,895.520666684926
3123,897.782638491221
3123.25,898.855287999098
3123.5,899.247852291264
3123.75,899.874735376619
3124,901.643827353257
3124.25,904.760910689091
3124.5,908.150903619699
3124.75,910.60248600826
3125,911.014356713009
3125.25,909.553879314676
3125.5,907.202043459238
3125.75,904.95317862259
3126,903.551154305664
3126.25,902.810088312639
3126.5,902.328403113808
3126.75,901.717157309104
3127,901.064653686977
3127.25,901.071180570873
3127.5,902.477134182239
3127.75,905.863134320712
3128,910.617247491664
3128.25,915.588419205841
3128.5,919.624758330069
3128.75,922.042384215127
3129,923.246780112235
3129.25,923.798092099235
3129.5,924.265450942291
3129.75,925.416200580042
3130,928.211322447076
3130.25,933.619867374508
3130.5,942.316485046128
3130.75,952.888352224557
3131,963.020515790426
3131.25,970.394715836933
3131.5,973.576357924234
3131.75,973.973808877267
3132,973.566048091736
3132.25,974.328026140528
3132.5,977.299094679606
3132.75,981.389648055133
3133,985.215473246761
3133.25,987.403765719424
3133.5,987.486225401804
3133.75,986.540226124416
3134,985.794442069564
3134.25,986.458379423005
3134.5,988.711310120972
3134.75,991.20098788161
3135,992.450774937173
3135.25,991.016556554563
3135.5,986.681836575854
3135.75,980.803918180071
3136,974.843205861035
3136.25,970.231126193804
3136.5,967.484807711171
3136.75,966.04365405225
3137,965.285128219771
3137.25,964.595793294166
3137.5,963.530180970421
3137.75,961.790606290219
3138,959.084426563929
3138.25,955.21672743294
3138.5,951.041108436954
3138.75,948.048240278666
3139,947.737774293684
3139.25,951.212568099238
3139.5,957.126168677751
3139.75,963.198498080392
3140,967.147792871332
3140.25,967.37092354065
3140.5,964.499724142736
3140.75,959.625453170459
3141,953.838219655172
3141.25,947.975166780595
3141.5,942.304410661333
3141.75,937.016352101022
3142,932.302266508455
3142.25,928.39252377958
3142.5,925.571439836422
3142.75,924.127272395081
3143,924.289066410879
3143.25,925.529536253143
3143.5,926.799091882989
3143.75,927.03775620889
3144,925.459582474708
3144.25,922.57127710353
3144.5,919.260345335689
3144.75,916.411536863144
3145,914.52194895501
3145.25,913.308650325916
3145.5,912.395180289921
3145.75,911.413152941491
3146,910.131103426068
3146.25,908.431861453529
3146.5,906.201759884603
3146.75,903.402008470924
3147,900.373570578635
3147.25,897.577510927288
3147.5,895.471421475849
3147.75,894.234222730179
3148,893.568840300511
3148.25,893.131633734462
3148.5,892.616432051732
3148.75,892.086575615679
3149,891.81576710577
3149.25,892.079723174774
3149.5,892.932244202465
3149.75,893.842015673725
3150,894.182417800211
3150.25,893.375056181239
3150.5,891.645675022555
3150.75,889.884180758108
3151,889.00038856698
3151.25,889.625135897221
3151.5,891.263963196685
3151.75,893.138720441012
3152,894.487218046831
3152.25,895.039678897881
3152.5,895.100431081364
3152.75,895.006222447809
3153,895.052624710856
3153.25,895.287390522326
3153.5,895.666003288136
3153.75,896.143859549586
3154,896.682369748497
3154.25,897.253553478503
3154.5,897.830512023185
3154.75,898.366794535341
3155,898.61498169188
3155.25,898.209492866698
3155.5,896.783527967227
3155.75,894.275034759796
3156,891.503310089851
3156.25,889.446050579124
3156.5,889.032512747615
3156.75,890.181694319958
3157,891.856874072553
3157.25,892.983809182516
3157.5,892.728722254054
3157.75,891.325360385275
3158,889.303606266379
3158.25,887.189374808712
3158.5,885.347587633717
3158.75,883.930304346706
3159,883.074977533572
3159.25,882.877984223436
3159.5,883.16937596742
3159.75,883.672998163339
3160,884.113887474502
3160.25,884.322476500112
3160.5,884.303424743292
3160.75,884.077724714224
3161,883.700488872976
3161.25,883.501772690077
3161.5,883.944374675947
3161.75,885.488554300009
3162,888.126609217786
3162.25,890.90973275611
3162.5,892.776349783824
3162.75,892.786004762809
3163,891.260317818923
3163.25,889.270816671256
3163.5,887.89837186333
3163.75,887.821626741845
3164,888.609110772413
3164.25,889.639462017304
3164.5,890.321247762361
3164.75,890.561746624376
3165,890.67995627945
3165.25,891.007204167073
3165.5,891.718261926966
3165.75,892.386304851267
3166,892.440025583725
3166.25,891.330286743736
3166.5,889.163072888681
3166.75,886.792032487879
3167,885.111593736399
3167.25,884.842911661415
3167.5,885.715009649486
3167.75,887.104403733804
3168,888.391218736512
3168.25,889.183951723036
3168.5,889.437532640859
3168.75,889.135827497214
3169,888.298408622051
3169.25,887.217894629205
3169.5,886.312960463405
3169.75,886.000524739123
3170,886.348139775672
3170.25,886.713136616601
3170.5,886.36664097668
3170.75,884.68972536121
3171,882.241465837972
3171.25,880.295948666479
3171.5,880.135702794275
3171.75,882.265002611116
3172,885.16112190713
3172.25,886.975514271415
3172.5,886.021701016034
3172.75,882.809568570032
3173,879.42996338295
3173.25,878.008185582876
3173.5,879.736401030258
3173.75,882.844268026556
3174,884.974881574587
3174.25,883.920599015694
3174.5,880.043667716993
3174.75,875.872226327143
3175,874.002120848077
3175.25,876.143721504203
3175.5,880.726073528589
3175.75,885.418308098626
3176,887.988506733536
3176.25,888.193822126164
3176.5,887.63310423966
3176.75,887.974623833125
3177,890.404929642632
3177.25,894.073768426128
3177.5,897.592658478542
3177.75,899.61414614736
3178,900.139273075016
3178.25,900.790184246538
3178.5,903.28515756586
3178.75,908.970639477764
3179,916.722694486491
3179.25,924.410186822357
3179.5,929.904632269153
3179.75,932.039189630736
3180,931.689977594948
3180.25,929.994309168223
3180.5,928.069974220073
3180.75,926.588992026952
3181,925.779415753995
3181.25,925.850136327622
3181.5,926.91864300711
3181.75,928.394700058008
3182,929.357810093527
3182.25,928.885780751877
3182.5,926.438131517718
3182.75,922.671649280503
3183,918.477240721451
3183.25,914.739977206198
3183.5,912.064149067195
3183.75,910.654615887464
3184,910.685743974322
3184.25,912.266173077073
3184.5,914.829787567235
3184.75,917.414115899523
3185,919.051676184092
3185.25,919.062354368111
3185.5,917.733641931889
3185.75,915.55647025246
3186,913.016925406535
3186.25,910.390546228213
3186.5,907.665787696723
3186.75,904.810489351136
3187,901.809784917227
3187.25,898.812224291156
3187.5,896.056295984673
3187.75,893.78130819441
3188,892.107611197005
3188.25,890.81190357795
3188.5,889.60919336978
3188.75,888.228237293074
3189,886.669134814278
3189.25,885.180515927948
3189.5,884.020185840555
3189.75,883.394639400182
3190,883.290900847555
3190.25,883.637326273177
3190.5,884.35986910637
3190.75,885.310553882114
3191,886.255313676344
3191.25,886.955229300338
3191.5,887.243977259732
3191.75,887.341142512749
3192,887.594041075969
3192.25,888.339690382749
3192.5,889.388965591488
3192.75,889.788435208728
3193,888.524562568125
3193.25,884.913610227029
3193.5,880.665107967527
3193.75,878.544217345354
3194,881.305975224653
3194.25,889.98474356036
3194.5,902.306977399887
3194.75,915.623763178031
3195,927.455591002987
3195.25,936.880261933907
3195.5,943.813964678429
3195.75,948.180993453571
3196,949.959405826324
3196.25,949.308219421496
3196.5,946.424484302348
3196.75,941.509085348805
3197,935.161928736374
3197.25,928.725172827954
3197.5,923.621862027423
3197.75,921.218049702797
3198,921.52976503347
3198.25,923.200851861235
3198.5,924.813730393883
3198.75,925.136748033875
3199,924.287197245341
3199.25,922.97725993307
3199.5,921.921435570324
3199.75,921.508021355427
3200,921.172289094292
3200.25,920.176394973717
3200.5,917.79965222014
3200.75,913.923249488742
3201,909.174525108892
3201.25,904.227247579121
3201.5,899.741032090906
3201.75,896.248879784442
3202,894.217116912802
3202.25,894.111378129596
3202.5,896.335198802417
3202.75,901.122921569423
3203,908.680342876763
3203.25,919.147149039869
3203.5,931.46744579936
3203.75,943.546497890624
3204,953.255002017749
3204.25,958.937696846108
3204.5,961.489001914599
3204.75,962.656825758899
3205,964.189362879235
