2245,43.0987996356037
2245.25,43.0138952896415
2245.5,42.9289909436793
2245.75,42.8440865977172
2246,42.759182251755
2246.25,42.6742779057928
2246.5,42.5893735598306
2246.75,42.5044692138684
2247,42.4195648679063
2247.25,42.3346605219441
2247.5,42.2497561759819
2247.75,42.1648518300197
2248,42.0799474840576
2248.25,41.9950431380954
2248.5,41.9101387921332
2248.75,41.8252344461712
2249,41.7719200471572
2249.25,41.731965060822
2249.5,41.6920100744869
2249.75,41.6520550881518
2250,41.6121001018166
2250.25,41.5721451154815
2250.5,41.5321901291463
2250.75,41.4922351428112
2251,41.452280156476
2251.25,41.4123251701409
2251.5,41.3723701838058
2251.75,41.3324151974706
2252,41.2924602111355
2252.25,41.2525052248003
2252.5,41.2125502384653
2252.75,41.1725952521301
2253,41.132640265795
2253.25,41.0926852794598
2253.5,41.0527302931247
2253.75,41.0127753067896
2254,41.0815390386368
2254.25,41.2014039976422
2254.5,41.3212689566476
2254.75,41.441133915653
2255,41.5609988746585
2255.25,41.6808638336639
2255.5,41.8007287926693
2255.75,41.9205937516748
2256,42.0404587106802
2256.25,42.1603236696856
2256.5,42.2801886286908
2256.75,42.4000535876962
2257,42.5199185467017
2257.25,42.6397835057071
2257.5,42.7596484647125
2257.75,42.8795134237179
2258,42.9993783827234
2258.25,43.1192433417288
2258.5,43.2391083007342
2258.75,43.3589732597396
2259,43.4394191093725
2259.25,43.4993515888753
2259.5,43.559284068378
2259.75,43.6192165478807
2260,43.6791490273834
2260.25,43.739081506886
2260.5,43.7990139863887
2260.75,43.8589464658914
2261,43.9188789453941
2261.25,43.9788114248968
2261.5,44.0387439043996
2261.75,44.0986763839023
2262,44.158608863405
2262.25,44.2185413429077
2262.5,44.2784738224104
2262.75,44.3384063019131
2263,44.3983387814158
2263.25,44.4582712609186
2263.5,44.5182037404213
2263.75,44.578136219924
2264,44.5777932586678
2264.25,44.5428326456246
2264.5,44.5078720325813
2264.75,44.4729114195381
2265,44.4379508064948
2265.25,44.4029901934516
2265.5,44.3680295804083
2265.75,44.3330689673651
2266,44.2981083543218
2266.25,44.2631477412786
2266.5,44.2281871282353
2266.75,44.1932265151921
2267,44.1582659021488
2267.25,44.1233052891056
2267.5,44.0883446760623
2267.75,44.0533840630191
2268,44.0184234499759
2268.25,43.9834628369326
2268.5,43.9485022238894
2268.75,43.9135416108461
2269,43.8510422806923
2269.25,43.7711323080221
2269.5,43.6912223353518
2269.75,43.6113123626815
2270,43.5314023900112
2270.25,43.4514924173409
2270.5,43.3715824446706
2270.75,43.2916724720004
2271,43.2117624993301
2271.25,43.1318525266598
2271.5,43.0519425539895
2271.75,42.9720325813192
2272,42.8921226086491
2272.25,42.8122126359788
2272.5,42.7323026633085
2272.75,42.6523926906382
2273,42.5724827179679
2273.25,42.4925727452977
2273.5,42.4126627726274
2273.75,42.3327527999571
2274,42.3442098494186
2274.25,42.419125448797
2274.5,42.4940410481754
2274.75,42.5689566475538
2275,42.6438722469322
2275.25,42.7187878463106
2275.5,42.793703445689
2275.75,42.8686190450672
2276,42.9435346444456
2276.25,43.018450243824
2276.5,43.0933658432024
2276.75,43.1682814425808
2277,43.2431970419592
2277.25,43.3181126413376
2277.5,43.393028240716
2277.75,43.4679438400944
2278,43.5428594394728
2278.25,43.6177750388511
2278.5,43.6926906382295
2278.75,43.7676062376079
2279,43.7574781630137
2279.25,43.6825625636353
2279.5,43.607646964257
2279.75,43.5327313648786
2280,43.4578157655003
2280.25,43.3829001661219
2280.5,43.3079845667435
2280.75,43.2330689673651
2281,43.1581533679867
2281.25,43.0832377686083
2281.5,43.0083221692299
2281.75,42.9334065698515
2282,42.8584909704731
2282.25,42.7835753710947
2282.5,42.7086597717163
2282.75,42.6337441723379
2283,42.5588285729596
2283.25,42.4839129735812
2283.5,42.4089973742029
2283.75,42.3340817748245
2284,42.3353893146134
2284.25,42.400316167408
2284.5,42.4652430202026
2284.75,42.5301698729972
2285,42.5950967257918
2285.25,42.6600235785864
2285.5,42.724950431381
2285.75,42.7898772841756
2286,42.8548041369702
2286.25,42.9197309897648
2286.5,42.9846578425594
2286.75,43.049584695354
2287,43.1145115481486
2287.25,43.1794384009431
2287.5,43.2443652537377
2287.75,43.3092921065323
2288,43.3742189593269
2288.25,43.4391458121215
2288.5,43.5040726649162
2288.75,43.5689995177108
2289,43.5321472589893
2289.25,43.4022935534001
2289.5,43.2724398478109
2289.75,43.1425861422216
2290,43.0127324366324
2290.25,42.8828787310432
2290.5,42.753025025454
2290.75,42.6231713198648
2291,42.4933176142756
2291.25,42.3634639086866
2291.5,42.2336102030974
2291.75,42.1037564975082
2292,41.973902791919
2292.25,41.8440490863298
2292.5,41.7141953807405
2292.75,41.5843416751513
2293,41.4544879695621
2293.25,41.3246342639729
2293.5,41.1947805583837
2293.75,41.0649268527945
2294,40.9675365736026
2294.25,40.902609720808
2294.5,40.8376828680134
2294.75,40.7727560152188
2295,40.7078291624243
2295.25,40.6429023096297
2295.5,40.5779754568351
2295.75,40.5130486040405
2296,40.4481217512459
2296.25,40.3831948984513
2296.5,40.3182680456567
2296.75,40.2533411928621
2297,40.1884143400675
2297.25,40.1234874872729
2297.5,40.0585606344783
2297.75,39.9936337816837
2298,39.9287069288891
2298.25,39.8637800760945
2298.5,39.7988532232999
2298.75,39.7339263705052
2299,39.7310004822892
2299.25,39.7959273350839
2299.5,39.8608541878785
2299.75,39.9257810406731
2300,39.9907078934677
2300.25,40.0556347462623
2300.5,40.1205615990569
2300.75,40.1854884518515
2301,40.2504153046461
2301.25,40.3153421574407
2301.5,40.3802690102353
2301.75,40.4451958630299
2302,40.5101227158245
2302.25,40.5750495686191
2302.5,40.6399764214137
2302.75,40.7049032742082
2303,40.7698301270028
2303.25,40.8347569797974
2303.5,40.899683832592
2303.75,40.9646106853866
2304,40.9977278816784
2304.25,40.9927335083865
2304.5,40.9877391350946
2304.75,40.9827447618027
2305,40.9777503885108
2305.25,40.9727560152189
2305.5,40.967761641927
2305.75,40.9627672686351
2306,40.9577728953432
2306.25,40.9527785220513
2306.5,40.9477841487594
2306.75,40.9427897754676
2307,40.9377954021757
2307.25,40.9328010288838
2307.5,40.9278066555919
2307.75,40.9228122823
2308,40.9178179090081
2308.25,40.9128235357162
2308.5,40.9078291624243
2308.75,40.9028347891324
2309,40.9431916831896
2309.25,41.0430791490275
2309.5,41.1429666148653
2309.75,41.2428540807032
2310,41.342741546541
2310.25,41.4426290123789
2310.5,41.5425164782166
2310.75,41.6424039440544
2311,41.7422914098923
2311.25,41.8421788757301
2311.5,41.942066341568
2311.75,42.0419538074058
2312,42.1418412732437
2312.25,42.2417287390816
2312.5,42.3416162049194
2312.75,42.4415036707573
2313,42.5413911365951
2313.25,42.641278602433
2313.5,42.7411660682708
2313.75,42.8410535341087
2314,42.8508708000642
2314.25,42.7310058410589
2314.5,42.6111408820535
2314.75,42.4912759230481
2315,42.3714109640427
2315.25,42.2515460050372
2315.5,42.1316810460318
2315.75,42.0118160870264
2316,41.891951128021
2316.25,41.7720861690155
2316.5,41.6522212100101
2316.75,41.5323562510047
2317,41.4124912919992
2317.25,41.2926263329938
2317.5,41.1727613739884
2317.75,41.052896414983
2318,40.9330314559775
2318.25,40.8131664969723
2318.5,40.6933015379669
2318.75,40.5734365789615
2319,40.4787203258132
2319.25,40.4237822196024
2319.5,40.3688441133916
2319.75,40.3139060071807
2320,40.2589679009699
2320.25,40.2040297947591
2320.5,40.1490916885483
2320.75,40.0941535823374
2321,40.0392154761266
2321.25,39.9842773699158
2321.5,39.929339263705
2321.75,39.8744011574942
2322,39.8194630512834
2322.25,39.7645249450726
2322.5,39.7095868388618
2322.75,39.654648732651
2323,39.5997106264402
2323.25,39.5447725202293
2323.5,39.4898344140185
2323.75,39.4348963078077
2324,39.394534054981
2324.25,39.3795509351053
2324.5,39.3645678152296
2324.75,39.3495846953539
2325,39.3346015754783
2325.25,39.3196184556026
2325.5,39.3046353357269
2325.75,39.2896522158512
2326,39.2746690959756
2326.25,39.2596859760999
2326.5,39.2447028562242
2326.75,39.2297197363485
2327,39.2147366164729
2327.25,39.1997534965972
2327.5,39.1847703767215
2327.75,39.1697872568458
2328,39.1548041369701
2328.25,39.1398210170945
2328.5,39.1248378972188
2328.75,39.1098547773431
2329,39.1222228176411
2329.25,39.1871496704358
2329.5,39.2520765232304
2329.75,39.3170033760248
2330,39.3819302288194
2330.25,39.4468570816141
2330.5,39.5117839344087
2330.75,39.5767107872033
2331,39.6416376399979
2331.25,39.7065644927925
2331.5,39.7714913455871
2331.75,39.8364181983817
2332,39.9013450511763
2332.25,39.9662719039709
2332.5,40.0311987567655
2332.75,40.0961256095601
2333,40.1610524623547
2333.25,40.2259793151493
2333.5,40.2909061679439
2333.75,40.3558330207384
2334,40.4399228337174
2334.25,40.5647821660147
2334.5,40.689641498312
2334.75,40.8145008306093
2335,40.9393601629066
2335.25,41.064219495204
2335.5,41.1890788275013
2335.75,41.3139381597986
2336,41.4387974920959
2336.25,41.5636568243932
2336.5,41.6885161566905
2336.75,41.8133754889879
2337,41.9382348212852
2337.25,42.0630941535825
2337.5,42.1879534858796
2337.75,42.3128128181769
2338,42.4376721504742
2338.25,42.5625314827716
2338.5,42.6873908150689
2338.75,42.8122501473662
2339,42.8703124162692
2339.25,42.7704249504313
2339.5,42.6705374845935
2339.75,42.5706500187556
2340,42.4707625529178
2340.25,42.3708750870799
2340.5,42.2709876212421
2340.75,42.1711001554042
2341,42.0712126895663
2341.25,41.9713252237285
2341.5,41.8714377578908
2341.75,41.771550292053
2342,41.6716628262151
2342.25,41.5717753603773
2342.5,41.4718878945394
2342.75,41.3720004287015
2343,41.2721129628637
2343.25,41.1722254970258
2343.5,41.072338031188
2343.75,40.9724505653501
2344,40.8657038743903
2344.25,40.740844542093
2344.5,40.6159852097957
2344.75,40.4911258774984
2345,40.3662665452011
2345.25,40.241407212904
2345.5,40.1165478806066
2345.75,39.9916885483093
2346,39.866829216012
2346.25,39.7419698837147
2346.5,39.6171105514174
2346.75,39.49225121912
2347,39.3673918868227
2347.25,39.2425325545254
2347.5,39.1176732222281
2347.75,38.9928138899308
2348,38.8679545576334
2348.25,38.7430952253361
2348.5,38.6182358930388
2348.75,38.4933765607415
2349,38.3861475805155
2349.25,38.3312094743047
2349.5,38.2762713680939
2349.75,38.2213332618831
2350,38.1663951556722
2350.25,38.1114570494614
2350.5,38.0565189432506
2350.75,38.0015808370398
2351,37.946642730829
2351.25,37.8917046246182
2351.5,37.8367665184073
2351.75,37.7818284121965
2352,37.7268903059857
2352.25,37.6719521997749
2352.5,37.617014093564
2352.75,37.5620759873532
2353,37.5071378811425
2353.25,37.4521997749317
2353.5,37.3972616687209
2353.75,37.34232356251
2354,37.2988532232999
2354.25,37.293858850008
2354.5,37.2888644767161
2354.75,37.2838701034242
2355,37.2788757301324
2355.25,37.2738813568405
2355.5,37.2688869835486
2355.75,37.2638926102567
2356,37.2588982369648
2356.25,37.2539038636729
2356.5,37.248909490381
2356.75,37.2439151170891
2357,37.2389207437972
2357.25,37.2339263705053
2357.5,37.2289319972134
2357.75,37.2239376239216
2358,37.2189432506297
2358.25,37.2139488773378
2358.5,37.2089545040459
2358.75,37.203960130754
2359,37.2424039440546
2359.25,37.4471732490222
2359.5,37.6519425539898
2359.75,37.8567118589574
2360,38.061481163925
2360.25,38.2662504688926
2360.5,38.4710197738602
2360.75,38.6757890788274
2361,38.880558383795
2361.25,39.0853276887626
2361.5,39.2900969937303
2361.75,39.4948662986979
2362,39.6996356036655
2362.25,39.9044049086331
2362.5,40.1091742136007
2362.75,40.3139435185683
2363,40.5187128235359
2363.25,40.7234821285035
2363.5,40.9282514334711
2363.75,41.1330207384387
2364,41.319355875891
2364.25,41.4242377150208
2364.5,41.5291195541503
2364.75,41.6340013932801
2365,41.7388832324098
2365.25,41.8437650715396
2365.5,41.9486469106693
2365.75,42.0535287497991
2366,42.1584105889288
2366.25,42.2632924280586
2366.5,42.3681742671883
2366.75,42.4730561063181
2367,42.5779379454478
2367.25,42.6828197845776
2367.5,42.7877016237073
2367.75,42.8925834628371
2368,42.9974653019668
2368.25,43.1023471410966
2368.5,43.2072289802261
2368.75,43.3121108193559
2369,43.3983816515728
2369.25,43.388392904989
2369.5,43.3784041584052
2369.75,43.3684154118214
2370,43.3584266652377
2370.25,43.3484379186539
2370.5,43.3384491720701
2370.75,43.3284604254863
2371,43.3184716789025
2371.25,43.3084829323187
2371.5,43.2984941857349
2371.75,43.2885054391512
2372,43.2785166925674
2372.25,43.2685279459836
2372.5,43.2585391993998
2372.75,43.248550452816
2373,43.2385617062323
2373.25,43.2285729596485
2373.5,43.2185842130647
2373.75,43.2085954664809
2374,43.2
2374.25,43.2
2374.5,43.2
2374.75,43.2
2375,43.2
2375.25,43.2
2375.5,43.2
2375.75,43.2
2376,43.2
2376.25,43.2
2376.5,43.2
2376.75,43.2
2377,43.2
2377.25,43.2
2377.5,43.2
2377.75,43.2
2378,43.2
2378.25,43.2
2378.5,43.2
2378.75,43.2
2379,43.2005841058893
2379.25,43.2055784791812
2379.5,43.2105728524731
2379.75,43.215567225765
2380,43.2205615990569
2380.25,43.2255559723488
2380.5,43.2305503456406
2380.75,43.2355447189325
2381,43.2405390922244
2381.25,43.2455334655163
2381.5,43.2505278388082
2381.75,43.2555222121001
2382,43.260516585392
2382.25,43.2655109586839
2382.5,43.2705053319758
2382.75,43.2754997052677
2383,43.2804940785596
2383.25,43.2854884518515
2383.5,43.2904828251434
2383.75,43.2954771984352
2384,43.3051872889984
2384.25,43.3601253952093
2384.5,43.4150635014201
2384.75,43.4700016076309
2385,43.5249397138417
2385.25,43.5798778200525
2385.5,43.6348159262634
2385.75,43.6897540324742
2386,43.744692138685
2386.25,43.7996302448958
2386.5,43.8545683511066
2386.75,43.9095064573175
2387,43.9644445635283
2387.25,44.0193826697391
2387.5,44.0743207759499
2387.75,44.1292588821606
2388,44.1841969883715
2388.25,44.2391350945823
2388.5,44.2940732007931
2388.75,44.3490113070039
2389,44.3960505867853
2389.25,44.3411124805744
2389.5,44.2861743743636
2389.75,44.2312362681528
2390,44.176298161942
2390.25,44.1213600557312
2390.5,44.0664219495203
2390.75,44.0114838433095
2391,43.9565457370987
2391.25,43.9016076308879
2391.5,43.8466695246772
2391.75,43.7917314184663
2392,43.7367933122555
2392.25,43.6818552060447
2392.5,43.6269170998339
2392.75,43.571978993623
2393,43.5170408874122
2393.25,43.4621027812014
2393.5,43.4071646749906
2393.75,43.3522265687798
2394,43.2965489523605
2394.25,43.226627726274
2394.5,43.1567065001875
2394.75,43.086785274101
2395,43.0168640480145
2395.25,42.946942821928
2395.5,42.8770215958416
2395.75,42.8071003697551
2396,42.7371791436686
2396.25,42.6672579175821
2396.5,42.5973366914956
2396.75,42.5274154654091
2397,42.4574942393226
2397.25,42.3875730132361
2397.5,42.3176517871496
2397.75,42.2477305610631
2398,42.1778093349766
2398.25,42.1078881088901
2398.5,42.0379668828036
2398.75,41.9680456567171
2399,41.8981244306306
2399.25,41.8282032045443
2399.5,41.7582819784578
2399.75,41.6883607523713
2400,41.6184395262848
2400.25,41.5485183001983
2400.5,41.4785970741118
2400.75,41.4086758480253
2401,41.3387546219388
2401.25,41.2688333958523
2401.5,41.1989121697658
2401.75,41.1289909436793
2402,41.0590697175928
2402.25,40.9891484915063
2402.5,40.9192272654198
2402.75,40.8493060393333
2403,40.7793848132468
2403.25,40.7094635871604
2403.5,40.6395423610739
2403.75,40.5696211349874
2404,40.4997642141364
2404.25,40.4448261079256
2404.5,40.3898880017148
2404.75,40.334949895504
2405,40.2800117892931
2405.25,40.2250736830823
2405.5,40.1701355768715
2405.75,40.1151974706607
2406,40.0602593644499
2406.25,40.005321258239
2406.5,39.9503831520282
2406.75,39.8954450458174
2407,39.8405069396067
2407.25,39.7855688333959
2407.5,39.730630727185
2407.75,39.6756926209742
2408,39.6207545147634
2408.25,39.5658164085526
2408.5,39.5108783023418
2408.75,39.4559401961309
2409,39.4010020899201
2409.25,39.4049032742082
2409.5,39.4098976475001
2409.75,39.414892020792
2410,39.4198863940839
2410.25,39.4248807673758
2410.5,39.4298751406677
2410.75,39.4348695139596
2411,39.4398638872515
2411.25,39.4448582605434
2411.5,39.4498526338353
2411.75,39.4548470071272
2412,39.4598413804191
2412.25,39.464835753711
2412.5,39.4698301270028
2412.75,39.4748245002947
2413,39.4798188735866
2413.25,39.4848132468785
2413.5,39.4898076201704
2413.75,39.4948019934623
2414,39.4997963667542
2414.25,39.7012110819359
2414.5,39.9109747601954
2414.75,40.1207384384545
2415,40.330502116714
2415.25,40.5402657949735
2415.5,40.750029473233
2415.75,40.9597931514924
2416,41.1695568297519
2416.25,41.3793205080114
2416.5,41.5890841862709
2416.75,41.7988478645304
2417,42.0086115427899
2417.25,42.2183752210494
2417.5,42.4281388993089
2417.75,42.6379025775684
2418,42.8476662558279
2418.25,43.0574299340874
2418.5,43.2671936123465
2418.75,43.476957290606
2419,43.6867209688655
2419.25,43.7608166764911
2419.5,43.8257435292857
2419.75,43.8906703820803
2420,43.9555972348749
2420.25,44.0205240876695
2420.5,44.0854509404641
2420.75,44.1503777932587
2421,44.2153046460533
2421.25,44.2802314988479
2421.5,44.3451583516425
2421.75,44.4100852044371
2422,44.4750120572317
2422.25,44.5399389100264
2422.5,44.6048657628208
2422.75,44.6697926156154
2423,44.73471946841
2423.25,44.7996463212047
2423.5,44.8645731739993
2423.75,44.9295000267939
2424,44.9944268795885
2424.25,44.8447671614596
2424.5,44.6749584695353
2424.75,44.5051497776109
2425,44.3353410856866
2425.25,44.1655323937622
2425.5,43.9957237018379
2425.75,43.8259150099135
2426,43.6561063179892
2426.25,43.4862976260651
2426.5,43.3164889341408
2426.75,43.1466802422164
2427,42.9768715502921
2427.25,42.8070628583677
2427.5,42.6372541664433
2427.75,42.467445474519
2428,42.2976367825946
2428.25,42.1278280906703
2428.5,41.9580193987459
2428.75,41.7882107068216
2429,41.6184020148972
2429.25,41.5510154868442
2429.5,41.4960773806333
2429.75,41.4411392744225
2430,41.3862011682117
2430.25,41.331263062001
2430.5,41.2763249557902
2430.75,41.2213868495793
2431,41.1664487433685
2431.25,41.1115106371577
2431.5,41.0565725309469
2431.75,41.0016344247361
2432,40.9466963185252
2432.25,40.8917582123144
2432.5,40.8368201061036
2432.75,40.7818819998928
2433,40.726943893682
2433.25,40.6720057874711
2433.5,40.6170676812603
2433.75,40.5621295750495
2434,40.5071914688388
2434.25,40.4913187932051
2434.5,40.4813300466213
2434.75,40.4713413000375
2435,40.4613525534537
2435.25,40.4513638068699
2435.5,40.4413750602862
2435.75,40.4313863137024
2436,40.4213975671186
2436.25,40.4114088205348
2436.5,40.401420073951
2436.75,40.3914313273672
2437,40.3814425807834
2437.25,40.3714538341997
2437.5,40.3614650876159
2437.75,40.3514763410321
2438,40.3414875944483
2438.25,40.3314988478645
2438.5,40.3215101012807
2438.75,40.311521354697
2439,40.3015326081132
2439.25,40.2873157922941
2439.5,40.2723326724184
2439.75,40.2573495525427
2440,40.242366432667
2440.25,40.2273833127914
2440.5,40.2124001929157
2440.75,40.19741707304
2441,40.1824339531643
2441.25,40.1674508332887
2441.5,40.152467713413
2441.75,40.1374845935373
2442,40.1225014736617
2442.25,40.107518353786
2442.5,40.0925352339103
2442.75,40.0775521140346
2443,40.0625689941589
2443.25,40.0475858742833
2443.5,40.0326027544076
2443.75,40.0176196345319
2444,40.0026365146562
2444.25,40.0658485611704
2444.5,40.1457585338407
2444.75,40.225668506511
2445,40.3055784791813
2445.25,40.3854884518516
2445.5,40.4653984245217
2445.75,40.545308397192
2446,40.6252183698623
2446.25,40.7051283425326
2446.5,40.7850383152028
2446.75,40.8649482878731
2447,40.9448582605434
2447.25,41.0247682332137
2447.5,41.104678205884
2447.75,41.1845881785543
2448,41.2644981512245
2448.25,41.3444081238948
2448.5,41.4243180965651
2448.75,41.5042280692354
2449,41.5841380419057
2449.25,41.664048014576
2449.5,41.7439579872461
2449.75,41.8238679599164
2450,41.9037779325867
2450.25,41.983687905257
2450.5,42.0635978779272
2450.75,42.1435078505975
2451,42.2234178232678
2451.25,42.3033277959381
2451.5,42.3832377686084
2451.75,42.4631477412787
2452,42.5430577139489
2452.25,42.6229676866192
2452.5,42.7028776592895
2452.75,42.7827876319598
2453,42.8626976046301
2453.25,42.9426075773002
2453.5,43.0225175499705
2453.75,43.1024275226408
2454,43.1823374953111
2454.25,43.3050426022185
2454.5,43.4398906810997
2454.75,43.5747387599808
2455,43.7095868388619
2455.25,43.844434917743
2455.5,43.9792829966241
2455.75,44.1141310755052
2456,44.2489791543863
2456.25,44.3838272332674
2456.5,44.5186753121485
2456.75,44.6535233910296
2457,44.7883714699107
2457.25,44.9232195487916
2457.5,45.0580676276727
2457.75,45.1929157065538
2458,45.3277637854349
2458.25,45.462611864316
2458.5,45.5974599431971
2458.75,45.7323080220782
2459,45.8671561009593
2459.25,45.8584427415465
2459.5,45.8035046353357
2459.75,45.7485665291249
2460,45.693628422914
2460.25,45.6386903167032
2460.5,45.5837522104924
2460.75,45.5288141042816
2461,45.4738759980709
2461.25,45.41893789186
2461.5,45.3639997856492
2461.75,45.3090616794384
2462,45.2541235732276
2462.25,45.1991854670168
2462.5,45.1442473608059
2462.75,45.0893092545951
2463,45.0343711483843
2463.25,44.9794330421735
2463.5,44.9244949359627
2463.75,44.8695568297518
2464,44.814618723541
2464.25,44.8659771716415
2464.5,44.9558758908956
2464.75,45.0457746101496
2465,45.1356733294035
2465.25,45.2255720486576
2465.5,45.3154707679117
2465.75,45.4053694871658
2466,45.4952682064198
2466.25,45.5851669256739
2466.5,45.675065644928
2466.75,45.764964364182
2467,45.8548630834361
2467.25,45.9447618026902
2467.5,46.0346605219442
2467.75,46.1245592411983
2468,46.2144579604524
2468.25,46.3043566797065
2468.5,46.3942553989605
2468.75,46.4841541182144
2469,46.5740528374685
2469.25,46.5857885429505
2469.5,46.565811049783
2469.75,46.5458335566154
2470,46.5258560634478
2470.25,46.5058785702803
2470.5,46.4859010771127
2470.75,46.4659235839451
2471,46.4459460907775
2471.25,46.42596859761
2471.5,46.4059911044424
2471.75,46.3860136112748
2472,46.3660361181073
2472.25,46.3460586249397
2472.5,46.3260811317721
2472.75,46.3061036386046
2473,46.286126145437
2473.25,46.2661486522694
2473.5,46.2461711591019
2473.75,46.2261936659343
2474,46.2062161727667
2474.25,46.1415143882964
2474.5,46.0566100423342
2474.75,45.9717056963721
2475,45.8868013504099
2475.25,45.8018970044477
2475.5,45.7169926584855
2475.75,45.6320883125234
2476,45.5471839665612
2476.25,45.462279620599
2476.5,45.377375274637
2476.75,45.2924709286748
2477,45.2075665827126
2477.25,45.1226622367504
2477.5,45.0377578907883
2477.75,44.9528535448261
2478,44.8679491988639
2478.25,44.7830448529017
2478.5,44.6981405069396
2478.75,44.6132361609774
2479,44.5283318150152
2479.25,44.326954611221
2479.5,44.0672472000426
2479.75,43.8075397888642
2480,43.5478323776857
2480.25,43.2881249665078
2480.5,43.0284175553294
2480.75,42.7687101441509
2481,42.5090027329725
2481.25,42.2492953217941
2481.5,41.9895879106157
2481.75,41.7298804994372
2482,41.4701730882588
2482.25,41.2104656770804
2482.5,40.950758265902
2482.75,40.6910508547235
2483,40.4313434435451
2483.25,40.1716360323667
2483.5,39.9119286211883
2483.75,39.6522212100098
2484,39.3925137988314
2484.25,39.2614168586893
2484.5,39.2014843791865
2484.75,39.1415518996838
2485,39.0816194201811
2485.25,39.0216869406784
2485.5,38.9617544611757
2485.75,38.901821981673
2486,38.8418895021703
2486.25,38.7819570226676
2486.5,38.7220245431648
2486.75,38.6620920636621
2487,38.6021595841594
2487.25,38.5422271046567
2487.5,38.482294625154
2487.75,38.4223621456513
2488,38.3624296661487
2488.25,38.302497186646
2488.5,38.2425647071432
2488.75,38.1826322276405
2489,38.1226997481378
2489.25,38.1031027276137
2489.5,38.1080971009056
2489.75,38.1130914741975
2490,38.1180858474894
2490.25,38.1230802207813
2490.5,38.1280745940732
2490.75,38.1330689673651
2491,38.138063340657
2491.25,38.1430577139489
2491.5,38.1480520872408
2491.75,38.1530464605327
2492,38.1580408338246
2492.25,38.1630352071165
2492.5,38.1680295804083
2492.75,38.1730239537002
2493,38.1780183269921
2493.25,38.183012700284
2493.5,38.1880070735759
2493.75,38.1930014468678
2494,38.1979958201597
2494.25,38.2657842559349
2494.5,38.3756604683566
2494.75,38.4855366807782
2495,38.5954128931999
2495.25,38.7052891056215
2495.5,38.8151653180431
2495.75,38.9250415304646
2496,39.0349177428862
2496.25,39.1447939553079
2496.5,39.2546701677295
2496.75,39.3645463801511
2497,39.4744225925728
2497.25,39.5842988049944
2497.5,39.6941750174161
2497.75,39.8040512298377
2498,39.9139274422593
2498.25,40.023803654681
2498.5,40.1336798671026
2498.75,40.2435560795243
2499,40.3534322919459
2499.25,40.3683457478162
2499.5,40.3134076416054
2499.75,40.2584695353947
2500,40.2035314291839
2500.25,40.148593322973
2500.5,40.0936552167622
2500.75,40.0387171105514
2501,39.9837790043406
2501.25,39.9288408981298
2501.5,39.8739027919189
2501.75,39.8189646857081
2502,39.7640265794973
2502.25,39.7090884732865
2502.5,39.6541503670757
2502.75,39.5992122608648
2503,39.544274154654
2503.25,39.4893360484432
2503.5,39.4343979422325
2503.75,39.3794598360217
2504,39.3245217298108
2504.25,39.3221210010182
2504.5,39.3620759873533
2504.75,39.4020309736884
2505,39.4419859600236
2505.25,39.4819409463587
2505.5,39.5218959326939
2505.75,39.561850919029
2506,39.6018059053642
2506.25,39.6417608916993
2506.5,39.6817158780344
2506.75,39.7216708643696
2507,39.7616258507047
2507.25,39.8015808370399
2507.5,39.8415358233749
2507.75,39.8814908097101
2508,39.9214457960452
2508.25,39.9614007823804
2508.5,40.0013557687155
2508.75,40.0413107550507
2509,40.0812657413858
2509.25,40.1291785006163
2509.5,40.1841166068271
2509.75,40.2390547130379
2510,40.2939928192488
2510.25,40.3489309254596
2510.5,40.4038690316704
2510.75,40.4588071378812
2511,40.513745244092
2511.25,40.5686833503028
2511.5,40.6236214565136
2511.75,40.6785595627244
2512,40.7334976689352
2512.25,40.788435775146
2512.5,40.8433738813569
2512.75,40.8983119875677
2513,40.9532500937785
2513.25,41.0081881999893
2513.5,41.0631263062001
2513.75,41.118064412411
2514,41.1730025186218
2514.25,41.2203204544237
2514.5,41.2602754407589
2514.75,41.300230427094
2515,41.3401854134291
2515.25,41.3801403997642
2515.5,41.4200953860993
2515.75,41.4600503724345
2516,41.5000053587696
2516.25,41.5399603451048
2516.5,41.5799153314399
2516.75,41.6198703177751
2517,41.6598253041102
2517.25,41.6997802904453
2517.5,41.7397352767805
2517.75,41.7796902631156
2518,41.8196452494508
2518.25,41.8596002357859
2518.5,41.8995552221211
2518.75,41.9395102084562
2519,41.9794651947913
2519.25,41.9563045924656
2519.5,41.8664058732115
2519.75,41.7765071539574
2520,41.6866084347034
2520.25,41.5967097154493
2520.5,41.5068109961952
2520.75,41.4169122769412
2521,41.3270135576871
2521.25,41.237114838433
2521.5,41.147216119179
2521.75,41.0573173999249
2522,40.9674186806708
2522.25,40.8775199614168
2522.5,40.7876212421627
2522.75,40.6977225229088
2523,40.6078238036547
2523.25,40.5179250844006
2523.5,40.4280263651466
2523.75,40.3381276458925
2524,40.2482289266384
2524.25,40.1629601843416
2524.5,40.0830502116714
2524.75,40.0031402390011
2525,39.9232302663308
2525.25,39.8433202936605
2525.5,39.7634103209902
2525.75,39.6835003483199
2526,39.6035903756497
2526.25,39.5236804029794
2526.5,39.4437704303091
2526.75,39.363860457639
2527,39.2839504849687
2527.25,39.2040405122984
2527.5,39.1241305396281
2527.75,39.0442205669578
2528,38.9643105942875
2528.25,38.8844006216172
2528.5,38.804490648947
2528.75,38.7245806762767
2529,38.6446707036064
2529.25,38.5647607309361
2529.5,38.4848507582658
2529.75,38.4049407855955
2530,38.3250308129253
2530.25,38.245120840255
2530.5,38.1652108675848
2530.75,38.0853008949145
2531,38.0053909222443
2531.25,37.925480949574
2531.5,37.8455709769037
2531.75,37.7656610042334
2532,37.6857510315631
2532.25,37.6058410588928
2532.5,37.5259310862226
2532.75,37.4460211135523
2533,37.366111140882
2533.25,37.2862011682117
2533.5,37.2062911955414
2533.75,37.1263812228711
2534,37.0464712502008
2534.25,37.0041798403087
2534.5,37.0141685868924
2534.75,37.0241573334762
2535,37.03414608006
2535.25,37.0441348266438
2535.5,37.0541235732276
2535.75,37.0641123198114
2536,37.0741010663952
2536.25,37.0840898129789
2536.5,37.0940785595627
2536.75,37.1040673061465
2537,37.1140560527303
2537.25,37.1240447993141
2537.5,37.1340335458979
2537.75,37.1440222924817
2538,37.1540110390654
2538.25,37.1639997856492
2538.5,37.173988532233
2538.75,37.1839772788168
2539,37.1939660254006
2539.25,37.2296607898827
2539.5,37.3045763892611
2539.75,37.3794919886394
2540,37.4544075880178
2540.25,37.5293231873962
2540.5,37.6042387867746
2540.75,37.679154386153
2541,37.7540699855314
2541.25,37.8289855849098
2541.5,37.9039011842882
2541.75,37.9788167836666
2542,38.053732383045
2542.25,38.1286479824232
2542.5,38.2035635818016
2542.75,38.27847918118
2543,38.3533947805584
2543.25,38.4283103799368
2543.5,38.5032259793152
2543.75,38.5781415786936
2544,38.653057178072
2544.25,38.7037297036601
2544.5,38.7137184502438
2544.75,38.7237071968276
2545,38.7336959434114
2545.25,38.7436846899952
2545.5,38.753673436579
2545.75,38.7636621831628
2546,38.7736509297465
2546.25,38.7836396763303
2546.5,38.7936284229141
2546.75,38.8036171694979
2547,38.8136059160817
2547.25,38.8235946626655
2547.5,38.8335834092492
2547.75,38.843572155833
2548,38.8535609024168
2548.25,38.8635496490006
2548.5,38.8735383955844
2548.75,38.8835271421682
2549,38.8935158887519
2549.25,38.8929907293285
2549.5,38.873013236161
2549.75,38.8530357429934
2550,38.8330582498258
2550.25,38.8130807566583
2550.5,38.7931032634907
2550.75,38.7731257703231
2551,38.7531482771556
2551.25,38.733170783988
2551.5,38.7131932908204
2551.75,38.6932157976528
2552,38.6732383044853
2552.25,38.6532608113177
2552.5,38.6332833181501
2552.75,38.6133058249826
2553,38.593328331815
2553.25,38.5733508386474
2553.5,38.5533733454798
2553.75,38.5333958523123
2554,38.5134183591447
2554.25,38.4885215154601
2554.5,38.4535609024168
2554.75,38.4186002893736
2555,38.3836396763303
2555.25,38.3486790632871
2555.5,38.3137184502438
2555.75,38.2787578372006
2556,38.2437972241573
2556.25,38.2088366111141
2556.5,38.1738759980708
2556.75,38.1389153850276
2557,38.1039547719843
2557.25,38.0689941589411
2557.5,38.0340335458979
2557.75,37.9990729328546
2558,37.9641123198114
2558.25,37.9291517067681
2558.5,37.8941910937249
2558.75,37.8592304806816
2559,37.8242698676384
2559.25,37.8229087401533
2559.5,37.8978243395317
2559.75,37.9727399389101
2560,38.0476555382885
2560.25,38.1225711376669
2560.5,38.1974867370453
2560.75,38.2724023364236
2561,38.347317935802
2561.25,38.4222335351804
2561.5,38.4971491345587
2561.75,38.5720647339371
2562,38.6469803333155
2562.25,38.7218959326939
2562.5,38.7968115320722
2562.75,38.8717271314506
2563,38.946642730829
2563.25,39.0215583302074
2563.5,39.0964739295858
2563.75,39.1713895289642
2564,39.2463051283426
2564.25,39.2830234178232
2564.5,39.2230909383205
2564.75,39.1631584588178
2565,39.1032259793151
2565.25,39.0432934998125
2565.5,38.9833610203097
2565.75,38.923428540807
2566,38.8634960613043
2566.25,38.8035635818016
2566.5,38.7436311022989
2566.75,38.6836986227962
2567,38.6237661432935
2567.25,38.5638336637908
2567.5,38.503901184288
2567.75,38.4439687047853
2568,38.3840362252826
2568.25,38.3241037457799
2568.5,38.2641712662772
2568.75,38.2042387867745
2569,38.1443063072718
2569.25,38.0856760087884
2569.5,38.0307379025776
2569.75,37.9757997963668
2570,37.9208616901559
2570.25,37.8659235839451
2570.5,37.8109854777343
2570.75,37.7560473715235
2571,37.7011092653127
2571.25,37.6461711591018
2571.5,37.591233052891
2571.75,37.5362949466802
2572,37.4813568404694
2572.25,37.4264187342585
2572.5,37.3714806280477
2572.75,37.3165425218369
2573,37.2616044156262
2573.25,37.2066663094154
2573.5,37.1517282032045
2573.75,37.0967900969937
2574,37.0418519907829
2574.25,36.9821552971438
2574.5,36.9072396977654
2574.75,36.832324098387
2575,36.7574084990086
2575.25,36.6824928996302
2575.5,36.6075773002518
2575.75,36.5326617008734
2576,36.457746101495
2576.25,36.3828305021166
2576.5,36.3079149027382
2576.75,36.23299930336
2577,36.1580837039816
2577.25,36.0831681046032
2577.5,36.0082525052248
2577.75,35.9333369058464
2578,35.858421306468
2578.25,35.7835057070896
2578.5,35.7085901077112
2578.75,35.6336745083328
2579,35.5587589089545
2579.25,35.5473929585769
2579.5,35.7671453834202
2579.75,35.9868978082635
2580,36.2066502331067
2580.25,36.42640265795
2580.5,36.6461550827933
2580.75,36.8659075076362
2581,37.0856599324795
2581.25,37.3054123573227
2581.5,37.525164782166
2581.75,37.7449172070093
2582,37.9646696318526
2582.25,38.1844220566959
2582.5,38.4041744815392
2582.75,38.6239269063824
2583,38.8436793312257
2583.25,39.063431756069
2583.5,39.2831841809123
2583.75,39.5029366057556
2584,39.7226890305989
2584.25,39.9115749423933
2584.5,39.9715074218959
2584.75,40.0314399013986
2585,40.0913723809013
2585.25,40.1513048604041
2585.5,40.2112373399068
2585.75,40.2711698194095
2586,40.3311022989122
2586.25,40.3910347784149
2586.5,40.4509672579176
2586.75,40.5108997374203
2587,40.570832216923
2587.25,40.6307646964258
2587.5,40.6906971759285
2587.75,40.7506296554312
2588,40.8105621349339
2588.25,40.8704946144366
2588.5,40.9304270939392
2588.75,40.9903595734419
2589,41.0502920529446
2589.25,41.1059643105943
2589.5,41.1409249236375
2589.75,41.1758855366808
2590,41.210846149724
2590.25,41.2458067627673
2590.5,41.2807673758105
2590.75,41.3157279888538
2591,41.350688601897
2591.25,41.3856492149403
2591.5,41.4206098279835
2591.75,41.4555704410268
2592,41.49053105407
2592.25,41.5254916671132
2592.5,41.5604522801565
2592.75,41.5954128931997
2593,41.630373506243
2593.25,41.6653341192862
2593.5,41.7002947323295
2593.75,41.7352553453727
2594,41.770215958416
2594.25,41.8
2594.5,41.8
2594.75,41.8
2595,41.8
2595.25,41.8
2595.5,41.8
2595.75,41.8
2596,41.8
2596.25,41.8
2596.5,41.8
2596.75,41.8
2597,41.8
2597.25,41.8
2597.5,41.8
2597.75,41.8
2598,41.8
2598.25,41.8
2598.5,41.8
2598.75,41.8
2599,41.8
2599.25,41.7862065269813
2599.5,41.6763303145596
2599.75,41.566454102138
2600,41.4565778897166
2600.25,41.3467016772949
2600.5,41.2368254648733
2600.75,41.1269492524516
2601,41.01707304003
2601.25,40.9071968276083
2601.5,40.7973206151867
2601.75,40.6874444027651
2602,40.5775681903434
2602.25,40.4676919779218
2602.5,40.3578157655001
2602.75,40.2479395530785
2603,40.1380633406569
2603.25,40.0281871282352
2603.5,39.9183109158136
2603.75,39.8084347033919
2604,39.6985584909705
2604.25,39.6
2604.5,39.6
2604.75,39.6
2605,39.6
2605.25,39.6
2605.5,39.6
2605.75,39.6
2606,39.6
2606.25,39.6
2606.5,39.6
2606.75,39.6
2607,39.6
2607.25,39.6
2607.5,39.6
2607.75,39.6
2608,39.6
2608.25,39.6
2608.5,39.6
2608.75,39.6
2609,39.6
2609.25,39.600803815444
2609.5,39.6107925620278
2609.75,39.6207813086115
2610,39.6307700551953
2610.25,39.6407588017791
2610.5,39.6507475483629
2610.75,39.6607362949467
2611,39.6707250415305
2611.25,39.6807137881143
2611.5,39.690702534698
2611.75,39.7006912812818
2612,39.7106800278656
2612.25,39.7206687744494
2612.5,39.7306575210332
2612.75,39.740646267617
2613,39.7506350142007
2613.25,39.7606237607845
2613.5,39.7706125073683
2613.75,39.7806012539521
2614,39.7905900005359
2614.25,39.8011574942393
2614.5,39.8211349874069
2614.75,39.8411124805745
2615,39.8610899737421
2615.25,39.8810674669096
2615.5,39.9010449600772
2615.75,39.9210224532447
2616,39.9409999464123
2616.25,39.9609774395799
2616.5,39.9809549327474
2616.75,40.000932425915
2617,40.0209099190826
2617.25,40.0408874122502
2617.5,40.0608649054177
2617.75,40.0808423985853
2618,40.1008198917529
2618.25,40.1207973849204
2618.5,40.140774878088
2618.75,40.1607523712556
2619,40.1807298644232
2619.25,40.2
2619.5,40.2
2619.75,40.2
2620,40.2
2620.25,40.2
2620.5,40.2
2620.75,40.2
2621,40.2
2621.25,40.2
2621.5,40.2
2621.75,40.2
2622,40.2
2622.25,40.2
2622.5,40.2
2622.75,40.2
2623,40.2
2623.25,40.2
2623.5,40.2
2623.75,40.2
2624,40.2
2624.25,40.200128610471
2624.5,40.2101173570548
2624.75,40.2201061036386
2625,40.2300948502224
2625.25,40.2400835968062
2625.5,40.25007234339
2625.75,40.2600610899738
2626,40.2700498365575
2626.25,40.2800385831413
2626.5,40.2900273297251
2626.75,40.3000160763089
2627,40.3100048228927
2627.25,40.3199935694764
2627.5,40.3299823160602
2627.75,40.339971062644
2628,40.3499598092278
2628.25,40.3599485558116
2628.5,40.3699373023954
2628.75,40.3799260489792
2629,40.3899147955629
2629.25,40.3999035421467
2629.5,40.5434381865925
2629.75,40.6882750120574
2630,40.8331118375223
2630.25,40.9779486629872
2630.5,41.122785488452
2630.75,41.2676223139169
2631,41.4124591393816
2631.25,41.5572959648465
2631.5,41.7021327903113
2631.75,41.8469696157762
2632,41.9918064412411
2632.25,42.136643266706
2632.5,42.2814800921709
2632.75,42.4263169176358
2633,42.5711537431007
2633.25,42.7159905685656
2633.5,42.8608273940305
2633.75,43.0056642194954
2634,43.1505010449602
2634.25,43.2953378704251
2634.5,43.3
2634.75,43.3
2635,43.3
2635.25,43.3
2635.5,43.3
2635.75,43.3
2636,43.3
2636.25,43.3
2636.5,43.3
2636.75,43.3
2637,43.3
2637.25,43.3
2637.5,43.3
2637.75,43.3
2638,43.3
2638.25,43.3
2638.5,43.3
2638.75,43.3
2639,43.3
2639.25,43.3
2639.5,43.3141632281228
2639.75,43.3291463479985
2640,43.3441294678742
2640.25,43.3591125877499
2640.5,43.3740957076255
2640.75,43.3890788275012
2641,43.4040619473769
2641.25,43.4190450672526
2641.5,43.4340281871282
2641.75,43.4490113070039
2642,43.4639944268796
2642.25,43.4789775467553
2642.5,43.4939606666309
2642.75,43.5089437865066
2643,43.5239269063823
2643.25,43.538910026258
2643.5,43.5538931461337
2643.75,43.5688762660093
2644,43.583859385885
2644.25,43.5988425057607
2644.5,43.6184341675152
2644.75,43.6384116606827
2645,43.6583891538503
2645.25,43.6783666470179
2645.5,43.6983441401854
2645.75,43.718321633353
2646,43.7382991265206
2646.25,43.7582766196881
2646.5,43.7782541128557
2646.75,43.7982316060233
2647,43.8182090991908
2647.25,43.8381865923584
2647.5,43.858164085526
2647.75,43.8781415786935
2648,43.8981190718611
2648.25,43.9180965650287
2648.5,43.9380740581963
2648.75,43.9580515513638
2649,43.9780290445314
2649.25,43.998006537699
2649.5,44.0179840308665
2649.75,44.0379615240341
2650,44.0579390172017
2650.25,44.0779165103692
2650.5,44.0978940035368
2650.75,44.1178714967044
2651,44.1378489898719
2651.25,44.1578264830395
2651.5,44.1778039762071
2651.75,44.1977814693746
2652,44.2177589625422
2652.25,44.2377364557098
2652.5,44.2577139488774
2652.75,44.2776914420449
2653,44.2976689352125
2653.25,44.3176464283801
2653.5,44.3376239215476
2653.75,44.3576014147152
2654,44.3775789078827
2654.25,44.3975564010503
2654.5,44.4175338942179
2654.75,44.4375113873855
2655,44.457488880553
2655.25,44.4774663737206
2655.5,44.4974438668882
2655.75,44.5174213600557
2656,44.5373988532233
2656.25,44.5573763463909
2656.5,44.5773538395585
2656.75,44.597331332726
2657,44.6173088258936
2657.25,44.6372863190612
2657.5,44.6572638122287
2657.75,44.6772413053963
2658,44.6972187985638
2658.25,44.7171962917314
2658.5,44.737173784899
2658.75,44.7571512780666
2659,44.7771287712341
2659.25,44.7971062644017
2659.5,44.7273940303306
2659.75,44.6424896843684
2660,44.5575853384062
2660.25,44.4726809924441
2660.5,44.3877766464819
2660.75,44.3028723005197
2661,44.2179679545575
2661.25,44.1330636085954
2661.5,44.0481592626332
2661.75,43.9632549166712
2662,43.878350570709
2662.25,43.7934462247468
2662.5,43.7085418787846
2662.75,43.6236375328225
2663,43.5387331868603
2663.25,43.4538288408981
2663.5,43.3689244949359
2663.75,43.2840201489737
2664,43.1991158030116
2664.25,43.1142114570494
2664.5,43.1540592679921
2664.75,43.2189861207867
2665,43.2839129735813
2665.25,43.348839826376
2665.5,43.4137666791706
2665.75,43.4786935319651
2666,43.5436203847596
2666.25,43.6085472375543
2666.5,43.6734740903489
2666.75,43.7384009431435
2667,43.8033277959381
2667.25,43.8682546487327
2667.5,43.9331815015273
2667.75,43.9981083543219
2668,44.0630352071165
2668.25,44.1279620599111
2668.5,44.1928889127057
2668.75,44.2578157655003
2669,44.3227426182949
2669.25,44.3876694710895
2669.5,44.37977064466
2669.75,44.3547987782005
2670,44.3298269117411
2670.25,44.3048550452816
2670.5,44.2798831788221
2670.75,44.2549113123627
2671,44.2299394459032
2671.25,44.2049675794437
2671.5,44.1799957129843
2671.75,44.1550238465248
2672,44.1300519800654
2672.25,44.1050801136059
2672.5,44.0801082471464
2672.75,44.055136380687
2673,44.0301645142275
2673.25,44.005192647768
2673.5,43.9802207813086
2673.75,43.9552489148492
2674,43.9302770483897
2674.25,43.9053051819302
2674.5,43.8842666523766
2674.75,43.864289159209
2675,43.8443116660415
2675.25,43.8243341728739
2675.5,43.8043566797063
2675.75,43.7843791865388
2676,43.7644016933712
2676.25,43.7444242002036
2676.5,43.724446707036
2676.75,43.7044692138685
2677,43.6844917207009
2677.25,43.6645142275334
2677.5,43.6445367343658
2677.75,43.6245592411982
2678,43.6045817480306
2678.25,43.5846042548631
2678.5,43.5646267616955
2678.75,43.5446492685279
2679,43.5246717753604
2679.25,43.5046942821928
2679.5,43.4541503670757
2679.75,43.394217887573
2680,43.3342854080702
2680.25,43.2743529285675
2680.5,43.2144204490648
2680.75,43.1544879695621
2681,43.0945554900595
2681.25,43.0346230105568
2681.5,42.9746905310541
2681.75,42.9147580515514
2682,42.8548255720486
2682.25,42.7948930925459
2682.5,42.7349606130432
2682.75,42.6750281335405
2683,42.6150956540378
2683.25,42.5551631745351
2683.5,42.4952306950324
2683.75,42.4352982155297
2684,42.3753657360269
2684.25,42.3154332565242
2684.5,42.2962917314185
2684.75,42.2912973581266
2685,42.2863029848347
2685.25,42.2813086115428
2685.5,42.2763142382509
2685.75,42.271319864959
2686,42.2663254916671
2686.25,42.2613311183752
2686.5,42.2563367450833
2686.75,42.2513423717914
2687,42.2463479984995
2687.25,42.2413536252077
2687.5,42.2363592519158
2687.75,42.2313648786239
2688,42.226370505332
2688.25,42.2213761320401
2688.5,42.2163817587482
2688.75,42.2113873854563
2689,42.2063930121644
2689.25,42.2013986388725
2689.5,42.2791061572263
2689.75,42.3889823696479
2690,42.4988585820696
2690.25,42.6087347944912
2690.5,42.7186110069129
2690.75,42.8284872193345
2691,42.9383634317562
2691.25,43.0482396441778
2691.5,43.1581158565994
2691.75,43.2679920690211
2692,43.3778682814427
2692.25,43.4877444938644
2692.5,43.597620706286
2692.75,43.7074969187074
2693,43.8173731311291
2693.25,43.9272493435507
2693.5,44.0371255559724
2693.75,44.147001768394
2694,44.2568779808156
2694.25,44.3667541932373
2694.5,44.3582015969133
2694.75,44.2982691174106
2695,44.2383366379079
2695.25,44.1784041584052
2695.5,44.1184716789025
2695.75,44.0585391993997
2696,43.998606719897
2696.25,43.9386742403943
2696.5,43.8787417608917
2696.75,43.818809281389
2697,43.7588768018863
2697.25,43.6989443223836
2697.5,43.6390118428809
2697.75,43.5790793633781
2698,43.5191468838754
2698.25,43.4592144043727
2698.5,43.39928192487
2698.75,43.3393494453673
2699,43.2794169658646
2699.25,43.2194844863619
2699.5,43.2134826643803
2699.75,43.2334601575479
2700,43.2534376507154
2700.25,43.273415143883
2700.5,43.2933926370505
2700.75,43.3133701302181
2701,43.3333476233857
2701.25,43.3533251165532
2701.5,43.3733026097208
2701.75,43.3932801028884
2702,43.413257596056
2702.25,43.4332350892235
2702.5,43.4532125823911
2702.75,43.4731900755587
2703,43.4931675687262
2703.25,43.5131450618938
2703.5,43.5331225550614
2703.75,43.553100048229
2704,43.5730775413965
2704.25,43.5930550345641
2704.5,43.5478698890735
2704.75,43.4679599164032
2705,43.3880499437329
2705.25,43.3081399710626
2705.5,43.2282299983923
2705.75,43.1483200257221
2706,43.0684100530518
2706.25,42.9885000803815
2706.5,42.9085901077112
2706.75,42.8286801350409
2707,42.7487701623706
2707.25,42.6688601897004
2707.5,42.5889502170301
2707.75,42.5090402443598
2708,42.4291302716895
2708.25,42.3492202990194
2708.5,42.2693103263491
2708.75,42.1894003536788
2709,42.1094903810085
2709.25,42.0295804083382
2709.5,42.0157279888538
2709.75,42.0406998553132
2710,42.0656717217727
2710.25,42.0906435882322
2710.5,42.1156154546916
2710.75,42.1405873211511
2711,42.1655591876106
2711.25,42.19053105407
2711.5,42.2155029205295
2711.75,42.2404747869889
2712,42.2654466534484
2712.25,42.2904185199078
2712.5,42.3153903863673
2712.75,42.3403622528268
2713,42.3653341192862
2713.25,42.3903059857457
2713.5,42.4152778522051
2713.75,42.4402497186646
2714,42.4652215851241
2714.25,42.4901934515835
2714.5,42.4272064733936
2714.75,42.3073415143882
2715,42.1874765553827
2715.25,42.0676115963773
2715.5,41.9477466373719
2715.75,41.8278816783667
2716,41.7080167193613
2716.25,41.5881517603558
2716.5,41.4682868013504
2716.75,41.348421842345
2717,41.2285568833396
2717.25,41.1086919243341
2717.5,40.9888269653287
2717.75,40.8689620063233
2718,40.7490970473178
2718.25,40.6292320883124
2718.5,40.509367129307
2718.75,40.3895021703016
2719,40.2696372112961
2719.25,40.1497722522907
2719.5,40.0912384116607
2719.75,40.076255291785
2720,40.0612721719093
2720.25,40.0462890520337
2720.5,40.031305932158
2720.75,40.0163228122823
2721,40.0013396924066
2721.25,39.9863565725309
2721.5,39.9713734526553
2721.75,39.9563903327796
2722,39.9414072129039
2722.25,39.9264240930282
2722.5,39.9114409731525
2722.75,39.8964578532769
2723,39.8814747334012
2723.25,39.8664916135255
2723.5,39.8515084936499
2723.75,39.8365253737742
2724,39.8215422538985
2724.25,39.8065591340228
2724.5,39.8168479717057
2724.75,39.8468142114571
2725,39.8767804512084
2725.25,39.9067466909598
2725.5,39.9367129307111
2725.75,39.9666791704625
2726,39.9966454102138
2726.25,40.0266116499652
2726.5,40.0565778897166
2726.75,40.0865441294679
2727,40.1165103692193
2727.25,40.1464766089706
2727.5,40.1764428487219
2727.75,40.2064090884733
2728,40.2363753282246
2728.25,40.266341567976
2728.5,40.2963078077274
2728.75,40.3262740474787
2729,40.3562402872301
2729.25,40.3862065269814
2729.5,40.4862547559082
2729.75,40.6460747012487
2730,40.8058946465893
2730.25,40.9657145919299
2730.5,41.1255345372704
2730.75,41.285354482611
2731,41.4451744279516
2731.25,41.6049943732918
2731.5,41.7648143186324
2731.75,41.924634263973
2732,42.0844542093136
2732.25,42.2442741546541
2732.5,42.4040940999947
2732.75,42.5639140453353
2733,42.7237339906758
2733.25,42.8835539360164
2733.5,43.043373881357
2733.75,43.2031938266975
2734,43.3630137720381
2734.25,43.5228337173787
2734.5,43.6542414661595
2734.75,43.7591233052893
2735,43.864005144419
2735.25,43.9688869835486
2735.5,44.0737688226783
2735.75,44.178650661808
2736,44.2835325009378
2736.25,44.3884143400675
2736.5,44.4932961791973
2736.75,44.598178018327
2737,44.7030598574568
2737.25,44.8079416965865
2737.5,44.9128235357163
2737.75,45.017705374846
2738,45.1225872139758
2738.25,45.2274690531055
2738.5,45.3323508922353
2738.75,45.437232731365
2739,45.5421145704946
2739.25,45.6469964096243
2739.5,45.7345854991694
2739.75,45.8045067252559
2740,45.8744279513424
2740.25,45.9443491774289
2740.5,46.0142704035154
2740.75,46.0841916296019
2741,46.1541128556884
2741.25,46.2240340817749
2741.5,46.2939553078614
2741.75,46.3638765339479
2742,46.4337977600344
2742.25,46.5037189861209
2742.5,46.5736402122074
2742.75,46.6435614382937
2743,46.7134826643802
2743.25,46.7834038904667
2743.5,46.8533251165532
2743.75,46.9232463426397
2744,46.9931675687262
2744.25,47.0630887948127
2744.5,47.1165050104496
2744.75,47.1514656234929
2745,47.1864262365361
2745.25,47.2213868495794
2745.5,47.2563474626226
2745.75,47.2913080756659
2746,47.3262686887091
2746.25,47.3612293017524
2746.5,47.3961899147956
2746.75,47.4311505278388
2747,47.466111140882
2747.25,47.5010717539253
2747.5,47.5360323669685
2747.75,47.5709929800118
2748,47.605953593055
2748.25,47.6409142060983
2748.5,47.6758748191415
2748.75,47.7108354321848
2749,47.745796045228
2749.25,47.7807566582713
2749.5,47.8067359734205
2749.75,47.8217190932962
2750,47.8367022131719
2750.25,47.8516853330475
2750.5,47.8666684529232
2750.75,47.8816515727989
2751,47.8966346926746
2751.25,47.9116178125502
2751.5,47.9266009324259
2751.75,47.9415840523016
2752,47.9565671721773
2752.25,47.971550292053
2752.5,47.9865334119286
2752.75,48.0015165318043
2753,48.01649965168
2753.25,48.0314827715557
2753.5,48.0464658914313
2753.75,48.061449011307
2754,48.0764321311827
2754.25,48.0914152510584
2754.5,48.0829376775093
2754.75,48.0429826911741
2755,48.003027704839
2755.25,47.9630727185038
2755.5,47.9231177321687
2755.75,47.8831627458335
2756,47.8432077594984
2756.25,47.8032527731633
2756.5,47.7632977868281
2756.75,47.723342800493
2757,47.6833878141578
2757.25,47.6434328278227
2757.5,47.6034778414875
2757.75,47.5635228551524
2758,47.5235678688173
2758.25,47.4836128824822
2758.5,47.4436578961471
2758.75,47.4037029098119
2759,47.3637479234768
2759.25,47.3237929371416
2759.5,47.2595948770162
2759.75,47.1597074111783
2760,47.0598199453405
2760.25,46.9599324795026
2760.5,46.8600450136648
2760.75,46.7601575478269
2761,46.6602700819891
2761.25,46.5603826161512
2761.5,46.4604951503134
2761.75,46.3606076844755
2762,46.2607202186377
2762.25,46.1608327528
2762.5,46.0609452869621
2762.75,45.9610578211243
2763,45.8611703552864
2763.25,45.7612828894486
2763.5,45.6613954236107
2763.75,45.5615079577728
2764,45.461620491935
2764.25,45.3617330260971
2764.5,45.2866459460907
2764.75,45.2516853330475
2765,45.2167247200042
2765.25,45.181764106961
2765.5,45.1468034939178
2765.75,45.1118428808745
2766,45.0768822678313
2766.25,45.0419216547881
2766.5,45.0069610417448
2766.75,44.9720004287016
2767,44.9370398156583
2767.25,44.9020792026151
2767.5,44.8671185895718
2767.75,44.8321579765286
2768,44.7971973634853
2768.25,44.7622367504421
2768.5,44.7272761373988
2768.75,44.6923155243556
2769,44.6573549113123
2769.25,44.6223942982691
2769.5,44.5982048121751
2769.75,44.5932104388832
2770,44.5882160655913
2770.25,44.5832216922994
2770.5,44.5782273190076
2770.75,44.5732329457157
2771,44.5682385724238
2771.25,44.5632441991319
2771.5,44.55824982584
2771.75,44.5532554525481
2772,44.5482610792562
2772.25,44.5432667059643
2772.5,44.5382723326724
2772.75,44.5332779593805
2773,44.5282835860886
2773.25,44.5232892127967
2773.5,44.5182948395048
2773.75,44.513300466213
2774,44.5083060929211
2774.25,44.5033117196292
2774.5,44.4848561170355
2774.75,44.4399067574085
2775,44.3949573977815
2775.25,44.3500080381544
2775.5,44.3050586785274
2775.75,44.2601093189003
2776,44.2151599592733
2776.25,44.1702105996463
2776.5,44.1252612400192
2776.75,44.0803118803922
2777,44.0353625207652
2777.25,43.9904131611381
2777.5,43.9454638015112
2777.75,43.9005144418842
2778,43.8555650822571
2778.25,43.8106157226301
2778.5,43.765666363003
2778.75,43.720717003376
2779,43.675767643749
2779.25,43.6308182841219
2779.5,43.5921494024972
2779.75,43.5671775360377
2780,43.5422056695782
2780.25,43.5172338031188
2780.5,43.4922619366593
2780.75,43.4672900701999
2781,43.4423182037404
2781.25,43.4173463372809
2781.5,43.3923744708215
2781.75,43.367402604362
2782,43.3424307379026
2782.25,43.3174588714431
2782.5,43.2924870049836
2782.75,43.2675151385242
2783,43.2425432720647
2783.25,43.2175714056053
2783.5,43.1925995391458
2783.75,43.1676276726863
2784,43.1426558062269
2784.25,43.1176839397674
2784.5,43.1043727560152
2784.75,43.1193558758909
2785,43.1343389957666
2785.25,43.1493221156422
2785.5,43.1643052355179
2785.75,43.1792883553936
2786,43.1942714752693
2786.25,43.209254595145
2786.5,43.2242377150206
2786.75,43.2392208348963
2787,43.254203954772
2787.25,43.2691870746477
2787.5,43.2841701945233
2787.75,43.299153314399
2788,43.3141364342747
2788.25,43.3291195541504
2788.5,43.3441026740261
2788.75,43.3590857939017
2789,43.3740689137774
2789.25,43.3890520336531
2789.5,43.4188307164675
2789.75,43.488751942554
2790,43.5586731686405
2790.25,43.628594394727
2790.5,43.6985156208135
2790.75,43.7684368469
2791,43.8383580729865
2791.25,43.908279299073
2791.5,43.9782005251595
2791.75,44.048121751246
2792,44.1180429773325
2792.25,44.187964203419
2792.5,44.2578854295055
2792.75,44.327806655592
2793,44.3977278816783
2793.25,44.4676491077648
2793.5,44.5375703338513
2793.75,44.6074915599378
2794,44.6774127860243
2794.25,44.7473340121108
2794.5,44.8419055784792
2794.75,45.0117142704036
2795,45.181522962328
2795.25,45.3513316542523
2795.5,45.5211403461767
2795.75,45.690949038101
2796,45.8607577300254
2796.25,46.0305664219497
2796.5,46.2003751138741
2796.75,46.3701838057984
2797,46.5399924977225
2797.25,46.7098011896468
2797.5,46.8796098815712
2797.75,47.0494185734956
2798,47.2192272654199
2798.25,47.3890359573443
2798.5,47.5588446492686
2798.75,47.728653341193
2799,47.8984620331173
2799.25,48.0682707250417
2799.5,48.1552006859223
2799.75,47.9554257542466
2800,47.7556508225709
2800.25,47.5558758908952
2800.5,47.3561009592195
2800.75,47.1563260275441
2801,46.9565510958684
2801.25,46.7567761641927
2801.5,46.557001232517
2801.75,46.3572263008413
2802,46.1574513691656
2802.25,45.9576764374899
2802.5,45.7579015058142
2802.75,45.5581265741384
2803,45.3583516424627
2803.25,45.158576710787
2803.5,44.9588017791113
2803.75,44.7590268474356
2804,44.5592519157599
2804.25,44.3594769840842
2804.5,44.1959702052408
2804.75,44.1759927120733
2805,44.1560152189057
2805.25,44.1360377257382
2805.5,44.1160602325706
2805.75,44.096082739403
2806,44.0761052462355
2806.25,44.0561277530679
2806.5,44.0361502599003
2806.75,44.0161727667327
2807,43.9961952735652
2807.25,43.9762177803976
2807.5,43.95624028723
2807.75,43.9362627940625
2808,43.9162853008949
2808.25,43.8963078077273
2808.5,43.8763303145598
2808.75,43.8563528213922
2809,43.8363753282246
2809.25,43.8163978350571
2809.5,43.7633085043673
2809.75,43.5585391993997
2810,43.3537698944321
2810.25,43.1490005894645
2810.5,42.9442312844969
2810.75,42.7394619795293
2811,42.5346926745617
2811.25,42.3299233695941
2811.5,42.1251540646265
2811.75,41.9203847596589
2812,41.7156154546913
2812.25,41.5108461497241
2812.5,41.3060768447565
2812.75,41.1013075397889
2813,40.8965382348213
2813.25,40.6917689298537
2813.5,40.4869996248861
2813.75,40.2822303199185
2814,40.0774610149509
2814.25,39.8726917099833
2814.5,39.6945233374417
2814.75,39.6595627243984
2815,39.6246021113552
2815.25,39.5896414983119
2815.5,39.5546808852687
2815.75,39.5197202722254
2816,39.4847596591822
2816.25,39.449799046139
2816.5,39.4148384330958
2816.75,39.3798778200525
2817,39.3449172070093
2817.25,39.309956593966
2817.5,39.2749959809228
2817.75,39.2400353678795
2818,39.2050747548363
2818.25,39.170114141793
2818.5,39.1351535287498
2818.75,39.1001929157065
2819,39.0652323026633
2819.25,39.03027168962
2819.5,39.016746155083
2819.75,39.1416054873803
2820,39.2664648196774
2820.25,39.3913241519747
2820.5,39.516183484272
2820.75,39.6410428165693
2821,39.7659021488666
2821.25,39.890761481164
2821.5,40.0156208134613
2821.75,40.1404801457586
2822,40.2653394780559
2822.25,40.3901988103532
2822.5,40.5150581426506
2822.75,40.6399174749479
2823,40.7647768072452
2823.25,40.8896361395425
2823.5,41.0144954718398
2823.75,41.1393548041372
2824,41.2642141364342
2824.25,41.3890734687316
2824.5,41.4972134397942
2824.75,41.4722415733348
2825,41.4472697068753
2825.25,41.4222978404158
2825.5,41.3973259739564
2825.75,41.3723541074969
2826,41.3473822410374
2826.25,41.322410374578
2826.5,41.2974385081185
2826.75,41.2724666416591
2827,41.2474947751996
2827.25,41.2225229087401
2827.5,41.1975510422807
2827.75,41.1725791758212
2828,41.1476073093618
2828.25,41.1226354429023
2828.5,41.0976635764428
2828.75,41.0726917099834
2829,41.0477198435239
2829.25,41.0227479770645
2829.5,40.992438776057
2829.75,40.9075344300948
2830,40.8226300841326
2830.25,40.7377257381704
2830.5,40.6528213922083
2830.75,40.5679170462461
2831,40.4830127002839
2831.25,40.3981083543217
2831.5,40.3132040083595
2831.75,40.2282996623975
2832,40.1433953164354
2832.25,40.0584909704732
2832.5,39.973586624511
2832.75,39.8886822785488
2833,39.8037779325866
2833.25,39.7188735866245
2833.5,39.6339692406623
2833.75,39.5490648947001
2834,39.4641605487379
2834.25,39.3792562027758
2834.5,39.2986710251326
2834.75,39.278693531965
2835,39.2587160387975
2835.25,39.2387385456299
2835.5,39.2187610524624
2835.75,39.1987835592948
2836,39.1788060661272
2836.25,39.1588285729596
2836.5,39.1388510797921
2836.75,39.1188735866245
2837,39.0988960934569
2837.25,39.0789186002894
2837.5,39.0589411071218
2837.75,39.0389636139542
2838,39.0189861207867
2838.25,38.9990086276191
2838.5,38.9790311344515
2838.75,38.9590536412839
2839,38.9390761481164
2839.25,38.9190986549488
2839.5,38.908348963078
2839.75,39.09813514817
2840,39.2879213332619
2840.25,39.4777075183538
2840.5,39.6674937034457
2840.75,39.8572798885377
2841,40.0470660736296
2841.25,40.2368522587215
2841.5,40.4266384438134
2841.75,40.6164246289054
2842,40.8062108139973
2842.25,40.9959969990892
2842.5,41.1857831841811
2842.75,41.3755693692731
2843,41.565355554365
2843.25,41.7551417394566
2843.5,41.9449279245485
2843.75,42.1347141096404
2844,42.3245002947324
2844.25,42.5142864798243
2844.5,42.6998928246075
2844.75,42.6948984513156
2845,42.6899040780237
2845.25,42.6849097047318
2845.5,42.6799153314399
2845.75,42.674920958148
2846,42.6699265848561
2846.25,42.6649322115642
2846.5,42.6599378382723
2846.75,42.6549434649804
2847,42.6499490916886
2847.25,42.6449547183967
2847.5,42.6399603451048
2847.75,42.6349659718129
2848,42.629971598521
2848.25,42.6249772252291
2848.5,42.6199828519372
2848.75,42.6149884786453
2849,42.6099941053534
2849.25,42.6049997320615
2849.5,42.6000053587696
2849.75,42.6498901452227
2850,42.6998338781416
2850.25,42.7497776110606
2850.5,42.7997213439795
2850.75,42.8496650768984
2851,42.8996088098173
2851.25,42.9495525427362
2851.5,42.9994962756551
2851.75,43.049440008574
2852,43.099383741493
2852.25,43.1493274744119
2852.5,43.1992712073308
2852.75,43.2492149402498
2853,43.2991586731687
2853.25,43.3491024060876
2853.5,43.3990461390065
2853.75,43.4489898719255
2854,43.4989336048444
2854.25,43.5488773377633
2854.5,43.5988210706822
2854.75,43.5414822356787
2855,43.481549756176
2855.25,43.4216172766733
2855.5,43.3616847971706
2855.75,43.3017523176679
2856,43.2418198381651
2856.25,43.1818873586624
2856.5,43.1219548791597
2856.75,43.062022399657
2857,43.0020899201543
2857.25,42.9421574406516
2857.5,42.8822249611489
2857.75,42.8222924816461
2858,42.7623600021434
2858.25,42.7024275226407
2858.5,42.642495043138
2858.75,42.5825625636354
2859,42.5226300841327
2859.25,42.46269760463
2859.5,42.4027651251273
2859.75,42.5238626011468
2860,42.653716306736
2860.25,42.7835700123252
2860.5,42.9134237179144
2860.75,43.0432774235037
2861,43.1731311290929
2861.25,43.3029848346821
2861.5,43.4328385402713
2861.75,43.5626922458605
2862,43.6925459514497
2862.25,43.8223996570389
2862.5,43.9522533626279
2862.75,44.0821070682171
2863,44.2119607738063
2863.25,44.3418144793955
2863.5,44.4716681849848
2863.75,44.601521890574
2864,44.7313755961632
2864.25,44.8612293017524
2864.5,44.9910830073416
2864.75,44.8790632870692
2865,44.74920958148
2865.25,44.6193558758908
2865.5,44.4895021703015
2865.75,44.3596484647123
2866,44.2297947591231
2866.25,44.0999410535339
2866.5,43.9700873479449
2866.75,43.8402336423557
2867,43.7103799367665
2867.25,43.5805262311773
2867.5,43.4506725255881
2867.75,43.3208188199989
2868,43.1909651144097
2868.25,43.0611114088205
2868.5,42.9312577032312
2868.75,42.801403997642
2869,42.6715502920528
2869.25,42.5416965864636
2869.5,42.4118428808744
2869.75,42.3273779540216
2870,42.2474679813514
2870.25,42.1675580086812
2870.5,42.0876480360109
2870.75,42.0077380633407
2871,41.9278280906704
2871.25,41.8479181180001
2871.5,41.7680081453298
2871.75,41.6880981726595
2872,41.6081881999892
2872.25,41.528278227319
2872.5,41.4483682546487
2872.75,41.3684582819784
2873,41.2885483093081
2873.25,41.2086383366378
2873.5,41.1287283639675
2873.75,41.0488183912972
2874,40.968908418627
2874.25,40.8889984459568
2874.5,40.8090884732865
2874.75,40.8619688119608
2875,40.9318900380473
2875.25,41.0018112641338
2875.5,41.0717324902203
2875.75,41.1416537163068
2876,41.2115749423933
2876.25,41.2814961684798
2876.5,41.3514173945663
2876.75,41.4213386206528
2877,41.4912598467393
2877.25,41.5611810728258
2877.5,41.6311022989123
2877.75,41.7010235249988
2878,41.7709447510851
2878.25,41.8408659771716
2878.5,41.9107872032581
2878.75,41.9807084293446
2879,42.0506296554311
2879.25,42.1205508815176
2879.5,42.1904721076041
2879.75,42.1913723809013
2880,42.1813836343176
2880.25,42.1713948877338
2880.5,42.16140614115
2880.75,42.1514173945662
2881,42.1414286479824
2881.25,42.1314399013986
2881.5,42.1214511548148
2881.75,42.1114624082311
2882,42.1014736616473
2882.25,42.0914849150635
2882.5,42.0814961684797
2882.75,42.0715074218959
2883,42.0615186753121
2883.25,42.0515299287284
2883.5,42.0415411821446
2883.75,42.0315524355608
2884,42.021563688977
2884.25,42.0115749423932
2884.5,42.0015861958094
2884.75,41.9705910722898
2885,41.9356304592465
2885.25,41.9006698462033
2885.5,41.86570923316
2885.75,41.8307486201168
2886,41.7957880070736
2886.25,41.7608273940303
2886.5,41.7258667809871
2886.75,41.6909061679438
2887,41.6559455549006
2887.25,41.6209849418573
2887.5,41.5860243288141
2887.75,41.5510637157708
2888,41.5161031027276
2888.25,41.4811424896843
2888.5,41.4461818766411
2888.75,41.4112212635978
2889,41.3762606505546
2889.25,41.3413000375113
2889.5,41.3063394244681
2889.75,41.2304913991748
2890,41.1455870532126
2890.25,41.0606827072504
2890.5,40.9757783612882
2890.75,40.890874015326
2891,40.8059696693639
2891.25,40.7210653234017
2891.5,40.6361609774395
2891.75,40.5512566314773
2892,40.4663522855152
2892.25,40.381447939553
2892.5,40.2965435935908
2892.75,40.2116392476286
2893,40.1267349016665
2893.25,40.0418305557043
2893.5,39.9569262097423
2893.75,39.8720218637801
2894,39.7871175178179
2894.25,39.7022131718557
2894.5,39.6173088258936
2894.75,39.5522855152457
2895,39.492353035743
2895.25,39.4324205562403
2895.5,39.3724880767375
2895.75,39.3125555972348
2896,39.2526231177321
2896.25,39.1926906382294
2896.5,39.1327581587267
2896.75,39.072825679224
2897,39.0128931997213
2897.25,38.9529607202187
2897.5,38.8930282407159
2897.75,38.8330957612132
2898,38.7731632817105
2898.25,38.7132308022078
2898.5,38.6532983227051
2898.75,38.5933658432024
2899,38.5334333636997
2899.25,38.4735008841969
2899.5,38.4135684046942
2899.75,38.4386367290071
2900,38.488580461926
2900.25,38.5385241948449
2900.5,38.5884679277639
2900.75,38.6384116606828
2901,38.6883553936017
2901.25,38.7382991265205
2901.5,38.7882428594395
2901.75,38.8381865923584
2902,38.8881303252773
2902.25,38.9380740581963
2902.5,38.9880177911152
2902.75,39.0379615240341
2903,39.087905256953
2903.25,39.137848989872
2903.5,39.1877927227909
2903.75,39.2377364557098
2904,39.2876801886287
2904.25,39.3376239215477
2904.5,39.3875676544666
2904.75,39.4900273297253
2905,39.6098922887305
2905.25,39.7297572477359
2905.5,39.8496222067413
2905.75,39.9694871657468
2906,40.0893521247522
2906.25,40.2092170837576
2906.5,40.329082042763
2906.75,40.4489470017685
2907,40.5688119607739
2907.25,40.6886769197793
2907.5,40.8085418787847
2907.75,40.9284068377902
2908,41.0482717967956
2908.25,41.168136755801
2908.5,41.2880017148064
2908.75,41.4078666738117
2909,41.5277316328171
2909.25,41.6475965918225
2909.5,41.7674615508279
2909.75,41.8691334869514
2910,41.9640265794974
2910.25,42.0589196720433
2910.5,42.1538127645893
2910.75,42.2487058571353
2911,42.3435989496812
2911.25,42.4384920422272
2911.5,42.5333851347732
2911.75,42.6282782273191
2912,42.7231713198651
2912.25,42.818064412411
2912.5,42.912957504957
2912.75,43.0078505975028
2913,43.1027436900488
2913.25,43.1976367825947
2913.5,43.2925298751407
2913.75,43.3874229676866
2914,43.4823160602326
2914.25,43.5772091527786
2914.5,43.6721022453245
2914.75,43.6435828733722
2915,43.5636729007019
2915.25,43.4837629280317
2915.5,43.4038529553614
2915.75,43.3239429826911
2916,43.2440330100208
2916.25,43.1641230373505
2916.5,43.0842130646804
2916.75,43.0043030920101
2917,42.9243931193398
2917.25,42.8444831466695
2917.5,42.7645731739992
2917.75,42.684663201329
2918,42.6047532286587
2918.25,42.5248432559884
2918.5,42.4449332833181
2918.75,42.3650233106478
2919,42.2851133379775
2919.25,42.2052033653072
2919.5,42.125293392637
2919.75,42.0726917099833
2920,42.0327367236482
2920.25,41.9927817373131
2920.5,41.952826750978
2920.75,41.9128717646428
2921,41.8729167783077
2921.25,41.8329617919726
2921.5,41.7930068056374
2921.75,41.7530518193023
2922,41.7130968329671
2922.25,41.673141846632
2922.5,41.6331868602968
2922.75,41.5932318739617
2923,41.5532768876266
2923.25,41.5133219012914
2923.5,41.4733669149563
2923.75,41.4334119286211
2924,41.393456942286
2924.25,41.3535019559509
2924.5,41.3135469696158
2924.75,41.3033010020899
2925,41.3082953753818
2925.25,41.3132897486737
2925.5,41.3182841219656
2925.75,41.3232784952575
2926,41.3282728685494
2926.25,41.3332672418413
2926.5,41.3382616151332
2926.75,41.3432559884251
2927,41.348250361717
2927.25,41.3532447350088
2927.5,41.3582391083007
2927.75,41.3632334815926
2928,41.3682278548845
2928.25,41.3732222281764
2928.5,41.3782166014683
2928.75,41.3832109747602
2929,41.3882053480521
2929.25,41.393199721344
2929.5,41.3981940946359
2929.75,41.4573924226998
2930,41.5472911419539
2930.25,41.6371898612079
2930.5,41.727088580462
2930.75,41.8169872997161
2931,41.9068860189701
2931.25,41.9967847382242
2931.5,42.0866834574783
2931.75,42.1765821767324
2932,42.2664808959863
2932.25,42.3563796152403
2932.5,42.4462783344944
2932.75,42.5361770537485
2933,42.6260757730025
2933.25,42.7159744922566
2933.5,42.8058732115107
2933.75,42.8957719307648
2934,42.9856706500188
2934.25,43.0755693692729
2934.5,43.165468088527
2934.75,43.2215315363593
2935,43.2564921494025
2935.25,43.2914527624458
2935.5,43.326413375489
2935.75,43.3613739885323
2936,43.3963346015755
2936.25,43.4312952146187
2936.5,43.466255827662
2936.75,43.5012164407052
2937,43.5361770537485
2937.25,43.5711376667917
2937.5,43.606098279835
2937.75,43.6410588928782
2938,43.6760195059215
2938.25,43.7109801189647
2938.5,43.745940732008
2938.75,43.7809013450512
2939,43.8158619580945
2939.25,43.8508225711377
2939.5,43.885783184181
2939.75,43.9177803976207
2940,43.9477466373721
2940.25,43.9777128771234
2940.5,44.0076791168748
2940.75,44.0376453566261
2941,44.0676115963775
2941.25,44.0975778361288
2941.5,44.1275440758802
2941.75,44.1575103156316
2942,44.1874765553829
2942.25,44.2174427951343
2942.5,44.2474090348856
2942.75,44.277375274637
2943,44.3073415143883
2943.25,44.3373077541397
2943.5,44.367273993891
2943.75,44.3972402336424
2944,44.4272064733937
2944.25,44.4571727131451
2944.5,44.4871389528964
2944.75,44.4971491345587
2945,44.4921547612668
2945.25,44.4871603879749
2945.5,44.482166014683
2945.75,44.4771716413911
2946,44.4721772680992
2946.25,44.4671828948073
2946.5,44.4621885215155
2946.75,44.4571941482236
2947,44.4521997749317
2947.25,44.4472054016398
2947.5,44.4422110283479
2947.75,44.437216655056
2948,44.4322222817641
2948.25,44.4272279084722
2948.5,44.4222335351803
2948.75,44.4172391618884
2949,44.4122447885965
2949.25,44.4072504153046
2949.5,44.4022560420128
2949.75,44.3561866995337
2950,44.2762767268634
2950.25,44.1963667541932
2950.5,44.1164567815229
2950.75,44.0365468088526
2951,43.9566368361823
2951.25,43.8767268635122
2951.5,43.7968168908419
2951.75,43.7169069181716
2952,43.6369969455013
2952.25,43.557086972831
2952.5,43.4771770001607
2952.75,43.3972670274905
2953,43.3173570548202
2953.25,43.2374470821499
2953.5,43.1575371094796
2953.75,43.0776271368093
2954,42.997717164139
2954.25,42.9178071914687
2954.5,42.8378972187985
2954.75,42.797374202883
2955,42.7923798295911
2955.25,42.7873854562992
2955.5,42.7823910830073
2955.75,42.7773967097154
2956,42.7724023364236
2956.25,42.7674079631317
2956.5,42.7624135898398
2956.75,42.7574192165479
2957,42.752424843256
2957.25,42.7474304699641
2957.5,42.7424360966722
2957.75,42.7374417233803
2958,42.7324473500884
2958.25,42.7274529767965
2958.5,42.7224586035046
2958.75,42.7174642302127
2959,42.7124698569209
2959.25,42.707475483629
2959.5,42.7024811103371
2959.75,42.6773806334066
2960,42.6324312737795
2960.25,42.5874819141525
2960.5,42.5425325545255
2960.75,42.4975831948984
2961,42.4526338352714
2961.25,42.4076844756444
2961.5,42.3627351160173
2961.75,42.3177857563903
2962,42.2728363967633
2962.25,42.2278870371362
2962.5,42.1829376775092
2962.75,42.1379883178821
2963,42.0930389582552
2963.25,42.0480895986282
2963.5,42.0031402390011
2963.75,41.9581908793741
2964,41.9132415197471
2964.25,41.86829216012
2964.5,41.823342800493
2964.75,41.8480145758534
2965,41.9479020416913
2965.25,42.0477895075292
2965.5,42.147676973367
2965.75,42.2475644392049
2966,42.3474519050427
2966.25,42.4473393708806
2966.5,42.5472268367184
2966.75,42.6471143025561
2967,42.747001768394
2967.25,42.8468892342318
2967.5,42.9467767000697
2967.75,43.0466641659075
2968,43.1465516317454
2968.25,43.2464390975832
2968.5,43.3463265634211
2968.75,43.446214029259
2969,43.5461014950968
2969.25,43.6459889609347
2969.5,43.7458764267725
2969.75,43.7839826375864
2970,43.7490220245431
2970.25,43.7140614114999
2970.5,43.6791007984566
2970.75,43.6441401854134
2971,43.6091795723702
2971.25,43.5742189593269
2971.5,43.5392583462837
2971.75,43.5042977332404
2972,43.4693371201972
2972.25,43.4343765071539
2972.5,43.3994158941107
2972.75,43.3644552810674
2973,43.3294946680242
2973.25,43.2945340549809
2973.5,43.2595734419377
2973.75,43.2246128288944
2974,43.1896522158512
2974.25,43.1546916028079
2974.5,43.1197309897648
2974.75,43.069540753443
2975,42.9996195273565
2975.25,42.92969830127
2975.5,42.8597770751835
2975.75,42.789855849097
2976,42.7199346230105
2976.25,42.650013396924
2976.5,42.5800921708375
2976.75,42.510170944751
2977,42.4402497186645
2977.25,42.370328492578
2977.5,42.3004072664915
2977.75,42.230486040405
2978,42.1605648143185
2978.25,42.0906435882322
2978.5,42.0207223621457
2978.75,41.9508011360592
2979,41.8808799099727
2979.25,41.8109586838862
2979.5,41.7410374577997
2979.75,41.7041262526124
2980,41.7141149991962
2980.25,41.72410374578
2980.5,41.7340924923638
2980.75,41.7440812389476
2981,41.7540699855313
2981.25,41.7640587321151
2981.5,41.7740474786989
2981.75,41.7840362252827
2982,41.7940249718665
2982.25,41.8040137184502
2982.5,41.814002465034
2982.75,41.8239912116178
2983,41.8339799582016
2983.25,41.8439687047854
2983.5,41.8539574513692
2983.75,41.863946197953
2984,41.8739349445367
2984.25,41.8839236911205
2984.5,41.8939124377043
2984.75,41.8960988157119
2985,41.8861100691281
2985.25,41.8761213225443
2985.5,41.8661325759605
2985.75,41.8561438293768
2986,41.846155082793
2986.25,41.8361663362092
2986.5,41.8261775896254
2986.75,41.8161888430416
2987,41.8062000964579
2987.25,41.7962113498741
2987.5,41.7862226032903
2987.75,41.7762338567065
2988,41.7662451101227
2988.25,41.7562563635389
2988.5,41.7462676169551
2988.75,41.7362788703714
2989,41.7262901237876
2989.25,41.7163013772038
2989.5,41.70631263062
2989.75,41.7459514495474
2990,41.8708107818445
2990.25,41.9956701141418
2990.5,42.1205294464391
2990.75,42.2453887787364
2991,42.3702481110337
2991.25,42.4951074433311
2991.5,42.6199667756284
2991.75,42.7448261079257
2992,42.869685440223
2992.25,42.9945447725203
2992.5,43.1194041048177
2992.75,43.244263437115
2993,43.3691227694123
2993.25,43.4939821017096
2993.5,43.6188414340069
2993.75,43.743700766304
2994,43.8685600986014
2994.25,43.9934194308987
2994.5,44.118278763196
2994.75,44.1361556186699
2995,43.9513638068699
2995.25,43.7665719950698
2995.5,43.5817801832698
2995.75,43.3969883714698
2996,43.2121965596697
2996.25,43.0274047478697
2996.5,42.8426129360697
2996.75,42.6578211242697
2997,42.4730293124696
2997.25,42.2882375006696
2997.5,42.1034456888696
2997.75,41.9186538770699
2998,41.7338620652698
2998.25,41.5490702534698
2998.5,41.3642784416698
2998.75,41.1794866298697
2999,40.9946948180697
2999.25,40.8099030062697
2999.5,40.6251111944696
2999.75,40.530646803494
3000,40.62553989604
3000.25,40.7204329885859
3000.5,40.8153260811319
3000.75,40.9102191736778
3001,41.0051122662238
3001.25,41.1000053587698
3001.5,41.1948984513156
3001.75,41.2897915438615
3002,41.3846846364075
3002.25,41.4795777289534
3002.5,41.5744708214994
3002.75,41.6693639140454
3003,41.7642570065913
3003.25,41.8591500991373
3003.5,41.9540431916833
3003.75,42.0489362842292
3004,42.1438293767752
3004.25,42.2387224693211
3004.5,42.3336155618671
3004.75,42.3759927120732
3005,42.2960827394029
3005.25,42.2161727667326
3005.5,42.1362627940625
3005.75,42.0563528213922
3006,41.9764428487219
3006.25,41.8965328760516
3006.5,41.8166229033814
3006.75,41.7367129307111
3007,41.6568029580408
3007.25,41.5768929853705
3007.5,41.4969830127002
3007.75,41.4170730400299
3008,41.3371630673596
3008.25,41.2572530946894
3008.5,41.1773431220191
3008.75,41.0974331493488
3009,41.0175231766785
3009.25,40.9376132040084
3009.5,40.8577032313381
3009.75,40.7958362360002
3010,40.7808531161245
3010.25,40.7658699962489
3010.5,40.7508868763732
3010.75,40.7359037564975
3011,40.7209206366218
3011.25,40.7059375167461
3011.5,40.6909543968705
3011.75,40.6759712769948
3012,40.6609881571191
3012.25,40.6460050372434
3012.5,40.6310219173678
3012.75,40.6160387974921
3013,40.6010556776164
3013.25,40.5860725577407
3013.5,40.5710894378651
3013.75,40.5561063179894
3014,40.5411231981137
3014.25,40.526140078238
3014.5,40.5111569583624
3014.75,40.4757676437489
3015,40.380874551203
3015.25,40.285981458657
3015.5,40.1910883661111
3015.75,40.0961952735651
3016,40.0013021810191
3016.25,39.9064090884732
3016.5,39.8115159959272
3016.75,39.7166229033812
3017,39.6217298108354
3017.25,39.5268367182895
3017.5,39.4319436257435
3017.75,39.3370505331976
3018,39.2421574406516
3018.25,39.1472643481056
3018.5,39.0523712555597
3018.75,38.9574781630137
3019,38.8625850704678
3019.25,38.7676919779218
3019.5,38.6727988853758
3019.75,38.6116285300895
3020,38.6615722630085
3020.25,38.7115159959274
3020.5,38.7614597288463
3020.75,38.8114034617652
3021,38.8613471946841
3021.25,38.911290927603
3021.5,38.961234660522
3021.75,39.0111783934409
3022,39.0611221263598
3022.25,39.1110658592787
3022.5,39.1610095921977
3022.75,39.2109533251166
3023,39.2608970580355
3023.25,39.3108407909544
3023.5,39.3607845238734
3023.75,39.4107282567923
3024,39.4606719897112
3024.25,39.5106157226302
3024.5,39.5605594555491
3024.75,39.5894968115321
3025,39.5395530786132
3025.25,39.4896093456942
3025.5,39.4396656127753
3025.75,39.3897218798564
3026,39.3397781469374
3026.25,39.2898344140185
3026.5,39.2398906810996
3026.75,39.1899469481807
3027,39.1400032152617
3027.25,39.0900594823428
3027.5,39.0401157494239
3027.75,38.990172016505
3028,38.940228283586
3028.25,38.8902845506671
3028.5,38.8403408177483
3028.75,38.7903970848293
3029,38.7404533519104
3029.25,38.6905096189915
3029.5,38.6405658860725
3029.75,38.5953110765768
3030,38.5703392101173
3030.25,38.5453673436579
3030.5,38.5203954771984
3030.75,38.495423610739
3031,38.4704517442795
3031.25,38.44547987782
3031.5,38.4205080113606
3031.75,38.3955361449011
3032,38.3705642784416
3032.25,38.3455924119822
3032.5,38.3206205455228
3032.75,38.2956486790633
3033,38.2706768126038
3033.25,38.2457049461444
3033.5,38.2207330796849
3033.75,38.1957612132254
3034,38.170789346766
3034.25,38.1458174803065
3034.5,38.120845613847
3034.75,38.1066020041799
3035,38.146556990515
3035.25,38.1865119768502
3035.5,38.2264669631853
3035.75,38.2664219495204
3036,38.3063769358556
3036.25,38.3463319221907
3036.5,38.3862869085258
3036.75,38.4262418948609
3037,38.4661968811961
3037.25,38.5061518675312
3037.5,38.5461068538664
3037.75,38.5860618402015
3038,38.6260168265366
3038.25,38.6659718128718
3038.5,38.7059267992069
3038.75,38.7458817855421
3039,38.7858367718772
3039.25,38.8257917582124
3039.5,38.8657467445475
3039.75,38.9114034617653
3040,38.9913134344356
3040.25,39.0712234071057
3040.5,39.151133379776
3040.75,39.2310433524463
3041,39.3109533251166
3041.25,39.3908632977869
3041.5,39.4707732704571
3041.75,39.5506832431274
3042,39.6305932157977
3042.25,39.710503188468
3042.5,39.7904131611383
3042.75,39.8703231338086
3043,39.9502331064788
3043.25,40.0301430791491
3043.5,40.1100530518194
3043.75,40.1899630244897
3044,40.2698729971598
3044.25,40.3497829698301
3044.5,40.4296929425004
3044.75,40.5060018219817
3045,40.5559455549006
3045.25,40.6058892878195
3045.5,40.6558330207385
3045.75,40.7057767536574
3046,40.7557204865763
3046.25,40.8056642194952
3046.5,40.8556079524142
3046.75,40.9055516853331
3047,40.955495418252
3047.25,41.005439151171
3047.5,41.0553828840899
3047.75,41.1053266170087
3048,41.1552703499276
3048.25,41.2052140828466
3048.5,41.2551578157655
3048.75,41.3051015486844
3049,41.3550452816034
3049.25,41.4049890145223
3049.5,41.4549327474412
3049.75,41.4970741117839
3050,41.4671078720326
3050.25,41.4371416322812
3050.5,41.4071753925298
3050.75,41.3772091527785
3051,41.3472429130271
3051.25,41.3172766732758
3051.5,41.2873104335244
3051.75,41.2573441937731
3052,41.2273779540218
3052.25,41.1974117142704
3052.5,41.167445474519
3052.75,41.1374792347677
3053,41.1075129950163
3053.25,41.077546755265
3053.5,41.0475805155136
3053.75,41.0176142757623
3054,40.9876480360109
3054.25,40.9576817962596
3054.5,40.9277155565082
3054.75,40.9037511387386
3055,40.9536948716575
3055.25,41.0036386045765
3055.5,41.0535823374953
3055.75,41.1035260704142
3056,41.1534698033332
3056.25,41.2034135362521
3056.5,41.253357269171
3056.75,41.3033010020899
3057,41.3532447350089
3057.25,41.4031884679278
3057.5,41.4531322008467
3057.75,41.5030759337657
3058,41.5530196666846
3058.25,41.6029633996035
3058.5,41.6529071325224
3058.75,41.7028508654414
3059,41.7527945983603
3059.25,41.8027383312792
3059.5,41.852682064198
3059.75,41.8981619420181
3060,41.8632013289749
3060.25,41.8282407159316
3060.5,41.7932801028884
3060.75,41.7583194898451
3061,41.7233588768019
3061.25,41.6883982637586
3061.5,41.6534376507154
3061.75,41.6184770376721
3062,41.5835164246289
3062.25,41.5485558115856
3062.5,41.5135951985424
3062.75,41.4786345854991
3063,41.4436739724559
3063.25,41.4087133594127
3063.5,41.3737527463694
3063.75,41.3387921333262
3064,41.3038315202829
3064.25,41.2688709072397
3064.5,41.2339102941964
3064.75,41.2021006376936
3065,41.2720218637801
3065.25,41.3419430898666
3065.5,41.4118643159531
3065.75,41.4817855420396
3066,41.5517067681261
3066.25,41.6216279942126
3066.5,41.6915492202991
3066.75,41.7614704463856
3067,41.8313916724721
3067.25,41.9013128985585
3067.5,41.971234124645
3067.75,42.0411553507315
3068,42.111076576818
3068.25,42.1809978029045
3068.5,42.250919028991
3068.75,42.3208402550775
3069,42.390761481164
3069.25,42.4606827072505
3069.5,42.530603933337
3069.75,42.6000750227748
3070,42.6100637693586
3070.25,42.6200525159424
3070.5,42.6300412625261
3070.75,42.6400300091099
3071,42.6500187556937
3071.25,42.6600075022775
3071.5,42.6699962488613
3071.75,42.679984995445
3072,42.6899737420288
3072.25,42.6999624886126
3072.5,42.7099512351964
3072.75,42.7199399817802
3073,42.729928728364
3073.25,42.7399174749478
3073.5,42.7499062215315
3073.75,42.7598949681153
3074,42.7698837146991
3074.25,42.7798724612829
3074.5,42.7898612078667
3074.75,42.7998499544505
3075,42.8639515567226
3075.25,42.9288784095172
3075.5,42.9938052623118
3075.75,43.0587321151064
3076,43.123658967901
3076.25,43.1885858206956
3076.5,43.2535126734902
3076.75,43.3184395262848
3077,43.3833663790794
3077.25,43.448293231874
3077.5,43.5132200846686
3077.75,43.5781469374632
3078,43.6430737902578
3078.25,43.7080006430524
3078.5,43.7729274958471
3078.75,43.8378543486415
3079,43.9027812014361
3079.25,43.9677080542308
3079.5,44.0326349070254
3079.75,44.09756175982
3080,43.960602325706
3080.25,43.8157655002411
3080.5,43.6709286747762
3080.75,43.5260918493113
3081,43.3812550238464
3081.25,43.2364181983815
3081.5,43.0915813729166
3081.75,42.9467445474517
3082,42.8019077219868
3082.25,42.657070896522
3082.5,42.5122340710573
3082.75,42.3673972455924
3083,42.2225604201275
3083.25,42.0777235946627
3083.5,41.9328867691978
3083.75,41.7880499437329
3084,41.643213118268
3084.25,41.4983762928031
3084.5,41.3535394673382
3084.75,41.2087026418733
3085,41.073254380794
3085.25,40.9384063019129
3085.5,40.8035582230318
3085.75,40.6687101441507
3086,40.5338620652696
3086.25,40.3990139863885
3086.5,40.2641659075077
3086.75,40.1293178286266
3087,39.9944697497454
3087.25,39.8596216708643
3087.5,39.7247735919832
3087.75,39.5899255131021
3088,39.455077434221
3088.25,39.3202293553399
3088.5,39.1853812764588
3088.75,39.0505331975777
3089,38.9156851186966
3089.25,38.7808370398155
3089.5,38.6459889609344
3089.75,38.5111408820533
3090,38.4770912598467
3090.25,38.4521193933873
3090.5,38.4271475269278
3090.75,38.4021756604684
3091,38.3772037940089
3091.25,38.3522319275494
3091.5,38.32726006109
3091.75,38.3022881946305
3092,38.277316328171
3092.25,38.2523444617116
3092.5,38.2273725952521
3092.75,38.2024007287926
3093,38.1774288623332
3093.25,38.1524569958737
3093.5,38.1274851294143
3093.75,38.1025132629548
3094,38.0775413964953
3094.25,38.0525695300359
3094.5,38.0275976635764
3094.75,38.002625797117
3095,37.9955307861315
3095.25,37.9905364128396
3095.5,37.9855420395477
3095.75,37.9805476662558
3096,37.9755532929639
3096.25,37.970558919672
3096.5,37.9655645463801
3096.75,37.9605701730883
3097,37.9555757997964
3097.25,37.9505814265045
3097.5,37.9455870532126
3097.75,37.9405926799207
3098,37.9355983066288
3098.25,37.9306039333369
3098.5,37.925609560045
3098.75,37.9206151867531
3099,37.9156208134612
3099.25,37.9106264401693
3099.5,37.9056320668774
3099.75,37.9006376935856
3100,37.9304967579444
3100.25,37.9654573709877
3100.5,38.0004179840309
3100.75,38.0353785970742
3101,38.0703392101174
3101.25,38.1052998231606
3101.5,38.1402604362039
3101.75,38.1752210492471
3102,38.2101816622903
3102.25,38.2451422753336
3102.5,38.2801028883768
3102.75,38.3150635014201
3103,38.3500241144633
3103.25,38.3849847275066
3103.5,38.4199453405498
3103.75,38.4549059535931
3104,38.4898665666363
3104.25,38.5248271796796
3104.5,38.5597877927228
3104.75,38.5947484057661
3105,38.6381973098977
3105.25,38.6831466695247
3105.5,38.7280960291518
3105.75,38.7730453887787
3106,38.8179947484058
3106.25,38.8629441080328
3106.5,38.9078934676598
3106.75,38.9528428272869
3107,38.9977921869139
3107.25,39.0427415465409
3107.5,39.087690906168
3107.75,39.132640265795
3108,39.177589625422
3108.25,39.2225389850491
3108.5,39.2674883446761
3108.75,39.3124377043032
3109,39.3573870639302
3109.25,39.4023364235572
3109.5,39.4472857831842
3109.75,39.4922351428112
3110,39.5454477252023
3110.25,39.6003858314131
3110.5,39.6553239376239
3110.75,39.7102620438348
3111,39.7652001500456
3111.25,39.8201382562564
3111.5,39.8750763624672
3111.75,39.930014468678
3112,39.9849525748889
3112.25,40.0398906810997
3112.5,40.0948287873105
3112.75,40.1497668935213
3113,40.2047049997321
3113.25,40.259643105943
3113.5,40.3145812121537
3113.75,40.3695193183645
3114,40.4244574245753
3114.25,40.4793955307861
3114.5,40.534333636997
3114.75,40.5892717432078
3115,40.7205723165962
3115.25,40.870403515353
3115.5,41.0202347141098
3115.75,41.1700659128665
3116,41.3198971116233
3116.25,41.4697283103801
3116.5,41.6195595091369
3116.75,41.7693907078937
3117,41.9192219066505
3117.25,42.069053105407
3117.5,42.2188843041638
3117.75,42.3687155029205
3118,42.5185467016773
3118.25,42.6683779004341
3118.5,42.8182090991909
3118.75,42.9680402979477
3119,43.1178714967044
3119.25,43.2677026954612
3119.5,43.417533894218
3119.75,43.5673650929748
3120,43.5843738277691
3120.25,43.5643963346016
3120.5,43.544418841434
3120.75,43.5244413482664
3121,43.5044638550988
3121.25,43.4844863619313
3121.5,43.4645088687637
3121.75,43.4445313755962
3122,43.4245538824286
3122.25,43.404576389261
3122.5,43.3845988960935
3122.75,43.3646214029259
3123,43.3446439097583
3123.25,43.3246664165907
3123.5,43.3046889234232
3123.75,43.2847114302556
3124,43.264733937088
3124.25,43.2447564439205
3124.5,43.2247789507529
3124.75,43.2048014575853
3125,43.2151760355822
3125.25,43.2351535287498
3125.5,43.2551310219174
3125.75,43.2751085150849
3126,43.2950860082525
3126.25,43.3150635014201
3126.5,43.3350409945877
3126.75,43.3550184877552
3127,43.3749959809228
3127.25,43.3949734740904
3127.5,43.4149509672579
3127.75,43.4349284604255
3128,43.4549059535931
3128.25,43.4748834467607
3128.5,43.4948609399282
3128.75,43.5148384330958
3129,43.5348159262633
3129.25,43.5547934194309
3129.5,43.5747709125985
3129.75,43.594748405766
3130,43.5300519800653
3130.25,43.4351588875194
3130.5,43.3402657949734
3130.75,43.2453727024275
3131,43.1504796098815
3131.25,43.0555865173355
3131.5,42.9606934247896
3131.75,42.8658003322436
3132,42.7709072396977
3132.25,42.6760141471517
3132.5,42.5811210546057
3132.75,42.4862279620599
3133,42.391334869514
3133.25,42.296441776968
3133.5,42.201548684422
3133.75,42.1066555918761
3134,42.0117624993301
3134.25,41.9168694067842
3134.5,41.8219763142382
3134.75,41.7270832216922
3135,41.7035689405713
3135.25,41.7085633138631
3135.5,41.713557687155
3135.75,41.7185520604469
3136,41.7235464337388
3136.25,41.7285408070307
3136.5,41.7335351803226
3136.75,41.7385295536145
3137,41.7435239269064
3137.25,41.7485183001983
3137.5,41.7535126734902
3137.75,41.7585070467821
3138,41.763501420074
3138.25,41.7684957933658
3138.5,41.7734901666577
3138.75,41.7784845399496
3139,41.7834789132415
3139.25,41.7884732865334
3139.5,41.7934676598253
3139.75,41.7984620331172
3140,41.9036921922729
3140.25,42.0535233910296
3140.5,42.2033545897862
3140.75,42.3531857885429
3141,42.5030169872997
3141.25,42.6528481860565
3141.5,42.8026793848133
3141.75,42.9525105835701
3142,43.1023417823269
3142.25,43.2521729810836
3142.5,43.4020041798404
3142.75,43.5518353785972
3143,43.701666577354
3143.25,43.8514977761108
3143.5,44.0013289748676
3143.75,44.1511601736243
3144,44.3009913723811
3144.25,44.4508225711376
3144.5,44.6006537698944
3144.75,44.7504849686512
3145,44.8367825947163
3145.25,44.8917207009271
3145.5,44.9466588071379
3145.75,45.0015969133487
3146,45.0565350195595
3146.25,45.1114731257704
3146.5,45.1664112319812
3146.75,45.221349338192
3147,45.2762874444028
3147.25,45.3312255506136
3147.5,45.3861636568245
3147.75,45.4411017630353
3148,45.4960398692461
3148.25,45.5509779754568
3148.5,45.6059160816676
3148.75,45.6608541878785
3149,45.7157922940893
3149.25,45.7707304003001
3149.5,45.8256685065109
3149.75,45.8806066127217
3150,45.841835914474
3150.25,45.7519371952199
3150.5,45.6620384759658
3150.75,45.5721397567118
3151,45.4822410374577
3151.25,45.3923423182036
3151.5,45.3024435989496
3151.75,45.2125448796955
3152,45.1226461604416
3152.25,45.0327474411875
3152.5,44.9428487219334
3152.75,44.8529500026794
3153,44.7630512834253
3153.25,44.6731525641712
3153.5,44.5832538449172
3153.75,44.4933551256631
3154,44.403456406409
3154.25,44.313557687155
3154.5,44.2236589679009
3154.75,44.1337602486468
3155,44.0189110980117
3155.25,43.8890573924225
3155.5,43.7592036868333
3155.75,43.6293499812441
3156,43.4994962756551
3156.25,43.3696425700659
3156.5,43.2397888644767
3156.75,43.1099351588875
3157,42.9800814532983
3157.25,42.8502277477091
3157.5,42.7203740421199
3157.75,42.5905203365306
3158,42.4606666309414
3158.25,42.3308129253522
3158.5,42.200959219763
3158.75,42.0711055141738
3159,41.9412518085846
3159.25,41.8113981029954
3159.5,41.6815443974062
3159.75,41.5516906918172
3160,41.4398746047907
3160.25,41.3399871389529
3160.5,41.240099673115
3160.75,41.1402122072772
3161,41.0403247414393
3161.25,40.9404372756015
3161.5,40.8405498097636
3161.75,40.7406623439258
3162,40.6407748780879
3162.25,40.5408874122501
3162.5,40.4409999464122
3162.75,40.3411124805743
3163,40.2412250147365
3163.25,40.1413375488986
3163.5,40.0414500830608
3163.75,39.9415626172231
3164,39.8416751513852
3164.25,39.7417876855474
3164.5,39.6419002197095
3164.75,39.5420127538717
3165,39.5318310915814
3165.25,39.5867691977922
3165.5,39.641707304003
3165.75,39.6966454102139
3166,39.7515835164247
3166.25,39.8065216226355
3166.5,39.8614597288463
3166.75,39.9163978350571
3167,39.971335941268
3167.25,40.0262740474788
3167.5,40.0812121536895
3167.75,40.1361502599003
3168,40.1910883661111
3168.25,40.246026472322
3168.5,40.3009645785328
3168.75,40.3559026847436
3169,40.4108407909544
3169.25,40.4657788971653
3169.5,40.5207170033761
3169.75,40.5756551095869
3170,40.6472804244146
3170.25,40.7321847703768
3170.5,40.817089116339
3170.75,40.9019934623012
3171,40.9868978082634
3171.25,41.0718021542255
3171.5,41.1567065001875
3171.75,41.2416108461497
3172,41.3265151921119
3172.25,41.4114195380741
3172.5,41.4963238840363
3172.75,41.5812282299984
3173,41.6661325759606
3173.25,41.7510369219228
3173.5,41.835941267885
3173.75,41.9208456138471
3174,42.0057499598093
3174.25,42.0906543057715
3174.5,42.1755586517337
3174.75,42.2604629976958
3175,42.283987996356
3175.25,42.2540217566047
3175.5,42.2240555168533
3175.75,42.194089277102
3176,42.1641230373506
3176.25,42.1341567975993
3176.5,42.1041905578479
3176.75,42.0742243180965
3177,42.0442580783452
3177.25,42.0142918385938
3177.5,41.9843255988425
3177.75,41.9543593590911
3178,41.9243931193398
3178.25,41.8944268795884
3178.5,41.8644606398371
3178.75,41.8344944000857
3179,41.8045281603344
3179.25,41.774561920583
3179.5,41.7445956808317
3179.75,41.7146294410803
3180,41.7076683993355
3180.25,41.7226515192112
3180.5,41.7376346390869
3180.75,41.7526177589626
3181,41.7676008788382
3181.25,41.7825839987139
3181.5,41.7975671185896
3181.75,41.8125502384653
3182,41.8275333583409
3182.25,41.8425164782166
3182.5,41.8574995980923
3182.75,41.872482717968
3183,41.8874658378436
3183.25,41.9024489577193
3183.5,41.917432077595
3183.75,41.9324151974707
3184,41.9473983173463
3184.25,41.962381437222
3184.5,41.9773645570977
3184.75,41.9923476769734
3185,41.9706768126038
3185.25,41.9107443331011
3185.5,41.8508118535984
3185.75,41.7908793740956
3186,41.7309468945929
3186.25,41.6710144150902
3186.5,41.6110819355875
3186.75,41.5511494560849
3187,41.4912169765822
3187.25,41.4312844970795
3187.5,41.3713520175768
3187.75,41.311419538074
3188,41.2514870585713
3188.25,41.1915545790686
3188.5,41.1316220995659
3188.75,41.0716896200632
3189,41.0117571405605
3189.25,40.9518246610578
3189.5,40.891892181555
3189.75,40.8319597020523
3190,40.8
3190.25,40.8
3190.5,40.8
3190.75,40.8
3191,40.8
3191.25,40.8
3191.5,40.8
3191.75,40.8
3192,40.8
3192.25,40.8
3192.5,40.8
3192.75,40.8
3193,40.8
3193.25,40.8
3193.5,40.8
3193.75,40.8
3194,40.8
3194.25,40.8
3194.5,40.8
3194.75,40.8
3195,40.8288408981298
3195.25,40.8937677509244
3195.5,40.958694603719
3195.75,41.0236214565136
3196,41.0885483093082
3196.25,41.1534751621028
3196.5,41.2184020148974
3196.75,41.283328867692
3197,41.3482557204866
3197.25,41.4131825732812
3197.5,41.4781094260759
3197.75,41.5430362788705
3198,41.6079631316651
3198.25,41.6728899844597
3198.5,41.7378168372542
3198.75,41.8027436900488
3199,41.8676705428434
3199.25,41.932597395638
3199.5,41.9975242484326
3199.75,42.0624511012272
3200,42.0494560848828
3200.25,41.9295911258774
3200.5,41.809726166872
3200.75,41.6898612078666
3201,41.5699962488611
3201.25,41.4501312898557
3201.5,41.3302663308503
3201.75,41.2104013718449
3202,41.0905364128394
3202.25,40.9706714538342
3202.5,40.8508064948288
3202.75,40.7309415358234
3203,40.6110765768179
3203.25,40.4912116178125
3203.5,40.3713466588071
3203.75,40.2514816998017
3204,40.1316167407962
3204.25,40.0117517817908
3204.5,39.8918868227854
3204.75,39.77202186378
3205,39.7498365575265
