1763,844.17463770735
1763.25,842.900578363406
1763.5,844.835598910583
1763.75,848.612715799536
1764,852.054106603217
1764.25,853.045517641595
1764.5,851.256780303027
1764.75,848.306751853823
1765,845.913080716242
1765.25,845.311419223596
1765.5,846.097763481802
1765.75,847.519768051426
1766,848.88842410392
1766.25,850.241623323608
1766.5,852.081806022697
1766.75,854.912493086627
1767,858.636259774379
1767.25,862.075263939347
1767.5,863.938832528284
1767.75,863.188424572874
1768,860.316763135106
1768.25,856.391525696795
1768.5,852.472036011689
1768.75,849.266280293517
1769,847.033406280535
1769.25,846.003313780222
1769.5,846.241553929009
1769.75,847.13707404748
1770,847.904728724839
1770.25,847.822595744595
1770.5,847.091022066789
1770.75,846.608370395995
1771,847.286571263614
1771.25,849.378800453706
1771.5,851.726810164996
1771.75,852.990104822668
1772,852.168139741741
1772.25,850.56925580863
1772.5,850.462030541613
1772.75,854.049489402208
1773,861.080725299475
1773.25,868.236994617718
1773.5,872.006157157941
1773.75,870.014265204874
1774,864.350402510615
1774.25,858.197416548728
1774.5,854.618245343469
1774.75,854.145607316033
1775,854.902385496537
1775.25,854.916127964853
1775.5,852.952779083561
1775.75,850.006449125624
1776,847.48987210784
1776.25,846.685828755675
1776.5,847.410021614153
1776.75,848.551964239121
1777,848.99591160168
1777.25,848.4279060791
1777.5,847.94235461365
1777.75,848.776474545387
1778,851.895878531381
1778.25,856.755573644081
1778.5,862.288443982078
1778.75,867.441632823563
1779,871.509959975989
1779.25,874.140558641337
1779.5,874.996253326421
1779.75,873.882585433868
1780,871.119182989405
1780.25,867.14138719076
1780.5,862.39895334388
1780.75,857.624406314223
1781,853.808345423916
1781.25,851.950653272648
1781.5,852.52648645335
1781.75,854.333236606845
1782,855.833676486701
1782.25,855.650519811124
1782.5,854.262780995664
1782.75,853.345658662766
1783,854.586562584617
1783.25,858.679799884567
1783.5,864.354306663445
1783.75,870.108014590944
1784,874.590009156006
1784.25,877.473824896578
1784.5,878.858246200452
1784.75,878.844665614432
1785,877.603293715527
1785.25,875.408222498062
1785.5,872.542162063454
1785.75,869.316149588324
1786,866.233150792978
1786.25,863.875779140111
1786.5,862.818074739406
1786.75,863.126482012279
1787,864.09321398925
1787.25,864.945327748281
1787.5,865.005602628005
1787.75,864.134896831701
1788,862.381939941109
1788.25,859.796724860053
1788.5,856.464738988944
1788.75,852.514371974147
1789,848.076579499912
1789.25,843.402681802469
1789.5,839.249895295125
1789.75,836.508326872089
1790,835.990459218793
1790.25,837.307479793109
1790.5,839.125029448836
1790.75,840.088902672825
1791,839.552347255456
1791.25,838.251710766001
1791.5,837.083530393014
1791.75,836.783022636272
1792,837.179236748252
1792.25,837.78504944157
1792.5,838.136573709442
1792.75,838.222827410274
1793,838.441171417909
1793.25,839.202205198359
1793.5,840.571936169832
1793.75,841.820568961674
1794,842.106322651064
1794.25,840.769153757457
1794.5,838.363133500749
1794.75,835.939815785881
1795,834.525808904325
1795.25,834.422112006693
1795.5,835.132277464494
1795.75,836.119416648862
1796,837.155406159336
1796.25,838.867958521952
1796.5,842.031852377455
1796.75,847.220454890294
1797,853.418709137559
1797.25,858.858574865849
1797.5,861.799297085624
1797.75,861.68050072658
1798,859.443383664728
1798.25,856.126362073013
1798.5,852.658508889875
1798.75,849.481622716927
1799,846.901816952667
1799.25,845.204487520626
1799.5,844.277588103969
1799.75,843.65108620124
1800,842.842819249486
1800.25,841.637456647888
1800.5,840.493748776761
1800.75,839.975255680806
1801,840.559030465245
1801.25,842.0492270073
1801.5,843.934752550943
1801.75,845.710048752694
1802,847.117923830255
1802.25,848.203954533189
1802.5,849.032077711731
1802.75,849.760451119221
1803,850.877357727907
1803.25,852.943341285814
1803.5,856.423721116089
1803.75,860.599642719541
1804,863.949943041812
1804.25,864.944387470981
1804.5,862.943265528813
1804.75,859.122640918621
1805,854.879760947651
1805.25,851.483733223484
1805.5,849.167941276088
1805.75,847.664425043233
1806,846.703912989334
1806.25,846.117696055291
1806.5,845.883635979202
1806.75,845.991175016481
1807,846.411222340978
1807.25,847.033199749961
1807.5,847.724139591172
1807.75,848.378554474004
1808,849.32843698762
1808.25,851.256523234457
1808.5,854.852722546497
1808.75,860.177853079988
1809,865.859600186847
1809.25,870.327073437176
1809.5,872.228522101189
1809.75,871.95908008272
1810,870.749586358713
1810.25,869.827669178102
1810.5,869.728779413886
1810.75,869.791637100088
1811,869.236044088868
1811.25,867.430858968447
1811.5,864.802642623134
1811.75,862.235364463704
1812,860.604305119132
1812.25,860.169336334686
1812.5,860.245165087261
1812.75,860.066204438611
1813,859.077367165452
1813.25,857.887364951951
1813.5,857.50488529514
1813.75,858.904734518137
1814,862.067957573955
1814.25,865.851736032889
1814.5,869.052865080088
1814.75,870.802808265557
1815,871.490323757959
1815.25,871.799371271409
1815.5,872.377548502241
1815.75,873.18938953493
1816,873.592008471414
1816.25,872.921398140454
1816.5,870.810707533769
1816.75,867.895423728056
1817,865.022155660414
1817.25,862.997909425217
1817.5,861.946643112862
1817.75,861.416012946926
1818,860.935816899458
1818.25,860.247126775202
1818.5,859.702300208634
1818.75,859.763608539535
1819,860.860958419637
1819.25,863.045949093707
1819.5,866.125124986968
1819.75,869.899923087558
1820,874.018103753367
1820.25,877.807825043492
1820.5,880.55739162301
1820.75,881.687580074502
1821,881.775038173397
1821.25,881.99278520486
1821.5,883.513428230274
1821.75,886.666100350917
1822,890.026229816721
1822.25,891.950633025352
1822.5,890.98353433867
1822.75,887.649563550909
1823,883.662804929115
1823.25,880.752510022678
1823.5,879.896693685605
1823.75,880.000297148845
1824,879.613700940188
1824.25,877.412955196574
1824.5,873.943740046167
1824.75,871.185497224589
1825,871.153783036192
1825.25,874.942140493268
1825.5,880.785367155189
1825.75,886.3658650637
1826,889.507419527356
1826.25,890.136414480863
1826.5,889.791238947392
1826.75,890.051311311369
1827,891.939531705088
1827.25,894.559737503815
1827.5,896.602416182743
1827.75,896.798388993818
1828,894.852859293274
1828.25,891.472088659288
1828.5,887.408008890446
1828.75,883.383185288493
1829,879.962166312748
1829.25,877.656584006052
1829.5,876.966489947949
1829.75,877.791210534698
1830,879.148224647132
1830.25,879.984633954602
1830.5,879.476627709862
1830.75,878.265030879953
1831,877.567293036302
1831.25,878.587471769515
1831.5,881.59303386111
1831.75,885.370365613811
1832,888.574953591105
1832.25,890.082281505719
1832.5,890.323133806736
1832.75,890.398681193101
1833,891.40539217023
1833.25,893.618576607022
1833.5,895.753090240836
1833.75,896.349206413055
1834,894.130317681106
1834.25,889.750548267246
1834.5,885.021647021644
1834.75,881.770402091717
1835,881.14906590181
1835.25,882.363526549105
1835.5,884.270698388965
1835.75,885.761540920612
1836,886.274394896541
1836.25,885.689278731959
1836.5,883.898827238039
1836.75,881.060904873382
1837,878.268534869807
1837.25,876.82073985281
1837.5,877.951968676395
1837.75,881.45375934015
1838,885.697847361112
1838.25,888.996016536828
1838.5,890.175409869821
1838.75,890.135535781605
1839,890.296740666957
1839.25,892.045590145958
1839.5,895.732353964519
1839.75,900.502454105552
1840,905.433581221001
1840.25,909.608613556677
1840.5,912.140413479382
1840.75,912.152591868219
1841,908.777845788297
1841.25,902.200341059847
1841.5,894.621915972225
1841.75,888.472852137633
1842,886.002711347212
1842.25,886.905727959849
1842.5,888.982458877994
1842.75,889.988997254929
1843,888.464422591001
1843.25,885.515701034516
1843.5,882.775416588759
1843.75,881.82895950688
1844,883.208867065213
1844.25,886.412624142283
1844.5,890.894082306754
1844.75,896.001385725645
1845,900.631785506753
1845.25,903.562334166813
1845.5,903.608258501706
1845.75,900.948152421441
1846,897.46484619834
1846.25,895.148585387235
1846.5,895.649707157939
1846.75,898.095780921297
1847,900.479490196371
1847.25,900.794645438992
1847.5,898.145234818204
1847.75,893.98595860434
1848,890.070895749262
1848.25,888.056750125647
1848.5,888.225224543454
1848.75,889.839983299858
1849,892.140746980216
1849.25,894.430029146942
1849.5,896.221007546137
1849.75,897.070988792804
1850,896.577399925197
1850.25,895.301170309229
1850.5,894.789919307633
1850.75,896.636025062421
1851,901.876651906736
1851.25,908.572691882667
1851.5,913.791954224587
1851.75,914.633881148431
1852,910.420444480006
1852.25,904.092046549563
1852.5,898.921554037165
1852.75,897.916436120222
1853,900.864950754988
1853.25,905.413011433849
1853.5,909.167899246709
1853.75,910.366472989429
1854,909.331286207471
1854.25,906.81622247191
1854.5,903.579926036266
1854.75,900.539567853991
1855,898.80408874878
1855.25,899.493914487293
1855.5,903.404622194505
1855.75,908.98558323713
1856,913.655595004216
1856.25,914.837763354518
1856.5,911.647294735507
1856.75,906.899005929461
1857,903.896770993608
1857.25,905.744752897843
1857.5,911.83291030501
1857.75,918.268297666766
1858,921.044930580062
1858.25,917.217765636799
1858.5,909.059167216943
1858.75,900.442650598905
1859,895.225889685842
1859.25,895.246350499325
1859.5,898.389693743214
1859.75,902.08357370443
1860,903.927813473834
1860.25,903.547332959056
1860.5,901.884876976446
1860.75,899.905656975148
1861,898.481915707631
1861.25,898.167108056482
1861.5,899.446414822554
1861.75,902.776586172822
1862,907.78362423051
1862.25,913.150749816245
1862.5,917.510233991263
1862.75,919.760115105087
1863,920.488083740891
1863.25,920.943638861587
1863.5,922.374866424428
1863.75,925.154542170277
1864,927.563730913736
1864.25,927.577637171888
1864.5,923.271536902089
1864.75,915.161050840582
1865,906.281782506824
1865.25,899.785339610548
1865.5,898.317226878414
1865.75,900.580917861551
1866,903.430960088908
1866.25,903.717877001262
1866.5,899.93794717777
1866.75,894.387522420971
1867,889.897599490758
1867.25,889.151101390542
1867.5,892.348027599523
1867.75,897.630361483925
1868,903.077935229717
1868.25,907.161410669345
1868.5,909.842006108156
1868.75,911.436227526813
1869,912.257263098025
1869.25,912.492275314703
1869.5,912.166403638538
1869.75,911.294127480938
1870,909.916886692183
1870.25,908.306143550147
1870.5,906.849861764013
1870.75,905.936713682476
1871,905.762686558616
1871.25,905.971011054521
1871.5,906.106417350355
1871.75,905.725845447551
1872,904.683407317847
1872.25,903.139762130463
1872.5,901.26965448843
1872.75,899.284421570502
1873,897.616374112799
1873.25,896.780354616649
1873.5,897.288191059297
1873.75,899.305702068891
1874,902.345223147563
1874.25,905.846530274216
1874.5,909.279162609763
1874.75,912.451745516448
1875,915.388432228184
1875.25,918.116817170495
1875.5,920.556397701873
1875.75,922.247979619206
1876,922.649488812451
1876.25,921.233778379473
1876.5,918.161352820987
1876.75,914.553603444968
1877,911.60342069022
1877.25,910.373532942535
1877.5,910.506907099316
1877.75,910.77300678447
1878,909.928566735035
1878.25,907.326064477613
1878.5,904.429105816195
1878.75,903.168715225044
1879,905.419088130344
1879.25,910.851681268801
1879.5,916.280265144373
1879.75,918.328002953873
1880,914.298689990552
1880.25,906.783694687859
1880.5,900.848846693626
1880.75,901.571350500627
1881,911.413958933109
1881.25,925.35147229909
1881.5,937.026620756495
1881.75,940.320951465064
1882,934.391976778913
1882.25,923.555454929446
1882.5,912.342413528431
1882.75,904.859177632234
1883,901.499536786288
1883.25,900.738894852684
1883.5,901.0369750616
1883.75,901.253189943452
1884,901.404591623603
1884.25,901.716612061999
1884.5,902.399673973337
1884.75,903.326649810718
1885,904.037064551196
1885.25,904.056274525054
1885.5,903.121389622719
1885.75,902.125907086119
1886,902.356100109339
1886.25,905.087338175532
1886.5,910.575511067465
1886.75,917.256753286231
1887,923.378872972852
1887.25,927.296506726021
1887.5,928.613924896846
1887.75,927.745309887629
1888,925.118509695697
1888.25,921.250203471795
1888.5,917.051756776538
1888.75,913.544113437004
1889,911.74057140741
1889.25,911.853298700803
1889.5,912.601401043777
1889.75,912.540898778007
1890,910.350453880531
1890.25,906.425011082111
1890.5,902.422472855434
1890.75,900.030036324452
1891,900.456838135683
1891.25,902.814288807998
1891.5,905.638584952612
1891.75,907.489414174815
1892,908.031334413032
1892.25,908.485662937098
1892.5,910.190945233456
1892.75,914.300455976372
1893,920.307023773054
1893.25,926.827784486027
1893.5,932.472160720844
1893.75,936.087262370337
1894,937.232041841705
1894.25,935.598145063601
1894.5,930.896300448693
1894.75,923.733286802617
1895,915.977904476755
1895.25,909.593932335592
1895.5,906.394242962451
1895.75,906.237221497028
1896,907.618222245586
1896.25,909.004822726564
1896.5,909.247124361785
1896.75,908.700451855406
1897,908.090318399015
1897.25,908.13616753257
1897.5,909.272712386889
1897.75,911.533806424687
1898,914.923152309717
1898.25,919.377451227433
1898.5,924.225403570623
1898.75,928.471803276704
1899,931.118555484126
1899.25,931.568576314146
1899.5,930.512488605659
1899.75,928.898870805869
1900,927.664709237798
1900.25,927.126737624898
1900.5,926.681250721926
1900.75,925.649965987943
1901,923.419400701944
1901.25,920.214372573682
1901.5,916.843843794367
1901.75,914.12865678286
1902,912.695484664757
1902.25,912.234516619469
1902.5,912.153975184476
1902.75,911.869151391091
1903,911.437278131243
1903.25,912.058593230541
1903.5,915.051251966474
1903.75,921.562460372733
1904,930.495585333756
1904.25,939.174419519665
1904.5,944.889812561519
1904.75,945.712173947069
1905,943.166039785667
1905.25,939.732301993005
1905.5,937.887286518532
1905.75,938.932725276023
1906,941.444266312358
1906.25,943.611790905801
1906.5,943.663669420013
1906.75,941.062537149632
1907,936.737406055904
1907.25,931.702632075395
1907.5,926.944736779938
1907.75,923.116372276745
1908,920.64979960095
1908.25,919.973375697284
1908.5,921.273617837506
1908.75,923.571916472255
1909,925.539229211323
1909.25,925.854670956169
1909.5,924.116529300163
1909.75,921.668651703696
1910,920.05001959928
1910.25,920.730034055464
1910.5,923.921955659681
1910.75,928.748755515024
1911,934.297203189772
1911.25,939.631839716048
1911.5,943.687113076588
1911.75,945.350285602027
1912,943.509927257029
1912.25,937.876168205221
1912.5,930.36846695268
1912.75,923.273863581835
1913,918.849119411484
1913.25,917.823400812397
1913.5,918.710889852921
1913.75,919.852034682086
1914,919.73933698926
1914.25,918.559472131108
1914.5,917.558235942136
1914.75,917.99761407944
1915,920.768338774946
1915.25,925.269396023848
1915.5,930.525144504441
1915.75,935.563387680334
1916,939.629092662069
1916.25,942.30999649535
1916.5,943.22405447428
1916.75,942.049182948823
1917,939.394782071194
1917.25,936.60526183122
1917.5,935.045005909393
1917.75,935.77663334919
1918,937.761383847987
1918.25,939.066810680592
1918.5,937.757508818611
1918.75,932.726585490715
1919,925.487979078298
1919.25,918.072610872787
1919.5,912.495440588031
1919.75,909.766734069159
1920,909.311838551457
1920.25,910.416481358556
1920.5,912.396566403566
1920.75,914.91358683818
1921,917.849545698077
1921.25,921.090011578285
1921.5,924.46216570527
1921.75,927.577702322709
1922,929.998615299067
1922.25,931.295146730251
1922.5,931.499969023451
1922.75,931.344453335851
1923,931.618010682709
1923.25,933.027124495296
1923.5,935.126020977244
1923.75,936.625146482259
1924,936.215599041336
1924.25,932.940017178271
1924.5,927.795428749735
1924.75,922.454109409026
1925,918.587609139991
1925.25,917.223253674488
1925.5,917.718193957001
1925.75,919.162458822324
1926,920.656560874054
1926.25,921.578292745528
1926.5,921.604436397834
1926.75,920.426607155818
1927,917.888984094816
1927.25,914.995841771222
1927.5,913.284430383412
1927.75,914.293912952259
1928,918.676119464395
1928.25,924.531223463259
1928.5,929.503538913021
1928.75,931.311473605886
1929,929.797066402237
1929.25,927.189019221751
1929.5,925.842959166618
1929.75,927.819854752794
1930,932.449706072582
1930.25,937.582583969361
1930.5,941.053958334161
1930.75,941.315524035085
1931,939.089744175836
1931.25,935.622007956726
1931.5,932.153920204966
1931.75,929.524690464683
1932,927.820226386056
1932.25,927.043697274926
1932.5,927.189727558031
1932.75,928.082668897791
1933,929.390024934131
1933.25,930.773445054128
1933.5,931.953665244573
1933.75,933.056572735823
1934,934.377999311075
1934.25,936.214245632054
1934.5,938.710464471418
1934.75,941.562134629243
1935,944.38148929816
1935.25,946.782844151127
1935.5,948.487534604586
1935.75,949.373214878323
1936,949.329927345793
1936.25,948.260082518821
1936.5,946.273621083489
1936.75,943.652572101654
1937,940.684166396858
1937.25,937.672343862029
1937.5,935.054631628478
1937.75,933.33262354555
1938,933.00831627249
1938.25,934.332997553219
1938.5,936.601488612295
1938.75,938.880555084114
1939,940.244481827558
1939.25,940.433295205077
1939.5,940.365935617448
1939.75,941.082125421739
1940,943.570726377268
1940.25,947.772276297634
1940.5,952.642336326874
1940.75,957.098291898371
1941,960.139720667309
1941.25,961.467571231832
1941.5,961.1380716272
1941.75,959.210215857027
1942,955.820859271506
1942.25,951.498362661594
1942.5,946.893871312427
1942.75,942.658511701628
1943,939.326392523565
1943.25,937.071513464235
1943.5,935.998827241743
1943.75,936.208376923784
1944,937.465486660589
1944.25,938.992166659238
1944.5,939.96070486709
1944.75,939.601851269488
1945,938.125399989741
1945.25,936.55198405261
1945.5,935.92668228785
1945.75,937.164971215769
1946,940.261150202512
1946.25,944.810567310618
1946.5,950.406935652348
1946.75,956.517863070052
1947,962.199544534137
1947.25,966.424412896404
1947.5,968.171919356179
1947.75,967.134753563749
1948,964.323113266572
1948.25,960.889529452056
1948.5,957.968872440458
1948.75,955.994470761339
1949,954.479561234019
1949.25,952.874999819135
1949.5,950.672075044976
1949.75,948.073154409864
1950,945.887896153041
1950.25,944.94547131946
1950.5,945.944110163986
1950.75,948.451716053365
1951,951.458130946717
1951.25,953.948535677577
1951.5,955.21734611251
1951.75,955.902251013363
1952,957.00558666015
1952.25,959.528038091958
1952.5,963.808593791536
1952.75,968.516871440961
1953,972.063305489344
1953.25,972.876702161535
1953.5,970.596144981207
1953.75,966.801514061506
1954,963.247458334689
1954.25,961.643854562995
1954.5,962.222346473238
1954.75,963.43359607579
1955,963.62228380468
1955.25,961.246300641973
1955.5,956.593810713681
1955.75,951.435066081496
1956,947.582918870763
1956.25,946.658227930501
1956.5,948.487080275309
1956.75,951.916243958437
1957,955.782592507626
1957.25,959.097025156312
1957.5,961.702021443041
1957.75,963.688168846856
1958,965.146113259276
1958.25,966.179656805428
1958.5,966.929813883526
1958.75,967.544132080093
1959,968.169038336979
1959.25,968.824259194383
1959.5,969.288096250597
1959.75,969.311750523932
1960,968.648036864653
1960.25,967.118445407799
1960.5,964.637273458114
1960.75,961.125396145093
1961,956.52909668263
1961.25,951.354920759464
1961.5,946.656593553586
1961.75,943.51063127229
1962,942.875878810976
1962.25,944.374754065829
1962.5,946.782190386043
1962.75,948.859643502273
1963,949.641413550971
1963.25,949.632327556552
1963.5,949.830429962044
1963.75,951.233651533055
1964,954.292848060219
1964.25,957.857916393217
1964.5,960.487439245615
1964.75,960.753441147645
1965,958.257348942094
1965.25,954.339536121966
1965.5,950.508073349609
1965.75,948.231185196018
1966,947.847087115951
1966.25,948.430833380916
1966.5,948.990898130802
1966.75,948.606980373103
1967,947.202872713974
1967.25,945.254690159505
1967.5,943.248107433451
1967.75,941.632399074303
1968,940.637899366189
1968.25,940.413472370047
1968.5,941.10769299346
1968.75,942.625990266143
1969,944.137382716384
1969.25,944.672004773135
1969.5,943.279275332493
1969.75,940.197987739711
1970,937.529285849054
1970.25,937.536735719968
1970.5,942.320685269016
1970.75,951.026738411901
1971,960.231519237923
1971.25,966.426060222203
1971.5,966.668677315201
1971.75,962.242218547684
1972,956.335555581898
1972.25,952.146823574612
1972.5,952.111146395526
1972.75,954.892646906494
1973,957.992528643848
1973.25,958.913117795594
1973.5,956.287265361393
1973.75,951.900804784391
1974,948.084936080835
1974.25,947.153441830829
1974.5,949.9036872713
1974.75,954.461960194531
1975,958.682733232872
1975.25,960.500044856244
1975.5,959.696555631473
1975.75,957.913945385017
1976,956.875539233942
1976.25,958.148428023329
1976.5,961.424481378994
1976.75,965.157132022876
1977,967.777847442999
1977.25,968.00518006758
1977.5,966.486619333303
1977.75,964.664137673461
1978,963.982176531118
1978.25,965.404859808786
1978.5,967.716837428169
1978.75,969.084893853095
1979,967.67651136914
1979.25,962.585641328464
1979.5,955.64253911372
1979.75,949.180182639322
1980,945.523389681298
1980.25,945.783136028411
1980.5,948.580093215104
1980.75,952.229357330882
1981,955.077668698018
1981.25,956.422772728602
1981.5,956.656924182465
1981.75,956.232900732012
1982,955.614818476564
1982.25,955.41769009086
1982.5,956.363784535802
1982.75,959.177661039472
1983,964.33130780384
1983.25,970.467222085128
1983.5,975.422238875449
1983.75,977.029689878882
1984,973.833933349505
1984.25,967.525934237148
1984.5,960.666808434547
1984.75,955.817560406039
1985,954.696796684593
1985.25,956.193182787641
1985.5,958.601776865319
1985.75,960.222868263067
1986,960.09952731185
1986.25,958.780607093689
1986.5,956.997123674425
1986.75,955.472023371144
1987,954.60408395366
1987.25,954.364825313869
1987.5,954.696585684772
1987.75,955.554579671972
1988,957.111097857081
1988.25,959.718971215518
1988.5,963.736522092644
1988.75,969.406587726066
1989,975.968857917711
1989.25,982.147355103076
1989.5,986.661865211201
1989.75,988.457360892444
1990,987.732109898841
1990.25,985.1178485621
1990.5,981.24672995264
1990.75,976.752716105767
1991,972.278364716916
1991.25,968.468783904732
1991.5,965.969080675359
1991.75,965.181189961606
1992,965.587569313577
1992.25,966.453389498513
1992.5,967.044489318384
1992.75,966.901305384645
1993,966.26054369252
1993.25,965.467608587684
1993.5,964.868911708958
1993.75,964.897766431622
1994,966.140114770014
1994.25,969.197373332889
1994.5,974.634257206333
1994.75,981.791911186118
1995,988.530497150973
1995.25,992.621403877619
1995.5,991.955140827212
1995.75,986.718894245944
1996,979.174397261782
1996.25,971.657933557134
1996.5,966.412524646745
1996.75,964.085820060525
1997,963.986343888076
1997.25,965.381100376816
1997.5,967.542528017318
1997.75,969.800951804552
1998,971.521676806561
1998.25,972.070493449762
1998.5,970.97600147131
1998.75,968.870489599023
1999,966.84448023601
1999.25,965.989981853157
1999.5,967.114662021747
1999.75,969.660682711709
2000,972.660796739401
2000.25,975.147790396979
2000.5,976.47685607237
2000.75,977.033502912353
2001,977.408617723607
2001.25,978.191940345941
2001.5,979.632139701404
2001.75,981.162051789542
2002,982.095089662179
2002.25,981.749063471061
2002.5,979.909615237267
2002.75,977.238344924073
2003,974.493083822855
2003.25,972.424613224211
2003.5,971.36696956899
2003.75,971.011806075108
2004,970.995932493408
2004.25,970.967165332351
2004.5,970.908873570161
2004.75,971.193356586445
2005,972.214669086959
2005.25,974.337870230981
2005.5,977.416144406862
2005.75,980.864483808048
2006,984.08373327749
2006.25,986.508066081908
2006.5,987.957828475374
2006.75,988.501908881367
2007,988.213311143956
2007.25,987.187026316967
2007.5,985.724399183695
2007.75,984.239729097543
2008,983.148468701627
2008.25,982.789572091796
2008.5,982.890293240725
2008.75,982.884480935774
2009,982.204133853612
2009.25,980.395605064526
2009.5,977.741073708804
2009.75,974.814122093356
2010,972.189058978293
2010.25,970.34828009794
2010.5,969.300375276238
2010.75,968.901699974475
2011,969.00854022458
2011.25,969.579335428169
2011.5,970.948419619751
2011.75,973.536566114884
2012,977.763520375514
2012.25,983.604898619507
2012.5,989.900751989709
2012.75,995.312231228225
2013,998.506228398661
2013.25,998.887880693745
2013.5,997.320146070998
2013.75,994.836881212418
2014,992.467851574088
2014.25,990.757504778416
2014.5,989.312912491915
2014.75,987.634167776149
2015,985.226718566381
2015.25,982.085889914541
2015.5,979.08342530077
2015.75,977.18203018804
2016,977.330174562736
2016.25,979.639081759913
2016.5,982.931857952143
2016.75,985.921919754764
2017,987.349751566775
2017.25,986.852037267034
2017.5,985.146649823652
2017.75,983.015936800939
2018,981.229897596057
2018.25,980.246309608916
2018.5,980.194199577311
2018.75,981.186937581082
2019,983.305502644335
2019.25,986.041231734365
2019.5,988.371052765092
2019.75,989.254637130287
2020,987.749820785852
2020.25,984.250505663866
2020.5,980.115163249313
2020.75,976.723649171898
2021,975.318277726566
2021.25,975.552416134155
2021.5,976.059019283986
2021.75,975.454245768976
2022,972.579452511313
2022.25,968.144371787901
2022.5,963.783224211071
2022.75,961.136818990153
2023,961.516117815803
2023.25,964.242410881002
2023.5,967.894626047635
2023.75,971.050424593192
2024,972.714471980237
2024.25,973.497360383523
2024.5,974.387149452544
2024.75,976.371010213767
2025,979.927844636745
2025.25,984.178644706887
2025.5,988.020059744749
2025.75,990.352563459557
2026,990.63007471454
2026.25,989.433988792896
2026.5,987.482897411974
2026.75,985.491578585712
2027,983.802447014319
2027.25,982.078293817377
2027.5,979.909580267237
2027.75,976.892832021312
2028,973.000679156281
2028.25,968.7958634693
2028.5,964.892734007499
2028.75,961.90551169256
2029,960.44389819793
2029.25,961.111978450333
2029.5,964.513486493928
2029.75,971.159302155474
2030,979.957591949623
2030.25,988.46363716809
2030.5,994.190280718026
2030.75,994.927756890943
2031,991.360907417144
2031.25,985.89641395044
2031.5,980.963768364159
2031.75,978.753983340659
2032,979.136959263047
2032.25,980.674782272764
2032.5,981.914872210588
2032.75,981.593283074044
2033,979.853502375732
2033.25,977.475079328408
2033.5,975.240677586105
2033.75,973.804059484041
2034,973.052418721919
2034.25,972.590706570721
2034.5,972.023433863857
2034.75,971.121416092713
2035,970.385223623438
2035.25,970.51553471019
2035.5,972.212865113919
2035.75,975.782228002914
2036,980.286759793351
2036.25,984.546481164846
2036.5,987.38386405168
2036.75,988.188558422181
2037,987.639832330937
2037.25,986.595255880243
2037.5,985.909827951186
2037.75,986.112474360117
2038,987.090631056648
2038.25,988.656872376737
2038.5,990.619707867231
2038.75,992.476611909937
2039,993.19977816622
2039.25,991.710762339945
2039.5,986.956591250183
2039.75,979.327161599806
2040,971.401050118336
2040.25,965.939632665694
2040.5,965.647832175866
2040.75,970.835303983478
2041,978.578832410091
2041.25,985.726491579995
2041.5,989.250708996075
2041.75,988.668226313944
2042,985.876111007693
2042.25,982.862940619964
2042.5,981.541727279013
2042.75,982.567494713285
2043,985.55732253673
2043.25,990.097244443894
2043.5,995.727994338146
2043.75,1001.42139575117
2044,1005.76109484732
2044.25,1007.32324856358
2044.5,1004.85203887469
2044.75,998.968757350327
2045,991.470514865935
2045.25,984.172496046071
2045.5,978.77174591914
2045.75,975.504097497104
2046,973.61920795146
2046.25,972.348230598437
2046.5,971.007720308688
2046.75,969.731811759073
2047,969.109308323114
2047.25,969.733902417888
2047.5,972.058262664687
2047.75,975.599093838794
2048,979.491857144923
2048.25,982.870898464632
2048.5,985.082659623597
2048.75,986.44791243776
2049,987.567036202175
2049.25,989.040431244465
2049.5,991.178846745679
2049.75,993.20829617367
2050,994.100912967579
2050.25,992.828955823438
2050.5,988.891333876034
2050.75,983.516515339054
2051,978.287482028877
2051.25,974.786818552234
2051.5,973.974039771958
2051.75,974.92491448751
2052,976.360595525944
2052.25,977.005163933517
2052.5,976.252450950329
2052.75,975.015383907691
2053,974.416332291297
2053.25,975.568197731086
2053.5,978.762344688958
2053.75,982.844593099941
2054,986.513860459009
2054.25,988.494420610078
2054.5,988.58136391482
2054.75,988.012139402773
2055,988.125933668351
2055.25,990.226856855978
2055.5,994.495853192484
2055.75,999.780435658352
2056,1004.85059913376
2056.25,1008.49256763525
2056.5,1009.90669782269
2056.75,1008.73153889322
2057,1004.62668597022
2057.25,997.292319627056
2057.5,987.621518130797
2057.75,977.865123509075
2058,970.347709769633
2058.25,967.328339088755
2058.5,969.100315384203
2058.75,973.696309319342
2059,979.02414334448
2059.25,983.091457941985
2059.5,985.561267072134
2059.75,987.459073384719
2060,989.850923537108
2060.25,993.694386493147
2060.5,998.609390947297
2060.75,1003.31505596102
2061,1006.51369290197
2061.25,1007.04074407597
2061.5,1005.1723211188
2061.75,1002.06560166908
2062,998.890418884896
2062.25,996.704845841042
2062.5,995.22938575238
2062.75,993.303022988797
2063,989.749192618947
2063.25,983.558556668827
2063.5,975.665259197685
2063.75,968.257051383538
2064,963.542566525978
2064.25,963.457731036215
2064.5,967.264115364568
2064.75,972.707455772868
2065,977.516166023125
2065.25,979.851333701256
2065.5,980.497346460414
2065.75,981.222032668021
2066,983.794958238688
2066.25,989.414972386208
2066.5,996.635258599496
2066.75,1003.242917345
2067,1007.02497278876
2067.25,1006.46974518158
2067.5,1002.74766086994
2067.75,997.670241778905
2068,993.049009833529
2068.25,990.264918846508
2068.5,988.908231681422
2068.75,988.103759786041
2069,986.97631442782
2069.25,984.895118258008
2069.5,982.163833369467
2069.75,979.309403493591
2070,976.858723013341
2070.25,975.140615647064
2070.5,973.835539679804
2070.75,972.491496285159
2071,970.657525331777
2071.25,968.279632178726
2071.5,966.297892460607
2071.75,965.805466181146
2072,967.886677580648
2072.25,972.782359322248
2072.5,979.20434494889
2072.75,985.703132219676
2073,990.850713775161
2073.25,994.01980836068
2073.5,995.60356168794
2073.75,996.061365838972
2074,995.847434323543
2074.25,995.264507943713
2074.5,994.443339644631
2074.75,993.505380006831
2075,992.563774086881
2075.25,991.507879196724
2075.5,989.983393054165
2075.75,987.623724463736
2076,984.095081086243
2076.25,979.834396685163
2076.5,976.0585267697
2076.75,974.01896491507
2077,974.884821849347
2077.25,978.320555673534
2077.5,982.675291876509
2077.75,986.253851867725
2078,987.51483991814
2078.25,986.778594061616
2078.5,985.602673042818
2078.75,985.566940333885
2079,988.052067693507
2079.25,992.436206393108
2079.5,996.940188695479
2079.75,999.770795114548
2080,999.36544582714
2080.25,996.079972247742
2080.5,991.221484131873
2080.75,986.103926530276
2081,981.930756103278
2081.25,978.986579358565
2081.5,977.100444576002
2081.75,976.098128599693
2082,975.781836109392
2082.25,975.792272070504
2082.5,975.70244854269
2082.75,975.085146853659
2083,973.68423483779
2083.25,972.114756718944
2083.5,971.268349359345
2083.75,972.036759831929
2084,974.903167091496
2084.25,978.811104919088
2084.5,982.341497855664
2084.75,984.076431954666
2085,983.326710841106
2085.25,981.376372840353
2085.5,979.84019466568
2085.75,980.328563612185
2086,983.472108765532
2086.25,987.690818119404
2086.5,991.101704130945
2086.75,991.83382319412
2087,989.157631241982
2087.25,984.407989594268
2087.5,979.136980716951
2087.75,974.88779528167
2088,972.558725593558
2088.25,971.978543277169
2088.5,972.875330111601
2088.75,974.971738733804
2089,977.784465038511
2089.25,980.565574080164
2089.5,982.549735320546
2089.75,983.021052623205
2090,982.357918793886
2090.25,982.009805036364
2090.5,983.470974178477
2090.75,988.119557298161
2091,995.421586317602
2091.25,1003.27651252496
2091.5,1009.53762079993
2091.75,1012.19651524277
2092,1011.04359797053
2092.25,1007.12734026102
2092.5,1001.52203432086
2092.75,995.285599641268
2093,989.223426490003
2093.25,983.942575082306
2093.5,980.044771475007
2093.75,978.094075042914
2094,978.082914803804
2094.25,979.559536668568
2094.5,982.060518847064
2094.75,985.125817792522
2095,988.332754891558
2095.25,991.281882204285
2095.5,993.57410145947
2095.75,994.878032587616
2096,995.45455771467
2096.25,995.870728850214
2096.5,996.696164903799
2096.75,998.401253874313
2097,1000.65488037776
2097.25,1002.73818843106
2097.5,1003.92979201389
2097.75,1003.58647983837
2098,1001.67213264533
2098.25,998.434648665018
2098.5,994.123541983722
2098.75,989.039762889824
2099,983.90505344025
2099.25,979.646924574278
2099.5,977.194288157896
2099.75,977.323829432632
2100,979.675442687596
2100.25,983.374878288706
2100.5,987.545360484433
2100.75,991.377134766575
2101,994.435551562928
2101.25,996.416388724226
2101.5,997.015555258128
2101.75,996.084143152855
2102,994.22371214039
2102.25,992.262378520992
2102.5,991.028306052393
2102.75,991.169768316874
2103,992.496159332069
2103.25,994.572536990832
2103.5,996.963931153009
2103.75,999.250806084082
2104,1001.07820763154
2104.25,1002.10807047662
2104.5,1002.0023293552
2104.75,1000.57133361471
2105,998.224376357887
2105.25,995.521819695922
2105.5,993.024025743871
2105.75,991.195666171753
2106,990.105928229323
2106.25,989.721842388554
2106.5,990.010438500041
2106.75,990.835936020107
2107,991.671936693242
2107.25,991.899287706635
2107.5,990.898897767213
2107.75,988.439624422632
2108,985.598145165955
2108.25,983.726437995123
2108.5,984.17601511516
2108.75,987.550025554777
2109,992.183646129107
2109.25,995.984044715561
2109.5,996.861427986426
2109.75,993.923610321229
2110,989.293379056011
2110.25,985.560529530153
2110.5,985.310602160478
2110.75,989.745946689707
2111,996.704279919495
2111.25,1003.52150551009
2111.5,1007.54271565303
2111.75,1007.49008619783
2112,1004.91637589568
2112.25,1001.72245638032
2112.5,999.804764629962
2112.75,1000.13716235948
2113,1001.64368712343
2113.25,1002.97234412166
2113.5,1002.77443662265
2113.75,1000.3869085806
2114,996.669857604986
2114.25,992.688454768081
2114.5,989.506428643284
2114.75,987.836983246145
2115,987.58806518542
2115.25,988.554977256084
2115.5,990.532167328461
2115.75,993.1862665575
2116,995.921341786454
2116.25,998.109192535689
2116.5,999.126235131806
2116.75,998.812108545959
2117,997.858867080208
2117.25,997.050217144661
2117.5,997.164427088571
2117.75,998.453771195026
2118,1000.21323247463
2118.25,1001.63627572038
2118.5,1001.92238787503
2118.75,1000.79526168972
2119,998.901889888691
2119.25,996.98321502699
2119.5,995.774461361956
2119.75,995.477591180032
2120,995.334841399511
2120.25,994.488091403382
2120.5,992.093482170094
2120.75,988.466754964634
2121,985.92173432355
2121.25,986.969928941951
2121.5,994.089778112269
2121.75,1007.60326892915
2122,1024.38686777062
2122.25,1041.00827564238
2122.5,1054.07516315277
2122.75,1062.21638762466
2123,1066.99419968605
2123.25,1070.20123280444
2123.5,1073.62826845038
2123.75,1078.34557715787
2124,1083.61357427303
2124.25,1088.41301767929
2124.5,1091.72466526011
2124.75,1092.67857905123
2125,1091.30082662696
2125.25,1087.95018648154
2125.5,1082.98598796663
2125.75,1076.7938364041
2126,1070.36876474368
2126.25,1065.31806939251
2126.5,1063.2758898977
2126.75,1065.87196823021
2127,1073.48409135708
2127.25,1083.52056400367
2127.5,1092.95909186937
2127.75,1098.77738065357
2128,1098.6332077981
2128.25,1093.66305766617
2128.5,1086.11276627292
2128.75,1078.22864779855
2129,1072.19068034306
2129.25,1068.80236720994
2129.5,1067.56887967615
2129.75,1067.94469822944
2130,1069.38390328947
2130.25,1071.27578912203
2130.5,1072.8738834795
2130.75,1073.41463198847
2131,1072.1344802755
2131.25,1068.53070053256
2131.5,1063.32575990545
2131.75,1057.60155517026
2132,1052.44003015048
2132.25,1048.8315483823
2132.5,1046.66999081976
2132.75,1045.12640118968
2133,1043.35906337973
2133.25,1040.54617633994
2133.5,1036.43858124606
2133.75,1031.4317430096
2134,1025.95550120707
2134.25,1020.43980002386
2134.5,1015.32362173404
2134.75,1011.06182992902
2135,1008.11089931866
2135.25,1006.92623096688
2135.5,1007.73195613744
2135.75,1010.23440511102
2136,1014.06956531157
2136.25,1018.87253624696
2136.5,1023.9960136349
2136.75,1028.10852982395
2137,1029.77703810118
2137.25,1027.56910591299
2137.5,1020.89313993531
2137.75,1011.66429699057
2138,1002.26280047199
2138.25,995.068873772783
2138.5,991.79563639343
2138.75,991.381013805511
2139,992.041378769162
2139.25,991.993102655575
2139.5,989.942575837836
2139.75,986.515661110897
2140,982.80814789351
2140.25,979.915809060009
2140.5,978.622424643335
2140.75,978.601490408452
2141,979.279629129115
2141.25,980.083627041307
2141.5,980.575263127506
2141.75,980.695718572031
2142,980.452337455113
2142.25,979.852776889391
2142.5,978.971787580117
2142.75,978.034175351169
2143,977.285105448595
2143.25,976.971081080986
2143.5,977.461937743701
2143.75,979.348679893215
2144,983.245335056912
2144.25,989.737735741724
2144.5,998.10373614031
2144.75,1005.788191343
2145,1010.09899412315
2145.25,1008.41733814465
2145.5,1000.61759717902
2145.75,989.620574049732
2146,978.532417281522
2146.25,970.422870493866
2146.5,966.796730543729
2146.75,967.034758995148
2147,970.366213839926
2147.25,975.993691132269
2147.5,982.481119792015
2147.75,987.739298672411
2148,989.64947164793
2148.25,986.289392024743
2148.5,978.683353025211
2148.75,970.127063283846
2149,963.974843127168
2149.25,963.322177539439
2149.5,967.988120687014
2149.75,975.543548592867
2150,983.515341350697
2150.25,989.65821526738
2150.5,993.45702544194
2150.75,995.190570193551
2151,995.141806612632
2151.25,993.630998728475
2151.5,991.212621855345
2151.75,988.531830952649
2152,986.233978238842
2152.25,984.745004313096
2152.5,983.196415536896
2152.75,980.246677043111
2153,974.55355417717
2153.25,965.374397250436
2153.5,954.947376471985
2153.75,946.43521149909
2154,943.000867618667
2154.25,946.521701657829
2154.5,954.2000150009
2154.75,962.175745058557
2155,966.607956917744
2155.25,965.759165420036
2155.5,961.868260054396
2155.75,957.616158486532
2156,955.642182514652
2156.25,956.928785555719
2156.5,960.282760957748
2156.75,964.363128343791
2157,967.876957288256
2157.25,970.33664360139
2157.5,971.921891287541
2157.75,972.832544513228
2158,973.257645288817
2158.25,973.27778730277
2158.5,972.910955289652
2158.75,972.174376298112
2159,971.069398626239
2159.25,969.485886384054
2159.5,967.265943977624
2159.75,964.251493996526
2160,960.41415779108
2160.25,956.369618190552
2160.5,952.933102451909
2160.75,950.919770183805
2161,950.725978878451
2161.25,951.397502827933
2161.5,951.708381214628
2161.75,950.442448551999
2162,947.37975590991
2162.25,944.141007417408
2162.5,942.54581363944
2162.75,944.353738692362
2163,949.680786570898
2163.25,956.838819344543
2163.5,964.047448758194
2163.75,969.634683664587
2164,973.07813125467
2164.25,974.547760573447
2164.5,974.223053870143
2164.75,972.301271928224
2165,969.099723740423
2165.25,964.985384426975
2165.5,960.325387184262
2165.75,955.532450143408
2166,951.242719342036
2166.25,948.160684373112
2166.5,946.990563016568
2166.75,947.961227716539
2167,949.857703377283
2167.25,951.191890697334
2167.5,950.490391362039
2167.75,947.376500588008
2168,943.309845771521
2168.25,939.925119048908
2168.5,938.804309676791
2168.75,940.320637496203
2169,943.640437047653
2169.25,947.877716815223
2169.5,952.205777745192
2169.75,956.32329975735
2170,960.2034769471
2170.25,963.821894242419
2170.5,967.07982417625
2170.75,969.53175690518
2171,970.631107312129
2171.25,969.83149676613
2171.5,966.942500709567
2171.75,962.854056654954
2172,958.660303597772
2172.25,955.452079284409
2172.5,953.722374965845
2172.75,952.67723288238
2173,951.355610549032
2173.25,948.817131813419
2173.5,944.980319694745
2173.75,940.912648316767
2174,937.761812314992
2174.25,936.610439553251
2174.5,937.523512051884
2174.75,939.759465006756
2175,942.554603276893
2175.25,945.185917300993
2175.5,947.194470782875
2175.75,948.226735958694
2176,947.929531305008
2176.25,946.213572403154
2176.5,943.848582225471
2176.75,941.778770763461
2177,940.944256584066
2177.25,941.900900771446
2177.5,944.511496740708
2177.75,948.566165436053
2178,953.84187136184
2178.25,959.830846524969
2178.5,965.750175715732
2178.75,970.805705045521
2179,974.270725844533
2179.25,976.092909797308
2179.5,976.608030844998
2179.75,976.156514081153
2180,975.056022472155
2180.25,973.467005573032
2180.5,971.483539344477
2180.75,969.199464959772
2181,966.734649250997
2181.25,964.342511501061
2181.5,962.319192825053
2181.75,960.960847076722
2182,960.462291101733
2182.25,960.6601910557
2182.5,961.312128913088
2182.75,962.175788078951
2183,963.03108612657
2183.25,963.707911821432
2183.5,964.042972106987
2183.75,963.875267693793
2184,963.166714083436
2184.25,962.061735322787
2184.5,960.719554936527
2184.75,959.295058739267
2185,957.840253765287
2185.25,956.302509409048
2185.5,954.624505551361
2185.75,952.774704509941
2186,951.036012608868
2186.25,949.901420568059
2186.5,949.86775953075
2186.75,951.289786866902
2187,953.590352699872
2187.25,955.816741576164
2187.5,957.015217450528
2187.75,956.5404451501
2188,954.849096832473
2188.25,952.643890542583
2188.5,950.626579376085
2188.75,949.317564471773
2189,948.843474514796
2189.25,949.279299842578
2189.5,950.690445345839
2189.75,952.782072043267
2190,954.798415874189
2190.25,955.953606907681
2190.5,955.527694220431
2190.75,953.764688872109
2191,951.639378732499
2191.25,950.144709469594
2191.5,950.007257656572
2191.75,949.866212521198
2192,947.37661319353
2192.25,940.187715158976
2192.5,927.075347799957
2192.75,911.572769974205
2193,898.468841148384
2193.25,892.534109326975
2193.5,895.556432298673
2193.75,903.064735721839
2194,909.799207287293
2194.25,910.89638600071
2194.5,906.390136950758
2194.75,899.617145053261
2195,893.975951301094
2195.25,891.895496971307
2195.5,891.996407095121
2195.75,891.964432837448
2196,889.542962175924
2196.25,884.363346589091
2196.5,878.322967335234
2196.75,873.453246342275
2197,871.456554882314
2197.25,872.060674047816
2197.5,874.260205304575
2197.75,877.044325145916
2198,879.210506347596
2198.25,879.289674488144
2198.5,875.793063309049
2198.75,867.761015456142
2199,857.369039453309
2199.25,847.943059798436
2199.5,842.753130732083
2199.75,842.380232782353
2200,843.627624742291
2200.25,843.015295780773
2200.5,838.21515189946
2200.75,831.585240515412
2201,826.675095893588
2201.25,826.737753756092
2201.5,830.960966211341
2201.75,835.582637129743
2202,836.810387763808
2202.25,833.256461867281
2202.5,827.411602548992
2202.75,822.118523971745
2203,819.613153655763
2203.25,819.479641252439
2203.5,820.577932321707
2203.75,821.838869350325
2204,822.971885930327
2204.25,824.167814063425
2204.5,825.610241710539
2204.75,826.919173826176
2205,826.979801964221
2205.25,824.628489338953
2205.5,819.463201611472
2205.75,813.353880244129
2206,808.592257074743
2206.25,807.091447816032
2206.5,807.954588642463
2206.75,809.020754257818
2207,808.221840373306
2207.25,805.18333469522
2207.5,800.953384379637
2207.75,796.62045746832
2208,793.037164731
2208.25,790.688038788386
2208.5,790.02515783144
2208.75,791.227767969786
2209,793.750852778
2209.25,796.930559269679
2209.5,800.167179478026
2209.75,803.134379876388
2210,805.57864035572
2210.25,807.253868924903
2210.5,807.970497139462
2210.75,807.56494271143
2211,805.890696568685
2211.25,803.091046882867
2211.5,799.552576945418
2211.75,795.669164596451
2212,791.820182133156
2212.25,788.36285607195
2212.5,785.651932658304
2212.75,783.772826822064
2213,782.120642082583
2213.25,779.98143993141
2213.5,776.929990260069
2213.75,773.671581631143
2214,771.188180995615
2214.25,770.34609035532
2214.5,771.360900435152
2214.75,774.220829015424
2215,778.730054935755
2215.25,783.348139055948
2215.5,785.937332491813
2215.75,784.651608256151
2216,780.650468491586
2216.25,776.851157047777
2216.5,776.048170294056
2216.75,778.475685642768
2217,782.174670729642
2217.25,785.15304387496
2217.5,786.503443920099
2217.75,786.537438497936
2218,785.630081471649
2218.25,784.068302681224
2218.5,781.99723249199
2218.75,779.549632677946
2219,776.994502468451
2219.25,774.926628383437
2219.5,773.988415912455
2219.75,774.437937614468
2220,775.230798666331
2220.25,775.046961953093
2220.5,773.087840754436
2220.75,770.910500988199
2221,770.736890287037
2221.25,774.222245697782
2221.5,779.550011430931
2221.75,783.589586975882
2222,783.681180691361
2222.25,780.950864559694
2222.5,778.341183981941
2222.75,778.588598358049
2223,781.635073167638
2223.25,785.485074222075
2223.5,788.182954553869
2223.75,789.370192300412
2224,790.174197079628
2224.25,791.752269125806
2224.5,794.090297356152
2224.75,795.568817835023
2225,794.458781829893
2225.25,790.177243197139
2225.5,784.588318119427
2225.75,779.870793821824
2226,777.652302563492
2226.25,777.579989974423
2226.5,778.856320170152
2226.75,780.69102712781
2227,782.331315838555
2227.25,783.036429317478
2227.5,782.213304281243
2227.75,780.360822007438
2228,778.4674478071
2228.25,777.460753317171
2228.5,777.536860929189
2228.75,778.421566097961
2229,779.833506161268
2229.25,781.502253377905
2229.5,783.166828370318
2229.75,784.583169565187
2230,786.022901549212
2230.25,788.360800650542
2230.5,792.492155520743
2230.75,798.284508445238
2231,803.882214630586
2231.25,807.266608820554
2231.5,807.245213136047
2231.75,804.81078120377
2232,801.313214019594
2232.25,797.984500277642
2232.5,795.442014083265
2232.75,794.103519133781
2233,794.290376337596
2233.25,795.357742317394
2233.5,796.103226832985
2233.75,795.370273384412
2234,793.046420791756
2234.25,789.979091123376
2234.5,787.048527932042
2234.75,784.979924055188
2235,784.26752495653
2235.25,785.38435725659
2235.5,788.267758822795
2235.75,791.6474536489
2236,794.087920481168
2236.25,794.781659602714
2236.5,795.043678569146
2236.75,796.63693139531
2237,800.911362476838
2237.25,806.844853661096
2237.5,812.570047645717
2237.75,816.352210236032
2238,817.873535197633
2238.25,817.669315648304
2238.5,816.284751834475
2238.75,814.2079595818
2239,811.859671424066
2239.25,809.656005650934
2239.5,807.771798790533
2239.75,805.793564312682
2240,803.219838889037
2240.25,799.805972617516
2240.5,796.580819624545
2240.75,794.967253424595
2241,796.195256251484
2241.25,799.613925606289
2241.5,803.511545904306
2241.75,806.230049934309
2242,807.388621606673
2242.25,807.767127738935
2242.5,808.18072932607
2242.75,808.975891615262
2243,809.739551252551
2243.25,809.989431224264
2243.5,809.543894414747
2243.75,809.155479629112
2244,809.757641792705
2244.25,812.022920828032
2244.5,814.950576575094
2244.75,816.879236662636
2245,816.287931832871
2245.25,813.740444643529
2245.5,811.385040029464
2245.75,811.378980513383
2246,814.089663954485
2246.25,817.136464160934
2246.5,817.906137102135
2246.75,814.966105878699
2247,810.46530911396
2247.25,807.229253612797
2247.5,807.60749739576
2247.75,810.659755219163
2248,814.055843513954
2248.25,815.600863613215
2248.5,815.257017237376
2248.75,814.677753677821
2249,815.539875348772
2249.25,818.199975426256
2249.5,820.966923653429
2249.75,821.973593718231
2250,820.349833399777
2250.25,818.431587669668
2250.5,819.19801066921
2250.75,825.054586311468
2251,833.959128365646
2251.25,841.791635192158
2251.5,844.568542691005
2251.75,841.632598697425
2252,835.607924487572
2252.25,829.256673658939
2252.5,824.567006947351
2252.75,821.414934972091
2253,819.319498905813
2253.25,817.853254302282
2253.5,816.97265244206
2253.75,816.8017678808
2254,817.449956380174
2254.25,818.72186668994
2254.5,820.142839429975
2254.75,821.230239710521
2255,821.746904765531
2255.25,821.912730299891
2255.5,821.997478292996
2255.75,822.268311059769
2256,822.981396841672
2256.25,824.389998082584
2256.5,826.680749795761
2256.75,829.336553156439
2257,831.417795263231
2257.25,831.997504402042
2257.5,830.89185714669
2257.75,828.898976729014
2258,826.884269464315
2258.25,825.559413185377
2258.5,825.130562892733
2258.75,825.70011520101
2259,827.294569090002
2259.25,829.296378492147
2259.5,830.763267594364
2259.75,830.786132150327
2260,829.486270192142
2260.25,828.147831657005
2260.5,828.116140833618
2260.75,830.018583240592
2261,832.525957353956
2261.25,833.978851601984
2261.5,833.050035263136
2261.75,830.731945772871
2262,829.006002843104
2262.25,829.787812217437
2262.5,833.249465842955
2262.75,837.734816676181
2263,841.503254111098
2263.25,843.495105261059
2263.5,844.323740968818
2263.75,844.854833698323
2264,845.813816403049
2264.25,846.895981339177
2264.5,847.337368957852
2264.75,846.391658299492
2265,843.989464122658
2265.25,840.891493787919
2265.5,837.909234377765
2265.75,835.732440708734
2266,834.611097310803
2266.25,834.695913895073
2266.5,836.08051974657
2266.75,838.230695985934
2267,840.223497225248
2267.25,841.139846529787
2267.5,840.604838104685
2267.75,839.067550577494
2268,837.045713992809
2268.25,835.09476548246
2268.5,833.931196761046
2268.75,834.314490732531
2269,836.897477058438
2269.25,840.913388586551
2269.5,844.586316683027
2269.75,846.136477193285
2270,845.26649102618
2270.25,844.258967566932
2270.5,845.655069410763
2270.75,851.297686277956
2271,859.32451512846
2271.25,866.649019338858
2271.5,870.289983965831
2271.75,869.468383761566
2272,865.482768904477
2272.25,859.712821078947
2272.5,853.388482782024
2272.75,847.218364276729
2273,841.797689995527
2273.25,837.690400276697
2273.5,835.004035042888
2273.75,833.500686842067
2274,832.933306967857
2274.25,832.981038518854
2274.5,833.178280258268
2274.75,833.042603987761
2275,832.288209473541
2275.25,831.646835608493
2275.5,832.178387536418
2275.75,834.859000939385
2276,839.31795975146
2276.25,844.099127080751
2276.5,847.723186886023
2276.75,849.63695609478
2277,851.082938668023
2277.25,853.509533339335
2277.5,858.014778076415
2277.75,863.571188731663
2278,868.354002258589
2278.25,870.57402528214
2278.5,869.550425695437
2278.75,865.87620783498
2279,860.214655727167
2279.25,853.461824192056
2279.5,847.542579430512
2279.75,844.665933662434
2280,846.892006777934
2280.25,853.251501539556
2280.5,859.950297934353
2280.75,863.090126856155
2281,860.554017267934
2281.25,854.845918815537
2281.5,849.209328767446
2281.75,846.591349165376
2282,846.823921895262
2282.25,847.875740339355
2282.5,847.709449314732
2282.75,845.726342674972
2283,843.747060419062
2283.25,843.824191112981
2283.5,847.500961174461
2283.75,853.656264176001
2284,860.300760177846
2284.25,865.499571077169
2284.5,868.395467862528
2284.75,869.114712820564
2285,867.819656931255
2285.25,864.74479683658
2285.5,860.349917250413
2285.75,855.138655916276
2286,849.627475731281
2286.25,844.516530212539
2286.5,840.643292696297
2286.75,838.845759734046
2287,839.366144842429
2287.25,841.114326957085
2287.5,842.819435600268
2287.75,843.386092089647
2288,842.849944502293
2288.25,841.695206213518
2288.5,840.408901881406
2288.75,839.52254469409
2289,839.615599377114
2289.25,841.269468101773
2289.5,844.584198833848
2289.75,848.259827836063
2290,850.743275539977
2290.25,850.745303026408
2290.5,849.324602313093
2290.75,848.771000571103
2291,851.35017699696
2291.25,857.316646963648
2291.5,863.857794481303
2291.75,867.902942428631
2292,867.136684047974
2292.25,862.867755664204
2292.5,857.490629174416
2292.75,853.338940396307
2293,851.102597939441
2293.25,849.682340430898
2293.5,847.888758880832
2293.75,845.009932812672
2294,841.990522552905
2294.25,840.134202231756
2294.5,840.603562656019
2294.75,842.853462316204
2295,845.204005095953
2295.25,845.970869919598
2295.5,844.754504760476
2295.75,843.358856027083
2296,843.804577510488
2296.25,847.559926921547
2296.5,853.209953963147
2296.75,858.402105764069
2297,860.896824920329
2297.25,860.674001616223
2297.5,859.735305603424
2297.75,860.155586716696
2298,863.000757856986
2298.25,866.301634743558
2298.5,867.520642904986
2298.75,864.384120915822
2299,857.81014763931
2299.25,850.836316109465
2299.5,846.532285379719
2299.75,846.457725822794
2300,848.686664043702
2300.25,850.802869690147
2300.5,850.752878611351
2300.75,849.164853358236
2301,847.869087788148
2301.25,848.664580466969
2301.5,851.878394403502
2301.75,855.905169370656
2302,859.008332891837
2302.25,859.95729122739
2302.5,859.521045995053
2302.75,858.962490634954
2303,859.477156029891
2303.25,861.113256420754
2303.5,862.958605804517
2303.75,864.072164460611
2304,863.984584410081
2304.25,863.503109180475
2304.5,863.648835682464
2304.75,865.31826119717
2305,868.008267398693
2305.25,870.335427805507
2305.5,870.907061627668
2305.75,869.066670951225
2306,865.710137398772
2306.25,861.930093941633
2306.5,858.766790121631
2306.75,856.783044222487
2307,856.286426348597
2307.25,857.574873030844
2307.5,860.350849173248
2307.75,863.286288323939
2308,864.950593465049
2308.25,864.203366221149
2308.5,861.655447340315
2308.75,858.571333862688
2309,856.197884388809
2309.25,855.071336567489
2309.5,854.815460466016
2309.75,854.994104437858
2310,855.243761483172
2310.25,855.512771829465
2310.5,855.833138166548
2310.75,856.223361945148
2311,856.460530046285
2311.25,856.113432169117
2311.5,854.744455532115
2311.75,852.183118317971
2312,848.981005592315
2312.25,845.810501326159
2312.5,843.294089134772
2312.75,841.561178418922
2313,840.460036268166
2313.25,839.8353959496
2313.5,839.516289689867
2313.75,839.307368693956
2314,839.011181675682
2314.25,838.461081868728
2314.5,837.624162635689
2314.75,836.503803694165
2315,835.141732258979
2315.25,834.117065506215
2315.5,834.404747689049
2315.75,836.979325602382
2316,841.87869321075
2316.25,847.4315417341
2316.5,851.784703564168
2316.75,853.566646610007
2317,853.792365895694
2317.25,854.214686732276
2317.5,856.488916490467
2317.75,860.228467490273
2318,863.113139703738
2318.25,862.747633708952
2318.5,857.976648302859
2318.75,851.319332733147
2319,845.972255456942
2319.25,844.852517835169
2319.5,847.410687048012
2319.75,850.752931984443
2320,851.95793264776
2320.25,849.793676995959
2320.5,846.142577838978
2320.75,843.222688473412
2321,842.851979679661
2321.25,844.409335627508
2321.5,846.354569727217
2321.75,847.19489303144
2322,846.626129876895
2322.25,845.56693387953
2322.5,844.991599051118
2322.75,845.511364415311
2323,846.662382404304
2323.25,847.782746184119
2323.5,848.29795855599
2323.75,848.472030021911
2324,849.036031661807
2324.25,850.714521361306
2324.5,853.517575449368
2324.75,856.335710375106
2325,857.961706527377
2325.25,857.450516957877
2325.5,855.154315798111
2325.75,851.8257718525
2326,848.207874351697
2326.25,844.815508244319
2326.5,841.933876421507
2326.75,839.838075632918
2327,838.809456539107
2327.25,839.148094185921
2327.5,841.157552983375
2327.75,844.980926615605
2328,849.304573874248
2328.25,852.038553426262
2328.5,851.130342019471
2328.75,846.622621422268
2329,841.507941494196
2329.25,839.000740312654
2329.5,841.49113175876
2329.75,847.668373375661
2330,855.183568675106
2330.25,861.774743773077
2330.5,866.452939747177
2330.75,869.194845252246
2331,870.001809393991
2331.25,869.068407473328
2331.5,867.05358725452
2331.75,864.684629606263
2332,862.631285932884
2332.25,860.956094198397
2332.5,859.357223414571
2332.75,857.529357705269
2333,855.368519997854
2333.25,853.175190341342
2333.5,851.298248779627
2333.75,850.012985948388
2334,849.060809660025
2334.25,847.947693417643
2334.5,846.198444084934
2334.75,844.101780689673
2335,842.934000591543
2335.25,844.036923374005
2335.5,848.129848271622
2335.75,853.543519747487
2336,858.035898515169
2336.25,859.529918580457
2336.5,858.081073628321
2336.75,855.230051411071
2337,852.545109121174
2337.25,851.057934138621
2337.5,850.609657772191
2337.75,850.881339545541
2338,851.530415107487
2338.25,852.034020105474
2338.5,851.786191624163
2338.75,850.196640046464
2339,847.356442155203
2339.25,844.274884126845
2339.5,842.026063081274
2339.75,841.363897180661
2340,841.690984159782
2340.25,842.053478173302
2340.5,841.555699845516
2340.75,840.125332987061
2341,838.300674374842
2341.25,836.633070192876
2341.5,835.501259383638
2341.75,834.945241038624
2342,834.965600692689
2342.25,835.5347305579
2342.5,836.471717296297
2342.75,837.543789296015
2343,838.523905517593
2343.25,839.287437339542
2343.5,839.797705903944
2343.75,840.021246132272
2344,839.994261256897
2344.25,839.905655418009
2344.5,839.964576358774
2344.75,840.278037326997
2345,840.301295038908
2345.25,839.23345141303
2345.5,836.318511184657
2345.75,831.917064504037
2346,827.546486976967
2346.25,824.776667774941
2346.5,824.555665606631
2346.75,826.160052303366
2347,828.588432989355
2347.25,830.884088661337
2347.5,832.386185679642
2347.75,832.554182650684
2348,830.88802761588
2348.25,827.735090162865
2348.5,824.250060950733
2348.75,821.618441711959
2349,820.713193957184
2349.25,821.691358261677
2349.5,824.610156201823
2349.75,829.326421947451
2350,834.621939790074
2350.25,838.919511177235
2350.5,840.750820831488
2350.75,840.263073770394
2351,838.838238696019
2351.25,837.884464666762
2351.5,838.149483955368
2351.75,839.072624785347
2352,839.939227094133
2352.25,840.138854289501
2352.5,839.640848014693
2352.75,838.614979686012
2353,837.227754269316
2353.25,835.576574751567
2353.5,833.695088335875
2353.75,831.615159141583
2354,829.53902461946
2354.25,828.07231269482
2354.5,827.879030513759
2354.75,829.498151423541
2355,832.682022821756
2355.25,836.877837901577
2355.5,841.522464554439
2355.75,845.866668231636
2356,848.993121067132
2356.25,849.981305536943
2356.5,848.668813518308
2356.75,846.667325235965
2357,845.841920914883
2357.25,847.76700704994
2357.5,851.748145949766
2357.75,856.024818184346
2358,858.853581292131
2358.25,859.399618351733
2358.5,858.011127201426
2358.75,855.115638511252
2359,851.264924938139
2359.25,847.559171545478
2359.5,845.249831646621
2359.75,845.504053632117
2360,847.920647245685
2360.25,850.712011369177
2360.5,852.045598382221
2360.75,851.030438213512
2361,849.079646581633
2361.25,847.952253361748
2361.5,849.176469227111
2361.75,852.332844150572
2362,856.02450219515
2362.25,858.862769615132
2362.5,860.198647286323
2362.75,860.430404056822
2363,860.035720486141
2363.25,859.479688632156
2363.5,859.166253910242
2363.75,859.48082247207
2364,860.78999258541
2364.25,863.018538430299
2364.5,865.644159189153
2364.75,868.124699583015
2365,869.914630689966
2365.25,870.456993298157
2365.5,869.192409765089
2365.75,865.648554455517
2366,860.744358453588
2366.25,856.517004795408
2366.5,855.034204467658
2366.75,857.276434193021
2367,861.101326620997
2367.25,863.809297351538
2367.5,862.977532516051
2367.75,859.12541524687
2368,854.547496984297
2368.25,851.554875459447
2368.5,851.341732776596
2368.75,852.845965406847
2369,854.733657244256
2369.25,855.895367829424
2369.5,856.740409557108
2369.75,858.307548312147
2370,861.610609103032
2370.25,866.661991770871
2370.5,872.199639566599
2370.75,876.878929216875
2371,879.615848781225
2371.25,880.474436981859
2371.5,879.83476742092
2371.75,878.073018270907
2372,875.456078938756
2372.25,872.129493072969
2372.5,868.232479663311
2372.75,864.045405408133
2373,860.516813302351
2373.25,858.792768818934
2373.5,859.969779677757
2373.75,863.838632033852
2374,868.78542245205
2374.25,873.126848978253
2374.5,875.547856198895
2374.75,876.055599516427
2375,874.953881055758
2375.25,872.570066140091
2375.5,869.675822634925
2375.75,867.438815851594
2376,867.040528440943
2376.25,869.201371414158
2376.5,873.044932444807
2376.75,877.349348750418
2377,880.931918506007
2377.25,883.244459679541
2377.5,884.253334319402
2377.75,883.93976146261
2378,882.385219884438
2378.25,880.002195877877
2378.5,877.27139055164
2378.75,874.671979054849
2379,872.652296576222
2379.25,871.632032941569
2379.5,872.029788539189
2379.75,874.029575518626
2380,876.94308551817
2380.25,879.879291688309
2380.5,881.964344622275
2380.75,882.659352577443
2381,881.730036789701
2381.25,878.953210351731
2381.5,874.382193126144
2381.75,869.135832120237
2382,864.589599256067
2382.25,862.061753256242
2382.5,861.532679822871
2382.75,861.632571364841
2383,860.931987675748
2383.25,858.578118953571
2383.5,855.736797109998
2383.75,854.015332892995
2384,854.883232611557
2384.25,857.752785017125
2384.5,860.455052110654
2384.75,860.784650550983
2385,857.600082989359
2385.25,852.238387918564
2385.5,846.388844391037
2385.75,841.648243267555
2386,838.782850994706
2386.25,838.120231707724
2386.5,839.971677835144
2386.75,844.037344413323
2387,849.136719964618
2387.25,854.02081898515
2387.5,857.692288837685
2387.75,860.146004789309
2388,861.621373864182
2388.25,862.365144193188
2388.5,862.738924307906
2388.75,863.195380099208
2389,864.189128755827
2389.25,865.885563414265
2389.5,867.686792165546
2389.75,868.870473226525
2390,868.767155339922
2390.25,867.283237793039
2390.5,864.678917986075
2390.75,861.220360556179
2391,857.328844092518
2391.25,853.763156084259
2391.5,851.326451728918
2391.75,850.623277910643
2392,850.591618065113
2392.25,849.336968204782
2392.5,844.999483137418
2392.75,837.796578751495
2393,830.968326305029
2393.25,827.993064640949
2393.5,831.272325203676
2393.75,838.481869261059
2394,846.001408905286
2394.25,850.460513337561
2394.5,851.496399740372
2394.75,850.736586277316
2395,849.838557137081
2395.25,849.882440737501
2395.5,850.872767523496
2395.75,852.696638097549
2396,855.188915622592
2396.25,857.870087798019
2396.5,860.143598075599
2396.75,861.423431141055
2397,861.434507502221
2397.25,860.253000834208
2397.5,857.973924514015
2397.75,854.789811148918
2398,851.272491964872
2398.25,848.08600231677
2398.5,845.855946930601
2398.75,844.578063295145
2399,843.733547296329
2399.25,842.789416620725
2399.5,841.429724997046
2399.75,839.837350493825
2400,838.264985764813
2400.25,836.971074638926
2400.5,836.25425837227
2400.75,836.430329965095
2401,837.787061491378
2401.25,839.848339511939
2401.5,841.302264911158
2401.75,840.79540642912
2402,837.802867389966
2402.25,834.138626937412
2402.5,832.026433336239
2402.75,833.446819282147
2403,838.28883264168
2403.25,845.375298048707
2403.5,853.533523260972
2403.75,862.026601036996
2404,870.646823540474
2404.25,879.218362463495
2404.5,887.187216787641
2404.75,892.598926491047
2405,893.174921645112
2405.25,886.786294280859
2405.5,874.593515493642
2405.75,860.963697195441
2406,850.397062241714
2406.25,846.351883937381
2406.5,847.381608393107
2406.75,850.597753940305
2407,853.195675752486
2407.25,853.943186471621
2407.5,853.00314442587
2407.75,850.587065305015
2408,847.055070593863
2408.25,843.162816750039
2408.5,839.731044366372
2408.75,837.4860345471
2409,836.286391048724
2409.25,835.523893104715
2409.5,834.593314814781
2409.75,833.222496471382
2410,831.597777554284
2410.25,829.938882409214
2410.5,828.435810192695
2410.75,827.172466388069
2411,826.20909654522
2411.25,825.573673600489
2411.5,824.981254107207
2411.75,823.97111277769
2412,822.085489997207
2412.25,819.042763658152
2412.5,814.781772289274
2412.75,809.255900485141
2413,802.898684624093
2413.25,797.481061104442
2413.5,795.004978844303
2413.75,796.837385388538
2414,800.718642330182
2414.25,803.103697350964
2414.5,800.87361877864
2414.75,795.289195261475
2415,790.179186325342
2415.25,789.285442112079
2415.5,793.472453678291
2415.75,800.653778135543
2416,808.615898694307
2416.25,815.570276110204
2416.5,820.385273218799
2416.75,821.986252879799
2417,820.011592686741
2417.25,816.154854174172
2417.5,812.477667270712
2417.75,810.724985575775
2418,810.462995697775
2418.25,810.341213028776
2418.5,809.077132390596
2418.75,806.568539385624
2419,803.684731981023
2419.25,801.314200159598
2419.5,799.767250731987
2419.75,798.460904573501
2420,796.735870490457
2420.25,794.067432885483
2420.5,790.300967458848
2420.75,785.34491553428
2421,779.3104248181
2421.25,773.283750888825
2421.5,768.643992640726
2421.75,766.575037655761
2422,766.811483202178
2422.25,768.435940686914
2422.5,770.593416631209
2422.75,773.045755766956
2423,775.893282980113
2423.25,779.246807616954
2423.5,783.30339905808
2423.75,788.318187768437
2424,794.479160873737
2424.25,800.68066104787
2424.5,804.660144106316
2424.75,804.158943328572
2425,798.892150902914
2425.25,791.285855565909
2425.5,783.960232553814
2425.75,778.507688392275
2426,773.944833171719
2426.25,768.891261862803
2426.5,762.585605651126
2426.75,756.605925342134
2427,753.082827673238
2427.25,753.40775823994
2427.5,755.462820814958
2427.75,756.089716124596
2428,752.974878666576
2428.25,747.963635438048
2428.5,744.17880123025
2428.75,743.974251930966
2429,745.631654083526
2429.25,746.090279856029
2429.5,743.1339906297
2429.75,738.707046961521
2430,736.031344446963
2430.25,737.475191347214
2430.5,741.403288534004
2430.75,745.008014595562
2431,746.12047057497
2431.25,745.102898871452
2431.5,742.944297007509
2431.75,740.411887808595
2432,737.445480670186
2432.25,733.791993119668
2432.5,729.469372383697
2432.75,725.425516243063
2433,722.806945480598
2433.25,722.155282786896
2433.5,722.293315112735
2433.75,721.745839663751
2434,719.878904513733
2434.25,717.817123237386
2434.5,716.888398177136
2434.75,717.396137444223
2435,718.064498099776
2435.25,717.528114582216
2435.5,715.642346147461
2435.75,713.59154978803
2436,712.563696347182
2436.25,712.780841550509
2436.5,713.712573387923
2436.75,714.875931186948
2437,716.386819589209
2437.25,718.675030475913
2437.5,722.042853353212
2437.75,726.060656793892
2438,730.043369930951
2438.25,733.344980242078
2438.5,735.47139237118
2438.75,735.96530231666
2439,734.555602007468
2439.25,731.538174955773
2439.5,727.317129198703
2439.75,722.617437812761
2440,718.994462399795
2440.25,718.126927458107
2440.5,720.405883829805
2440.75,723.621179416015
2441,725.286502996492
2441.25,724.727086812169
2441.5,723.857754103093
2441.75,724.732297671594
2442,727.755575808589
2442.25,731.520121127656
2442.5,734.598728446414
2442.75,736.810951965
2443,739.020648261623
2443.25,742.036895273083
2443.5,745.535232372016
2443.75,748.397460892768
2444,749.627876959675
2444.25,749.791713386258
2444.5,750.436647982848
2444.75,752.940431218903
2445,756.628165947466
2445.25,759.546945805283
2445.5,759.924261257485
2445.75,758.232322860977
2446,756.355840092072
2446.25,756.107713080719
2446.5,758.079729452924
2446.75,762.008994888343
2447,767.553785530481
2447.25,773.498293527919
2447.5,777.974922624998
2447.75,779.238796675858
2448,778.022001010525
2448.25,777.195919708361
2448.5,779.616757737918
2448.75,785.487964497448
2449,791.911648477369
2449.25,795.849422230874
2449.5,796.468094316808
2449.75,796.39961187244
2450,798.576421539298
2450.25,804.480707142785
2450.5,811.847698590597
2450.75,817.815583207997
2451,820.163863145526
2451.25,819.597040254111
2451.5,817.65306641817
2451.75,815.815900023521
2452,814.979789137591
2452.25,815.676117695968
2452.5,818.403529203885
2452.75,822.690565324901
2453,826.85870788763
2453.25,829.155952764145
2453.5,828.77260000366
2453.75,827.332260980706
2454,826.846054594565
2454.25,828.924662026469
2454.5,832.509547575685
2454.75,835.450661818447
2455,835.693824965361
2455.25,833.222261720692
2455.5,829.930278592445
2455.75,827.783866254612
2456,828.15653384684
2456.25,831.025601402333
2456.5,836.167399021181
2456.75,843.155941760777
2457,850.360325393829
2457.25,855.705399182799
2457.5,857.225423292361
2457.75,855.257341441757
2458,852.319884597794
2458.25,851.017121522044
2458.5,853.019483849551
2458.75,857.16338981817
2459,861.749532934528
2459.25,865.184145414105
2459.5,867.006930624506
2459.75,867.446818874998
2460,866.743595921442
2460.25,865.291804420176
2460.5,863.7976614652
2460.75,863.004794942746
2461,863.565326724198
2461.25,865.383143682117
2461.5,867.996391701105
2461.75,870.942866245192
2462,873.905068079636
2462.25,876.799873075049
2462.5,879.565544595862
2462.75,882.172215180477
2463,884.799484145852
2463.25,887.711523911189
2463.5,891.16896148935
2463.75,895.176427420401
2464,899.324030243723
2464.25,903.164065123888
2464.5,906.222195539215
2464.75,907.797668232263
2465,907.075390236659
2465.25,903.240985627647
2465.5,896.31833025826
2465.75,888.541980797267
2466,882.506665328286
2466.25,880.6925010604
2466.5,883.230668925968
2466.75,888.052647021165
2467,893.005189575519
2467.25,896.306645745372
2467.5,897.656374113885
2467.75,897.122647897954
2468,894.785360527096
2468.25,891.106862699082
2468.5,887.009599941144
2468.75,883.443331953855
2469,881.255880829444
2469.25,880.642350631517
2469.5,881.54051207508
2469.75,883.882947193869
2470,887.284466596588
2470.25,890.840258925165
2470.5,893.597492577495
2470.75,894.738410883577
2471,894.505380956243
2471.25,893.641243836961
2471.5,892.890842944012
2471.75,892.809996503641
2472,893.539174064042
2472.25,895.163623179747
2472.5,897.724472453725
2472.75,900.68294951018
2473,903.091656472768
2473.25,903.994697935973
2473.5,902.863660616268
2473.75,900.644425991198
2474,898.600468046851
2474.25,897.972748205926
2474.5,899.278636253293
2474.75,902.174880050655
2475,906.268050180528
2475.25,911.10558895068
2475.5,915.851983828982
2475.75,919.519159095456
2476,921.12242230682
2476.25,920.353883118947
2476.5,918.358938803295
2476.75,916.471121494049
2477,915.976382694662
2477.25,917.20529854882
2477.5,919.604440964441
2477.75,922.587102423951
2478,925.619882737469
2478.25,928.489640055406
2478.5,931.102274361263
2478.75,933.363868582679
2479,935.175785248863
2479.25,936.428049542002
2479.5,937.009019481507
2479.75,936.816624219212
2480,936.042997406777
2480.25,935.222667057132
2480.5,934.909439858982
2480.75,935.585494114389
2481,936.977709277273
2481.25,938.360067654586
2481.5,939.000408185124
2481.75,938.351155085194
2482,936.712438626791
2482.25,934.627589205717
2482.5,932.639744998454
2482.75,931.245779031282
2483,930.838779241135
2483.25,931.797703336955
2483.5,934.483740494155
2483.75,938.776222611678
2484,944.028079257722
2484.25,949.56554061709
2484.5,954.707757415115
2484.75,958.708897365497
2485,960.788186585812
2485.25,960.16451512754
2485.5,956.45461134303
2485.75,951.238265829933
2486,946.699696516635
2486.25,945.02277918342
2486.5,947.494928860322
2486.75,952.662806514823
2487,958.551111656589
2487.25,963.199105342314
2487.5,965.683985874421
2487.75,966.794057126917
2488,967.477457147502
2488.25,968.652414817933
2488.5,970.410593111873
2488.75,971.931824806331
2489,972.348929115152
2489.25,970.882802442002
2489.5,968.123480157994
2489.75,965.741802406303
2490,965.438006897691
2490.25,968.672006918547
2490.5,974.444184646959
2490.75,980.313649060627
2491,983.821254084557
2491.25,982.930121221717
2491.5,978.365045611494
2491.75,971.960834514352
2492,965.55530942359
2492.25,960.884111028082
2492.5,959.1345698368
2492.75,961.31088348153
2493,968.417072729497
2493.25,980.749452913384
2493.5,996.112890539783
2493.75,1011.76427440443
2494,1024.96370403302
2494.25,1033.99406026851
2494.5,1039.6167826836
2494.75,1042.9614269012
2495,1045.15745367473
2495.25,1047.09095459752
2495.5,1048.87831529659
2495.75,1050.48411888601
2496,1051.87294847986
2496.25,1053.0237750985
2496.5,1053.99367138012
2496.75,1054.86608557532
2497,1055.72448645821
2497.25,1056.62731580653
2497.5,1057.36622991904
2497.75,1057.57158088711
2498,1056.87147905682
2498.25,1054.90798538045
2498.5,1051.69992259286
2498.75,1047.67682404614
2499,1043.28897931266
2499.25,1038.98577889118
2499.5,1035.09987133809
2499.75,1031.73276576654
2500,1028.95878895354
2500.25,1026.85227071138
2500.5,1025.49425935112
2500.75,1024.98678469039
2501,1025.43596101613
2501.25,1026.94790261529
2501.5,1029.51143090139
2501.75,1032.60981070939
2502,1035.59012694038
2502.25,1037.79946254518
2502.5,1038.67554854551
2502.75,1038.19841896306
2503,1036.54889380941
2503.25,1033.90811889323
2503.5,1030.4830584167
2503.75,1026.73349544862
2504,1023.26234481676
2504.25,1020.67415100707
2504.5,1019.52925785084
2504.75,1019.68078605712
2505,1020.41298822333
2505.25,1020.99399903507
2505.5,1020.71403685249
2505.75,1019.3633645279
2506,1017.22795040292
2506.25,1014.6149786725
2506.5,1011.83369585688
2506.75,1009.26504423469
2507,1007.37847409217
2507.25,1006.64890733692
2507.5,1007.54639333558
2507.75,1010.30934948324
2508,1014.84830517991
2508.25,1021.04893427097
2508.5,1028.78735927932
2508.75,1037.39130546949
2509,1045.35237873281
2509.25,1051.09186071501
2509.5,1053.03802636314
2509.75,1050.60028608478
2510,1045.17083505971
2510.25,1038.38084618268
2510.5,1031.86148959156
2510.75,1027.01971001027
2511,1024.42688110252
2511.25,1024.45978133903
2511.5,1027.4951891905
2511.75,1033.66291472479
2512,1041.73924168969
2512.25,1050.03914359444
2512.5,1056.87720378658
2512.75,1060.77327126275
2513,1061.84601782669
2513.25,1060.96401346511
2513.5,1059.00014065436
2513.75,1056.81561312876
2514,1055.05878945028
2514.25,1054.19209643823
2514.5,1054.67170774415
2514.75,1056.94784263394
2515,1061.07618037352
2515.25,1066.47840776397
2515.5,1072.51896293836
2515.75,1078.56237657839
2516,1084.11085464366
2516.25,1089.08060859084
2516.5,1093.46535231422
2516.75,1097.25879970815
2517,1100.40392977224
2517.25,1102.44884850968
2517.5,1102.7565759122
2517.75,1100.68907051832
2518,1095.62934758353
2518.25,1087.81886736877
2518.5,1078.63786741301
2518.75,1069.54511569244
2519,1061.99938018316
2519.25,1057.22386680937
2519.5,1055.49981196571
2519.75,1056.87302931342
2520,1061.3893325137
2520.25,1068.9460026385
2520.5,1078.15680110795
2520.75,1086.97851964398
2521,1093.36263596826
2521.25,1095.34530635163
2521.5,1092.90831257001
2521.75,1087.97796191425
2522,1082.56502022638
2522.25,1078.67927289012
2522.5,1077.54219759574
2522.75,1078.16734393859
2523,1079.18463307392
2523.25,1079.22398615696
2523.5,1077.15954618627
2523.75,1073.64547952996
2524,1070.12411296697
2524.25,1068.04128880568
2524.5,1068.79174142258
2524.75,1072.52811692477
2525,1078.12280281994
2525.25,1084.3894424253
2525.5,1090.14454368063
2525.75,1094.70159905717
2526,1098.43311692322
2526.25,1101.84748085866
2526.5,1105.45307444341
2526.75,1109.62247245371
2527,1113.89886607394
2527.25,1117.51242558006
2527.5,1119.69274287752
2527.75,1119.69598747862
2528,1117.61894332671
2528.25,1114.55044169378
2528.5,1111.63643875701
2528.75,1110.0228906936
2529,1110.64355574992
2529.25,1113.46535411613
2529.5,1118.17999259102
2529.75,1124.4791582166
2530,1132.0441651948
2530.25,1140.33547213003
2530.5,1148.60209958653
2530.75,1156.08457992133
2531,1162.02344549649
2531.25,1165.7062775256
2531.5,1166.60618106497
2531.75,1164.241983695
2532,1158.13251299611
2532.25,1147.82840919905
2532.5,1134.50206499784
2532.75,1121.68713666565
2533,1113.10357063529
2533.25,1112.4713133395
2533.5,1122.6273159377
2533.75,1138.69479343459
2534,1151.81313388001
2534.25,1153.08843912413
2534.5,1133.73447149241
2534.75,1093.78981793188
2535,1048.53906167785
2535.25,1014.78029397153
2535.5,1009.31160605433
2535.75,1046.3575606959
2536,1115.77422028921
2536.25,1193.98375230058
2536.5,1257.26791948815
2536.75,1283.72741115114
2537,1272.73042386473
2537.25,1237.42451267331
2537.5,1191.18952604193
2537.75,1147.4053124359
2538,1118.84149500958
2538.25,1108.41869046519
2538.5,1111.09073964769
2538.75,1121.58302042998
2539,1134.62101402603
2539.25,1145.93138671495
2539.5,1154.69720933088
2539.75,1160.84690145597
2540,1164.30888267233
2540.25,1165.03039210808
2540.5,1163.36568841282
2540.75,1160.06219679262
2541,1155.88339036517
2541.25,1151.59274224814
2541.5,1147.89547296717
2541.75,1145.13303130705
2542,1143.50671131613
2542.25,1143.21751130717
2542.5,1144.46473324829
2542.75,1147.24119910994
2543,1151.13805689182
2543.25,1155.70021269945
2543.5,1160.47257263837
2543.75,1165.01338472096
2544,1169.03223121816
2544.25,1172.33457068378
2544.5,1174.7273824207
2544.75,1176.01764721844
2545,1176.10869610412
2545.25,1175.26086535494
2545.5,1173.81715953116
2545.75,1172.12058319304
2546,1170.51185298045
2546.25,1169.18205355539
2546.5,1168.08294123975
2546.75,1167.14479526278
2547,1166.29789485372
2547.25,1165.48031415723
2547.5,1164.7309902274
2547.75,1164.15915415563
2548,1163.87546720304
2548.25,1163.9905906308
2548.5,1164.64158650483
2548.75,1166.07978450262
2549,1168.58742211826
2549.25,1172.44673736452
2549.5,1177.93243503302
2549.75,1184.81220089741
2550,1192.03445391942
2550.25,1198.47308646132
2550.5,1203.00199088544
2550.75,1204.56931596226
2551,1203.17554814646
2551.25,1199.60222765454
2551.5,1194.64937814506
2551.75,1189.11702327662
2552,1183.89744818825
2552.25,1180.56937416441
2552.5,1181.02098107539
2552.75,1187.14194740364
2553,1200.82184659193
2553.25,1222.71479707839
2553.5,1249.16860887532
2553.75,1275.59341432088
2554,1297.39934575317
2554.25,1310.01974265344
2554.5,1311.80905091576
2554.75,1306.85677925465
2555,1299.92007181598
2555.25,1295.75607274562
2555.5,1299.12192163451
2555.75,1313.09023990477
2556,1334.27513811237
2556.25,1357.7431130444
2556.5,1378.560661488
2556.75,1391.79428023017
2557,1393.25507767665
2557.25,1383.94672615567
2557.5,1367.08401175515
2557.75,1345.88988877919
2558,1323.58731153179
2558.25,1303.3896093376
2558.5,1287.30132223461
2558.75,1274.95520340381
2559,1265.70810356351
2559.25,1258.91687343211
2559.5,1253.93836371116
2559.75,1250.12350243835
2560,1246.8005250573
2560.25,1243.29223295217
2560.5,1238.9214275071
2560.75,1233.01091010623
2561,1225.19536565149
2561.25,1216.36293812755
2561.5,1207.7166245709
2561.75,1200.4594220193
2562,1195.79424141031
2562.25,1194.56901770411
2562.5,1196.4675126543
2562.75,1200.93519639152
2563,1207.41753904646
2563.25,1215.36084418364
2563.5,1224.28602650964
2563.75,1233.84658435741
2564,1243.70965948466
2564.25,1253.54239364905
2564.5,1263.00600443372
2564.75,1271.56818031585
2565,1278.46462717059
2565.25,1282.91735672569
2565.5,1284.14838070894
2565.75,1281.4051100615
2566,1274.954027954
2566.25,1266.4040517585
2566.5,1257.4557141467
2566.75,1249.80954779034
2567,1245.1553507438
2567.25,1244.03447109937
2567.5,1244.83445233025
2567.75,1245.70575248418
2568,1244.79882960889
2568.25,1240.28083171941
2568.5,1231.86227854292
2568.75,1222.02411316399
2569,1213.53603066554
2569.25,1209.16772613053
2569.5,1211.6616353517
2569.75,1221.82583916101
2570,1237.28443316724
2570.25,1255.3647010613
2570.5,1273.39392653409
2570.75,1288.75906465068
2571,1300.42639945929
2571.25,1309.06582300569
2571.5,1315.43179922902
2571.75,1320.27879206835
2572,1324.35580789887
2572.25,1328.10617145026
2572.5,1331.51151311431
2572.75,1334.51513030691
2573,1337.06032044395
2573.25,1339.09038186608
2573.5,1340.55665081552
2573.75,1341.43805596371
2574,1341.71944203823
2574.25,1341.38565376662
2574.5,1340.42153587644
2574.75,1338.82648541497
2575,1336.7526876454
2575.25,1334.44364119415
2575.5,1332.14407131301
2575.75,1330.09870325379
2576,1328.54981337322
2576.25,1327.5947663977
2576.5,1327.10746906846
2576.75,1326.94274030134
2577,1326.95539901217
2577.25,1327.00026426634
2577.5,1326.95405522048
2577.75,1326.77615605549
2578,1326.44545214431
2578.25,1325.94082885989
2578.5,1325.24117157515
2578.75,1324.31869706464
2579,1323.07945654082
2579.25,1321.39165275724
2579.5,1319.12304331676
2579.75,1316.14138582226
2580,1312.32617648589
2580.25,1307.98374316081
2580.5,1303.95839241636
2580.75,1301.12877273823
2581,1300.37353261206
2581.25,1302.57021708156
2581.5,1308.14846737423
2581.75,1316.40463518403
2582,1326.45855942775
2582.25,1337.43007902218
2582.5,1348.43903288407
2582.75,1358.70443307292
2583,1367.90958556801
2583.25,1375.87355462808
2583.5,1382.4154212498
2583.75,1387.3542664298
2584,1390.52175268918
2584.25,1391.97913935396
2584.5,1391.98829025943
2584.75,1390.81781916385
2585,1388.7363398255
2585.25,1386.01246600265
2585.5,1382.91766451185
2585.75,1379.7349596882
2586,1376.75030202896
2586.25,1374.2496420316
2586.5,1372.51893019363
2586.75,1371.83089463074
2587,1372.07255006916
2587.25,1372.69354964168
2587.5,1373.11994329555
2587.75,1372.777780978
2588,1371.0931126363
2588.25,1367.68888177411
2588.5,1363.06566549204
2588.75,1357.96848054667
2589,1353.14235400522
2589.25,1349.33231293486
2589.5,1347.25677648225
2589.75,1346.96067792439
2590,1347.77941309591
2590.25,1349.01455344949
2590.5,1349.96767043781
2590.75,1349.94050123903
2591,1348.54646384693
2591.25,1346.35802692806
2591.5,1344.13152446882
2591.75,1342.62329045556
2592,1342.58965887465
2592.25,1344.71506019918
2592.5,1348.9100405854
2592.75,1354.61380897682
2593,1361.2588838054
2593.25,1368.27778350308
2593.5,1375.10634089762
2593.75,1381.40611398894
2594,1387.20492196031
2594.25,1392.56408664629
2594.5,1397.54492988145
2594.75,1402.20877350033
2595,1406.62929445055
2595.25,1410.96467601654
2595.5,1415.40846919378
2595.75,1420.15434459118
2596,1425.39597281769
2596.25,1431.32584529618
2596.5,1437.92184079955
2596.75,1444.69931466789
2597,1451.11349131539
2597.25,1456.61959515622
2597.5,1460.67285060458
2597.75,1462.74519813538
2598,1462.70698782799
2598.25,1460.8348813509
2598.5,1457.42383702137
2598.75,1452.76881315667
2599,1447.16476807409
2599.25,1440.92674494739
2599.5,1434.62305563091
2599.75,1428.995323037
2600,1424.78853843446
2600.25,1422.74769309207
2600.5,1423.61777827862
2600.75,1427.9115092446
2601,1434.7410651348
2601.25,1442.69627360854
2601.5,1450.36607098265
2601.75,1456.33939357401
2602,1459.20762745425
2602.25,1458.36669681549
2602.5,1455.17327507167
2602.75,1451.27708114393
2603,1448.32783395338
2603.25,1447.97525242118
2603.5,1451.84490937815
2603.75,1460.10796612913
2604,1470.67799359358
2604.25,1481.27398072452
2604.5,1489.61491647497
2604.75,1493.41978979791
2605,1490.52509538549
2605.25,1481.09438239446
2605.5,1467.42694950959
2605.75,1451.90125187936
2606,1436.89574465229
2606.25,1424.78888297686
2606.5,1417.8511656759
2606.75,1416.45879857056
2607,1419.37246869275
2607.25,1425.30110487837
2607.5,1432.95363596336
2607.75,1441.03899078365
2608,1448.40837915379
2608.25,1454.7386876603
2608.5,1460.00390417623
2608.75,1464.17840869998
2609,1467.23658122994
2609.25,1469.15286178167
2609.5,1469.96447861024
2609.75,1469.89032375987
2610,1469.18195308961
2610.25,1468.09092245852
2610.5,1466.86878772564
2610.75,1465.76705713511
2611,1465.03038787295
2611.25,1464.88950083692
2611.5,1465.57342408046
2611.75,1467.31118565701
2612,1470.33181362004
2612.25,1474.85831129157
2612.5,1480.83063283019
2612.75,1487.78999275158
2613,1495.24758757879
2613.25,1502.71461383493
2613.5,1509.7022680431
2613.75,1515.73111046231
2614,1520.56181290155
2614.25,1524.20976818998
2614.5,1526.7026579826
2614.75,1528.06816393442
2615,1528.33396770046
2615.25,1527.53688766403
2615.5,1526.02084036413
2615.75,1524.50288792267
2616,1523.72259600998
2616.25,1524.41953029636
2616.5,1527.33325645213
2616.75,1533.19302025094
2617,1542.01049771362
2617.25,1552.62454358417
2617.5,1563.76569526225
2617.75,1574.1644901475
2618,1582.55146563952
2618.25,1587.65977948318
2618.5,1588.85918266658
2618.75,1586.98179724988
2619,1583.06429871335
2619.25,1578.14336253725
2619.5,1573.25566420184
2619.75,1569.43787918739
2620,1567.5911850588
2620.25,1567.73932171591
2620.5,1569.55652210092
2620.75,1572.71611787053
2621,1576.89144068141
2621.25,1581.75582219025
2621.5,1586.98637239804
2621.75,1592.32516978601
2622,1597.56900345884
2622.25,1602.51637028372
2622.5,1606.96576712791
2622.75,1610.71569085862
2623,1609.60184593543
2623.25,1608.48800101224
2623.5,1607.37415608905
2623.75,1606.26031116585
2624,1605.14646624266
2624.25,1604.03262131947
2624.5,1602.91877639628
2624.75,1601.80493147308
2625,1600.69108654989
2625.25,1599.5772416267
2625.5,1598.46339670351
2625.75,1597.34955178031
2626,1596.23570685712
2626.25,1595.12186193393
2626.5,1594.00801701074
2626.75,1592.89417208754
2627,1591.78032716435
2627.25,1590.66648224116
2627.5,1589.55263731797
2627.75,1588.43879239477
2628,1587.32494747158
2628.25,1586.21110254839
2628.5,1585.0972576252
2628.75,1583.983412702
2629,1582.86956777881
2629.25,1581.75572285562
2629.5,1580.64187793243
2629.75,1579.52803300923
2630,1578.41418808604
2630.25,1577.30034316285
2630.5,1576.18649823966
2630.75,1575.07265331646
2631,1573.95880839327
2631.25,1572.84496347008
2631.5,1571.73111854689
2631.75,1570.61727362369
2632,1569.5034287005
2632.25,1568.38958377731
2632.5,1567.27573885412
2632.75,1566.16189393092
2633,1565.04804900773
2633.25,1563.93420408454
2633.5,1562.82035916135
2633.75,1561.70651423816
2634,1560.59266931496
2634.25,1559.47882439177
2634.5,1558.36497946858
2634.75,1557.25113454539
2635,1556.13728962219
2635.25,1555.023444699
2635.5,1553.90959977581
2635.75,1552.79575485262
2636,1551.68190992942
2636.25,1550.56806500623
2636.5,1549.45422008304
2636.75,1548.34037515985
2637,1547.22653023665
2637.25,1546.11268531346
2637.5,1544.99884039027
2637.75,1543.88499546708
2638,1542.77115054388
2638.25,1541.65730562069
2638.5,1540.5434606975
2638.75,1539.42961577431
2639,1538.31577085111
2639.25,1537.20192592792
2639.5,1536.08808100473
2639.75,1534.97423608154
2640,1533.86039115834
2640.25,1532.74654623515
2640.5,1531.63270131196
2640.75,1530.51885638877
2641,1529.40501146557
2641.25,1528.29116654238
2641.5,1527.17732161919
2641.75,1526.063476696
2642,1524.9496317728
2642.25,1523.83578684961
2642.5,1522.72194192642
2642.75,1521.60809700323
2643,1520.49425208003
2643.25,1519.38040715684
2643.5,1518.26656223365
2643.75,1517.15271731046
2644,1516.03887238726
2644.25,1514.92502746407
2644.5,1513.81118254088
2644.75,1512.69733761769
2645,1511.58349269449
2645.25,1510.4696477713
2645.5,1509.35580284811
2645.75,1508.24195792492
2646,1507.12811300172
2646.25,1506.01426807853
2646.5,1504.90042315534
2646.75,1503.78657823215
2647,1502.67273330896
2647.25,1501.55888838576
2647.5,1500.44504346257
2647.75,1499.33119853938
2648,1498.21735361619
2648.25,1497.10350869299
2648.5,1495.9896637698
2648.75,1494.87581884661
2649,1493.76197392342
2649.25,1492.64812900022
2649.5,1491.53428407703
2649.75,1490.42043915384
2650,1489.30659423065
2650.25,1488.19274930745
2650.5,1487.07890438426
2650.75,1485.96505946107
2651,1484.85121453788
2651.25,1483.73736961468
2651.5,1482.62352469149
2651.75,1481.5096797683
2652,1480.39583484511
2652.25,1479.28198992191
2652.5,1478.16814499872
2652.75,1477.05430007553
2653,1475.94045515234
2653.25,1474.82661022914
2653.5,1473.71276530595
2653.75,1472.59892038276
2654,1471.48507545957
2654.25,1470.37123053637
2654.5,1469.25738561318
2654.75,1468.14354068999
2655,1467.0296957668
2655.25,1465.9158508436
2655.5,1464.80200592041
2655.75,1463.68816099722
2656,1462.57431607403
2656.25,1461.46047115083
2656.5,1460.34662622764
2656.75,1459.23278130445
2657,1458.11893638126
2657.25,1457.00509145806
2657.5,1455.89124653487
2657.75,1454.77740161168
2658,1453.66355668849
2658.25,1452.54971176529
2658.5,1451.4358668421
2658.75,1450.32202191891
2659,1449.20817699572
2659.25,1448.09433207252
2659.5,1446.98048714933
2659.75,1445.86664222614
2660,1444.75279730295
2660.25,1443.63895237976
2660.5,1442.52510745656
2660.75,1441.41126253337
2661,1440.29741761018
2661.25,1439.18357268699
2661.5,1438.06972776379
2661.75,1436.9558828406
2662,1435.84203791741
2662.25,1434.72819299422
2662.5,1433.61434807102
2662.75,1432.50050314783
2663,1431.38665822464
2663.25,1430.27281330145
2663.5,1429.15896837825
2663.75,1428.04512345506
2664,1426.93127853187
2664.25,1425.81743360868
2664.5,1424.70358868548
2664.75,1423.58974376229
2665,1422.4758988391
2665.25,1421.36205391591
2665.5,1420.24820899271
2665.75,1419.13436406952
2666,1418.02051914633
2666.25,1416.90667422314
2666.5,1415.79282929994
2666.75,1414.67898437675
2667,1413.56513945356
2667.25,1412.45129453037
2667.5,1411.33744960717
2667.75,1410.22360468398
2668,1409.10975976079
2668.25,1407.9959148376
2668.5,1406.8820699144
2668.75,1405.76822499121
2669,1404.65438006802
2669.25,1403.54053514483
2669.5,1402.42669022163
2669.75,1401.31284529844
2670,1400.19900037525
2670.25,1399.08515545206
2670.5,1397.97131052886
2670.75,1396.85746560567
2671,1395.74362068248
2671.25,1394.62977575929
2671.5,1393.51593083609
2671.75,1392.4020859129
2672,1391.28824098971
2672.25,1390.17439606652
2672.5,1389.06055114333
2672.75,1387.94670622013
2673,1386.83286129694
2673.25,1385.71901637375
2673.5,1384.60517145056
2673.75,1383.49132652736
2674,1382.37748160417
2674.25,1381.26363668098
2674.5,1380.14979175779
2674.75,1379.03594683459
2675,1377.9221019114
2675.25,1376.80825698821
2675.5,1375.69441206502
2675.75,1374.58056714182
2676,1373.46672221863
2676.25,1372.35287729544
2676.5,1371.23903237225
2676.75,1370.12518744905
2677,1369.01134252586
2677.25,1367.89749760267
2677.5,1366.78365267948
2677.75,1365.66980775628
2678,1364.55596283309
2678.25,1363.4421179099
2678.5,1362.32827298671
2678.75,1361.21442806351
2679,1360.10058314032
2679.25,1358.98673821713
2679.5,1357.87289329394
2679.75,1356.75904837074
2680,1355.64520344755
2680.25,1354.53135852436
2680.5,1353.41751360117
2680.75,1352.30366867797
2681,1351.18982375478
2681.25,1350.07597883159
2681.5,1348.9621339084
2681.75,1347.8482889852
2682,1346.73444406201
2682.25,1345.62059913882
2682.5,1344.50675421563
2682.75,1343.39290929243
2683,1342.27906436924
2683.25,1341.16521944605
2683.5,1340.05137452286
2683.75,1338.93752959966
2684,1337.82368467647
2684.25,1336.70983975328
2684.5,1335.59599483009
2684.75,1334.48214990689
2685,1333.3683049837
2685.25,1332.25446006051
2685.5,1331.14061513732
2685.75,1330.02677021413
2686,1328.91292529093
2686.25,1327.79908036774
2686.5,1326.68523544455
2686.75,1325.57139052136
2687,1324.45754559816
2687.25,1323.34370067497
2687.5,1322.22985575178
2687.75,1321.11601082859
2688,1320.00216590539
2688.25,1318.8883209822
2688.5,1317.77447605901
2688.75,1316.66063113582
2689,1315.54678621262
2689.25,1314.43294128943
2689.5,1313.31909636624
2689.75,1312.20525144305
2690,1311.09140651985
2690.25,1309.97756159666
2690.5,1308.86371667347
2690.75,1307.74987175028
2691,1306.63602682708
2691.25,1305.52218190389
2691.5,1304.4083369807
2691.75,1303.29449205751
2692,1302.18064713431
2692.25,1301.06680221112
2692.5,1299.95295728793
2692.75,1298.83911236474
2693,1297.72526744154
2693.25,1296.61142251835
2693.5,1295.49757759516
2693.75,1294.38373267197
2694,1293.26988774877
2694.25,1292.15604282558
2694.5,1291.04219790239
2694.75,1289.9283529792
2695,1288.814508056
2695.25,1287.70066313281
2695.5,1286.58681820962
2695.75,1285.47297328643
2696,1284.35912836323
2696.25,1283.24528344004
2696.5,1282.13143851685
2696.75,1281.01759359366
2697,1279.90374867046
2697.25,1278.78990374727
2697.5,1277.67605882408
2697.75,1276.56221390089
2698,1275.44836897769
2698.25,1274.3345240545
2698.5,1273.22067913131
2698.75,1272.10683420812
2699,1270.99298928493
2699.25,1269.87914436173
2699.5,1268.76529943854
2699.75,1267.65145451535
2700,1266.53760959216
2700.25,1265.42376466896
2700.5,1264.30991974577
2700.75,1263.19607482258
2701,1262.08222989939
2701.25,1260.96838497619
2701.5,1259.854540053
2701.75,1258.74069512981
2702,1257.62685020662
2702.25,1256.51300528342
2702.5,1255.39916036023
2702.75,1254.28531543704
2703,1253.17147051385
2703.25,1252.05762559065
2703.5,1250.94378066746
2703.75,1249.82993574427
2704,1248.71609082108
2704.25,1247.60224589788
2704.5,1246.48840097469
2704.75,1245.3745560515
2705,1244.26071112831
2705.25,1243.14686620511
2705.5,1242.03302128192
2705.75,1240.91917635873
2706,1239.80533143554
2706.25,1238.69148651234
2706.5,1237.57764158915
2706.75,1236.46379666596
2707,1235.34995174277
2707.25,1234.23610681957
2707.5,1233.12226189638
2707.75,1232.00841697319
2708,1230.89457205
2708.25,1229.7807271268
2708.5,1228.66688220361
2708.75,1227.55303728042
2709,1226.43919235723
2709.25,1225.32534743403
2709.5,1224.21150251084
2709.75,1223.09765758765
2710,1221.98381266446
2710.25,1220.86996774126
2710.5,1219.75612281807
2710.75,1218.64227789488
2711,1217.52843297169
2711.25,1216.41458804849
2711.5,1215.3007431253
2711.75,1214.18689820211
2712,1213.07305327892
2712.25,1211.95920835573
2712.5,1210.84536343253
2712.75,1209.73151850934
2713,1208.61767358615
2713.25,1207.50382866296
2713.5,1206.38998373976
2713.75,1205.27613881657
2714,1204.16229389338
2714.25,1203.04844897019
2714.5,1201.93460404699
2714.75,1200.8207591238
2715,1199.70691420061
2715.25,1198.59306927742
2715.5,1197.47922435422
2715.75,1196.36537943103
2716,1195.25153450784
2716.25,1194.13768958465
2716.5,1193.02384466145
2716.75,1191.90999973826
2717,1190.79615481507
2717.25,1189.68230989188
2717.5,1188.56846496868
2717.75,1187.45462004549
2718,1186.3407751223
2718.25,1185.22693019911
2718.5,1184.11308527591
2718.75,1182.99924035272
2719,1181.88539542953
2719.25,1180.77155050634
2719.5,1179.65770558314
2719.75,1178.54386065995
2720,1177.43001573676
2720.25,1176.31617081357
2720.5,1175.20232589037
2720.75,1174.08848096718
2721,1172.97463604399
2721.25,1171.8607911208
2721.5,1170.7469461976
2721.75,1169.63310127441
2722,1168.51925635122
2722.25,1167.40541142803
2722.5,1166.29156650483
2722.75,1165.17772158164
2723,1164.06387665845
