1763,48.7067197900977
1763.25,48.786638161411
1763.5,48.8665565327244
1763.75,48.9464749040378
1764,49.0263932753511
1764.25,49.1063116466644
1764.5,49.1862300179778
1764.75,49.2661483892911
1765,49.3460667606044
1765.25,49.4259851319178
1765.5,49.5059035032312
1765.75,49.5858218745445
1766,49.6657402458578
1766.25,49.7456586171712
1766.5,49.8239784267043
1766.75,49.8989018998105
1767,49.9738253729168
1767.25,50.048748846023
1767.5,50.1236723191293
1767.75,50.1985957922356
1768,50.2735192653418
1768.25,50.3484427384481
1768.5,50.4233662115544
1768.75,50.4982896846606
1769,50.5732131577669
1769.25,50.6481366308732
1769.5,50.7230601039794
1769.75,50.7979835770857
1770,50.872907050192
1770.25,50.9478305232982
1770.5,51.0227539964045
1770.75,51.0976774695107
1771,51.172600942617
1771.25,51.2475244157232
1771.5,51.2835382148584
1771.75,51.2285943345804
1772,51.1736504543025
1772.25,51.1187065740246
1772.5,51.0637626937466
1772.75,51.0088188134687
1773,50.9538749331908
1773.25,50.8989310529129
1773.5,50.8439871726349
1773.75,50.789043292357
1774,50.7340994120791
1774.25,50.6791555318012
1774.5,50.6242116515232
1774.75,50.5692677712453
1775,50.5143238909674
1775.25,50.4593800106895
1775.5,50.4044361304116
1775.75,50.3494922501336
1776,50.2945483698557
1776.25,50.2396044895778
1776.5,50.167926728536
1776.75,50.0530440697731
1777,49.9381614110102
1777.25,49.8232787522472
1777.5,49.7083960934843
1777.75,49.5935134347214
1778,49.4786307759583
1778.25,49.3637481171954
1778.5,49.2488654584325
1778.75,49.1339827996695
1779,49.0191001409066
1779.25,48.9042174821437
1779.5,48.7893348233807
1779.75,48.6744521646178
1780,48.5595695058549
1780.25,48.444686847092
1780.5,48.329804188329
1780.75,48.2149215295661
1781,48.1000388708032
1781.25,47.9851562120402
1781.5,47.8870754579466
1781.75,47.8371264758758
1782,47.7871774938049
1782.25,47.7372285117341
1782.5,47.6872795296633
1782.75,47.6373305475924
1783,47.5873815655216
1783.25,47.5374325834508
1783.5,47.4874836013799
1783.75,47.4375346193091
1784,47.3875856372382
1784.25,47.3376366551674
1784.5,47.2876876730965
1784.75,47.2377386910257
1785,47.1877897089549
1785.25,47.137840726884
1785.5,47.0878917448132
1785.75,47.0379427627423
1786,46.9879937806715
1786.25,46.9380447986006
1786.5,46.8726203780186
1786.75,46.7577377192556
1787,46.6428550604927
1787.25,46.5279724017298
1787.5,46.4130897429667
1787.75,46.2982070842038
1788,46.1833244254409
1788.25,46.0684417666779
1788.5,45.953559107915
1788.75,45.8386764491521
1789,45.7237937903891
1789.25,45.6089111316262
1789.5,45.4940284728633
1789.75,45.3791458141004
1790,45.2642631553374
1790.25,45.1493804965745
1790.5,45.0344978378116
1790.75,44.9196151790486
1791,44.8047325202857
1791.25,44.6898498615228
1791.5,44.5858510276468
1791.75,44.5209173509547
1792,44.4559836742627
1792.25,44.3910499975705
1792.5,44.3261163208785
1792.75,44.2611826441864
1793,44.1962489674942
1793.25,44.1313152908022
1793.5,44.0663816141101
1793.75,44.001447937418
1794,43.9365142607259
1794.25,43.8715805840338
1794.5,43.8066469073417
1794.75,43.7417132306496
1795,43.6767795539575
1795.25,43.6118458772654
1795.5,43.5469122005733
1795.75,43.4819785238812
1796,43.4170448471892
1796.25,43.352111170497
1796.5,43.2812594140226
1796.75,43.186356348088
1797,43.0914532821534
1797.25,42.9965502162188
1797.5,42.9016471502842
1797.75,42.8067440843496
1798,42.711841018415
1798.25,42.6169379524804
1798.5,42.5220348865459
1798.75,42.4271318206112
1799,42.3322287546766
1799.25,42.2373256887421
1799.5,42.1424226228074
1799.75,42.0475195568728
1800,41.9526164909383
1800.25,41.8577134250036
1800.5,41.762810359069
1800.75,41.6679072931344
1801,41.5730042271998
1801.25,41.4781011612652
1801.5,41.3938098245955
1801.75,41.3588455371459
1802,41.3238812496963
1802.25,41.2889169622467
1802.5,41.2539526747971
1802.75,41.2189883873475
1803,41.184024099898
1803.25,41.1490598124484
1803.5,41.1140955249988
1803.75,41.0791312375492
1804,41.0441669500996
1804.25,41.00920266265
1804.5,40.9742383752004
1804.75,40.9392740877508
1805,40.9043098003012
1805.25,40.8693455128517
1805.5,40.8343812254021
1805.75,40.7994169379525
1806,40.7644526505029
1806.25,40.7294883630533
1806.5,40.7078227491376
1806.75,40.7577717312084
1807,40.8077207132792
1807.25,40.8576696953501
1807.5,40.9076186774209
1807.75,40.9575676594918
1808,41.0075166415626
1808.25,41.0574656236335
1808.5,41.1074146057043
1808.75,41.1573635877751
1809,41.207312569846
1809.25,41.2572615519168
1809.5,41.3072105339877
1809.75,41.3571595160585
1810,41.4071084981294
1810.25,41.4570574802002
1810.5,41.5070064622711
1810.75,41.5569554443419
1811,41.6069044264127
1811.25,41.6568534084836
1811.5,41.7
1811.75,41.7
1812,41.7
1812.25,41.7
1812.5,41.7
1812.75,41.7
1813,41.7
1813.25,41.7
1813.5,41.7
1813.75,41.7
1814,41.7
1814.25,41.7
1814.5,41.7
1814.75,41.7
1815,41.7
1815.25,41.7
1815.5,41.7
1815.75,41.7
1816,41.7
1816.25,41.7
1816.5,41.7144550799281
1816.75,41.8393275351053
1817,41.9641999902824
1817.25,42.0890724454594
1817.5,42.2139449006365
1817.75,42.3388173558137
1818,42.4636898109907
1818.25,42.5885622661678
1818.5,42.713434721345
1818.75,42.8383071765221
1819,42.9631796316991
1819.25,43.0880520868763
1819.5,43.2129245420534
1819.75,43.3377969972305
1820,43.4626694524076
1820.25,43.5875419075847
1820.5,43.7124143627618
1820.75,43.837286817939
1821,43.962159273116
1821.25,44.0870317282931
1821.5,44.2147611875032
1821.75,44.3696030319227
1822,44.5244448763423
1822.25,44.6792867207618
1822.5,44.8341285651816
1822.75,44.9889704096011
1823,45.1438122540207
1823.25,45.2986540984404
1823.5,45.45349594286
1823.75,45.6083377872795
1824,45.7631796316992
1824.25,45.9180214761188
1824.5,46.0728633205384
1824.75,46.2277051649581
1825,46.3825470093776
1825.25,46.5373888537972
1825.5,46.6922306982169
1825.75,46.8470725426365
1826,47.001914387056
1826.25,47.1567562314757
1826.5,47.298503474078
1826.75,47.2785238812497
1827,47.2585442884214
1827.25,47.238564695593
1827.5,47.2185851027647
1827.75,47.1986055099364
1828,47.178625917108
1828.25,47.1586463242797
1828.5,47.1386667314513
1828.75,47.118687138623
1829,47.0987075457947
1829.25,47.0787279529663
1829.5,47.058748360138
1829.75,47.0387687673096
1830,47.0187891744813
1830.25,46.998809581653
1830.5,46.9788299888246
1830.75,46.9588503959963
1831,46.938870803168
1831.25,46.9188912103396
1831.5,46.9024488605996
1831.75,46.9474029444633
1832,46.9923570283271
1832.25,47.0373111121909
1832.5,47.0822651960546
1832.75,47.1272192799184
1833,47.1721733637821
1833.25,47.2171274476459
1833.5,47.2620815315097
1833.75,47.3070356153734
1834,47.3519896992372
1834.25,47.3969437831009
1834.5,47.4418978669647
1834.75,47.4868519508284
1835,47.5318060346922
1835.25,47.576760118556
1835.5,47.6217142024197
1835.75,47.6666682862835
1836,47.7116223701472
1836.25,47.756576454011
1836.5,47.7950682668481
1836.75,47.6502162188426
1837,47.5053641708371
1837.25,47.3605121228318
1837.5,47.2156600748262
1837.75,47.0708080268208
1838,46.9259559788154
1838.25,46.7811039308099
1838.5,46.6362518828045
1838.75,46.4913998347991
1839,46.3465477867936
1839.25,46.2016957387882
1839.5,46.0568436907827
1839.75,45.9119916427772
1840,45.7671395947718
1840.25,45.6222875467664
1840.5,45.477435498761
1840.75,45.3325834507555
1841,45.1877314027501
1841.25,45.0428793547447
1841.5,44.8975511394003
1841.75,44.7177348039453
1842,44.5379184684904
1842.25,44.3581021330352
1842.5,44.1782857975802
1842.75,43.9984694621253
1843,43.8186531266701
1843.25,43.6388367912151
1843.5,43.4590204557602
1843.75,43.279204120305
1844,43.09938778485
1844.25,42.9195714493951
1844.5,42.7397551139399
1844.75,42.5599387784849
1845,42.38012244303
1845.25,42.200306107575
1845.5,42.0204897721198
1845.75,41.8406734366649
1846,41.6608571012099
1846.25,41.4810407657547
1846.5,41.3012244302997
1846.75,41.3744132938147
1847,41.449336766921
1847.25,41.5242602400272
1847.5,41.5991837131335
1847.75,41.6741071862398
1848,41.749030659346
1848.25,41.8239541324523
1848.5,41.8988776055586
1848.75,41.9738010786648
1849,42.0487245517711
1849.25,42.1236480248774
1849.5,42.1985714979836
1849.75,42.2734949710898
1850,42.3484184441961
1850.25,42.4233419173024
1850.5,42.4982653904086
1850.75,42.5731888635149
1851,42.6481123366212
1851.25,42.7230358097274
1851.5,42.7979592828337
1851.75,43.0478013701959
1852,43.3025411787572
1852.25,43.5572809873184
1852.5,43.8120207958798
1852.75,44.0667606044411
1853,44.3215004130023
1853.25,44.5762402215637
1853.5,44.830980030125
1853.75,45.0857198386862
1854,45.3404596472476
1854.25,45.5951994558089
1854.5,45.8499392643701
1854.75,46.1046790729313
1855,46.3594188814928
1855.25,46.614158690054
1855.5,46.8688984986152
1855.75,47.1236383071766
1856,47.3783781157379
1856.25,47.6331179242991
1856.5,47.8878577328605
1856.75,48.1473543559595
1857,48.4070890627278
1857.25,48.6668237694963
1857.5,48.9265584762646
1857.75,49.1862931830329
1858,49.4460278898014
1858.25,49.7057625965697
1858.5,49.9654973033381
1858.75,50.2252320101066
1859,50.4849667168749
1859.25,50.7447014236432
1859.5,51.0044361304115
1859.75,51.26417083718
1860,51.5239055439484
1860.25,51.7836402507167
1860.5,52.0433749574852
1860.75,52.3031096642535
1861,52.5628443710218
1861.25,52.8225790777903
1861.5,53.0823137845587
1861.75,53.1558573441524
1862,53.2157961226374
1862.25,53.2757349011224
1862.5,53.3356736796074
1862.75,53.3956124580925
1863,53.4555512365774
1863.25,53.5154900150624
1863.5,53.5754287935475
1863.75,53.6353675720325
1864,53.6953063505175
1864.25,53.7552451290025
1864.5,53.8151839074875
1864.75,53.8751226859725
1865,53.9350614644575
1865.25,53.9950002429426
1865.5,54.0549390214275
1865.75,54.1148777999125
1866,54.1748165783976
1866.25,54.2347553568826
1866.5,54.2946941353676
1866.75,54.0996793158737
1867,53.8799037947621
1867.25,53.6601282736504
1867.5,53.4403527525386
1867.75,53.220577231427
1868,53.0008017103153
1868.25,52.7810261892037
1868.5,52.5612506680918
1868.75,52.3414751469802
1869,52.1216996258686
1869.25,51.9019241047567
1869.5,51.6821485836451
1869.75,51.4623730625334
1870,51.2425975414216
1870.25,51.0228220203099
1870.5,50.8030464991983
1870.75,50.5832709780865
1871,50.3634954569748
1871.25,50.1437199358632
1871.5,49.9239444147513
1871.75,49.8287886885962
1872,49.7488703172829
1872.25,49.6689519459695
1872.5,49.5890335746562
1872.75,49.5091152033429
1873,49.4291968320296
1873.25,49.3492784607162
1873.5,49.2693600894028
1873.75,49.1894417180895
1874,49.1095233467761
1874.25,49.0296049754628
1874.5,48.9496866041495
1874.75,48.8697682328361
1875,48.7898498615227
1875.25,48.7099314902094
1875.5,48.630013118896
1875.75,48.5500947475827
1876,48.4701763762694
1876.25,48.390258004956
1876.5,48.3103396336426
1876.75,48.0825664447791
1877,47.8328215344248
1877.25,47.5830766240706
1877.5,47.3333317137165
1877.75,47.0835868033624
1878,46.833841893008
1878.25,46.5840969826539
1878.5,46.3343520722997
1878.75,46.0846071619454
1879,45.8348622515912
1879.25,45.5851173412371
1879.5,45.3353724308827
1879.75,45.0856275205286
1880,44.8358826101744
1880.25,44.5861376998201
1880.5,44.3363927894659
1880.75,44.0866478791118
1881,43.8369029687574
1881.25,43.5871580584033
1881.5,43.3374131480492
1881.75,43.3764394344299
1882,43.4663476021574
1882.25,43.5562557698849
1882.5,43.6461639376123
1882.75,43.7360721053399
1883,43.8259802730674
1883.25,43.9158884407949
1883.5,44.0057966085225
1883.75,44.09570477625
1884,44.1856129439774
1884.25,44.275521111705
1884.5,44.3654292794325
1884.75,44.45533744716
1885,44.5452456148876
1885.25,44.6351537826151
1885.5,44.7250619503426
1885.75,44.8149701180701
1886,44.9048782857976
1886.25,44.9947864535251
1886.5,45.0846946212527
1886.75,45.178747388368
1887,45.2736504543025
1887.25,45.3685535202371
1887.5,45.4634565861718
1887.75,45.5583596521063
1888,45.6532627180409
1888.25,45.7481657839756
1888.5,45.8430688499101
1888.75,45.9379719158447
1889,46.0328749817794
1889.25,46.1277780477139
1889.5,46.2226811136485
1889.75,46.3175841795832
1890,46.4124872455177
1890.25,46.5073903114523
1890.5,46.602293377387
1890.75,46.6971964433215
1891,46.7920995092561
1891.25,46.8870025751908
1891.5,46.9819056411254
1891.75,47.1131917788251
1892,47.2530489286235
1892.25,47.3929060784219
1892.5,47.5327632282202
1892.75,47.6726203780185
1893,47.812477527817
1893.25,47.9523346776153
1893.5,48.0921918274136
1893.75,48.2320489772121
1894,48.3719061270104
1894.25,48.5117632768087
1894.5,48.6516204266072
1894.75,48.7914775764055
1895,48.9313347262038
1895.25,49.0711918760022
1895.5,49.2110490258005
1895.75,49.3509061755989
1896,49.4907633253973
1896.25,49.6306204751956
1896.5,49.7704776249939
1896.75,49.7448326126039
1897,49.6749040377046
1897.25,49.6049754628055
1897.5,49.5350468879063
1897.75,49.4651183130071
1898,49.3951897381079
1898.25,49.3252611632088
1898.5,49.2553325883096
1898.75,49.1854040134104
1899,49.1154754385112
1899.25,49.045546863612
1899.5,48.9756182887129
1899.75,48.9056897138137
1900,48.8357611389145
1900.25,48.7658325640153
1900.5,48.6959039891162
1900.75,48.6259754142169
1901,48.5560468393178
1901.25,48.4861182644186
1901.5,48.4161896895195
1901.75,48.2925222292405
1902,48.1526650794422
1902.25,48.0128079296439
1902.5,47.8729507798454
1902.75,47.7330936300471
1903,47.5932364802488
1903.25,47.4533793304503
1903.5,47.313522180652
1903.75,47.1736650308537
1904,47.0338078810553
1904.25,46.8939507312569
1904.5,46.7540935814586
1904.75,46.6142364316602
1905,46.4743792818619
1905.25,46.3345221320635
1905.5,46.1946649822652
1905.75,46.0548078324668
1906,45.9149506826685
1906.25,45.7750935328701
1906.5,45.6352363830717
1906.75,45.4019678344103
1907,45.1372382294349
1907.25,44.8725086244593
1907.5,44.6077790194839
1907.75,44.3430494145085
1908,44.0783198095329
1908.25,43.8135902045575
1908.5,43.5488605995821
1908.75,43.2841309946065
1909,43.0194013896311
1909.25,42.7546717846557
1909.5,42.4899421796801
1909.75,42.2252125747047
1910,41.9604829697293
1910.25,41.6957533647539
1910.5,41.4310237597783
1910.75,41.1662941548029
1911,40.9015645498275
1911.25,40.6368349448519
1911.5,40.3721053398765
1911.75,40.3872260823089
1912,40.507103639279
1912.25,40.626981196249
1912.5,40.746858753219
1912.75,40.8667363101891
1913,40.9866138671591
1913.25,41.1064914241291
1913.5,41.2263689810991
1913.75,41.3462465380691
1914,41.4661240950391
1914.25,41.5860016520092
1914.5,41.7058792089792
1914.75,41.8257567659492
1915,41.9456343229192
1915.25,42.0655118798893
1915.5,42.1853894368593
1915.75,42.3052669938293
1916,42.4251445507993
1916.25,42.5450221077693
1916.5,42.6648996647393
1916.75,42.8201010640883
1917,42.9899276031291
1917.25,43.15975414217
1917.5,43.3295806812109
1917.75,43.4994072202517
1918,43.6692337592926
1918.25,43.8390602983335
1918.5,44.0088868373743
1918.75,44.1787133764152
1919,44.3485399154561
1919.25,44.5183664544969
1919.5,44.6881929935378
1919.75,44.8580195325786
1920,45.0278460716195
1920.25,45.1976726106603
1920.5,45.3674991497012
1920.75,45.5373256887421
1921,45.7071522277829
1921.25,45.8769787668238
1921.5,46.0468053058647
1921.75,46.1205820902775
1922,46.1505514795199
1922.25,46.1805208687625
1922.5,46.210490258005
1922.75,46.2404596472475
1923,46.27042903649
1923.25,46.3003984257325
1923.5,46.330367814975
1923.75,46.3603372042175
1924,46.39030659346
1924.25,46.4202759827025
1924.5,46.450245371945
1924.75,46.4802147611875
1925,46.51018415043
1925.25,46.5401535396725
1925.5,46.570122928915
1925.75,46.6000923181575
1926,46.6300617074
1926.25,46.6600310966426
1926.5,46.6900004858851
1926.75,46.7
1927,46.7
1927.25,46.7
1927.5,46.7
1927.75,46.7
1928,46.7
1928.25,46.7
1928.5,46.7
1928.75,46.7
1929,46.7
1929.25,46.7
1929.5,46.7
1929.75,46.7
1930,46.7
1930.25,46.7
1930.5,46.7
1930.75,46.7
1931,46.7
1931.25,46.7
1931.5,46.7
1931.75,46.7161313833147
1932,46.7411058743501
1932.25,46.7660803653856
1932.5,46.791054856421
1932.75,46.8160293474564
1933,46.8410038384918
1933.25,46.8659783295273
1933.5,46.8909528205627
1933.75,46.9159273115981
1934,46.9409018026335
1934.25,46.9658762936689
1934.5,46.9908507847044
1934.75,47.0158252757398
1935,47.0407997667752
1935.25,47.0657742578106
1935.5,47.090748748846
1935.75,47.1157232398815
1936,47.1406977309169
1936.25,47.1656722219523
1936.5,47.1906467129877
1936.75,47.1843787959769
1937,47.1594043049415
1937.25,47.134429813906
1937.5,47.1094553228706
1937.75,47.0844808318352
1938,47.0595063407998
1938.25,47.0345318497643
1938.5,47.0095573587289
1938.75,46.9845828676935
1939,46.9596083766581
1939.25,46.9346338856227
1939.5,46.9096593945872
1939.75,46.8846849035518
1940,46.8597104125164
1940.25,46.834735921481
1940.5,46.8097614304455
1940.75,46.7847869394101
1941,46.7598124483747
1941.25,46.7348379573393
1941.5,46.7098634663039
1941.75,46.6848889752685
1942,46.659914484233
1942.25,46.6349399931976
1942.5,46.6099655021622
1942.75,46.5849910111268
1943,46.5600165200913
1943.25,46.5350420290559
1943.5,46.5100675380205
1943.75,46.4850930469851
1944,46.4601185559497
1944.25,46.4351440649142
1944.5,46.4101695738788
1944.75,46.3851950828434
1945,46.360220591808
1945.25,46.3352461007725
1945.5,46.3102716097371
1945.75,46.2852971187017
1946,46.2603226276663
1946.25,46.2353481366309
1946.5,46.2103736455955
1946.75,46.182478985472
1947,46.1525095962295
1947.25,46.122540206987
1947.5,46.0925708177445
1947.75,46.062601428502
1948,46.0326320392595
1948.25,46.002662650017
1948.5,45.9726932607745
1948.75,45.942723871532
1949,45.9127544822895
1949.25,45.882785093047
1949.5,45.8528157038045
1949.75,45.822846314562
1950,45.7928769253195
1950.25,45.762907536077
1950.5,45.7329381468345
1950.75,45.7029687575919
1951,45.6729993683494
1951.25,45.6430299791069
1951.5,45.6130605898644
1951.75,45.6
1952,45.6
1952.25,45.6
1952.5,45.6
1952.75,45.6
1953,45.6
1953.25,45.6
1953.5,45.6
1953.75,45.6
1954,45.6
1954.25,45.6
1954.5,45.6
1954.75,45.6
1955,45.6
1955.25,45.6
1955.5,45.6
1955.75,45.6
1956,45.6
1956.25,45.6
1956.5,45.6
1956.75,45.6217287789709
1957,45.6616879646276
1957.25,45.7016471502843
1957.5,45.7416063359409
1957.75,45.7815655215976
1958,45.8215247072543
1958.25,45.8614838929109
1958.5,45.9014430785676
1958.75,45.9414022642243
1959,45.981361449881
1959.25,46.0213206355376
1959.5,46.0612798211943
1959.75,46.101239006851
1960,46.1411981925077
1960.25,46.1811573781644
1960.5,46.221116563821
1960.75,46.2610757494777
1961,46.3010349351344
1961.25,46.340994120791
1961.5,46.3809533064477
1961.75,46.5594577522958
1962,46.8641465429281
1962.25,47.1688353335601
1962.5,47.4735241241922
1962.75,47.7782129148245
1963,48.0829017054566
1963.25,48.3875904960886
1963.5,48.6922792867209
1963.75,48.996968077353
1964,49.301656867985
1964.25,49.6063456586174
1964.5,49.9110344492494
1964.75,50.2157232398815
1965,50.5204120305138
1965.25,50.8251008211458
1965.5,51.1297896117779
1965.75,51.4344784024102
1966,51.7391671930423
1966.25,52.0438559836743
1966.5,52.3485447743064
1966.75,52.575360769642
1967,52.7252077158545
1967.25,52.8750546620669
1967.5,53.0249016082796
1967.75,53.174748554492
1968,53.3245955007045
1968.25,53.4744424469171
1968.5,53.6242893931296
1968.75,53.7741363393421
1969,53.9239832855547
1969.25,54.0738302317672
1969.5,54.2236771779797
1969.75,54.3735241241923
1970,54.5233710704048
1970.25,54.6732180166173
1970.5,54.8230649628299
1970.75,54.9729119090424
1971,55.1227588552549
1971.25,55.2726058014674
1971.5,55.42245274768
1971.75,55.343350663233
1972,55.0186822797726
1972.25,54.694013896312
1972.5,54.3693455128516
1972.75,54.0446771293912
1973,53.7200087459305
1973.25,53.3953403624701
1973.5,53.0706719790098
1973.75,52.7460035955491
1974,52.4213352120887
1974.25,52.0966668286283
1974.5,51.7719984451677
1974.75,51.4473300617073
1975,51.1226616782469
1975.25,50.7979932947862
1975.5,50.4733249113258
1975.75,50.1486565278655
1976,49.8239881444051
1976.25,49.4993197609444
1976.5,49.174651377484
1976.75,48.9469170594237
1977,48.8320344006607
1977.25,48.7171517418978
1977.5,48.6022690831349
1977.75,48.4873864243719
1978,48.372503765609
1978.25,48.2576211068461
1978.5,48.1427384480831
1978.75,48.0278557893202
1979,47.9129731305573
1979.25,47.7980904717943
1979.5,47.6832078130314
1979.75,47.5683251542685
1980,47.4534424955056
1980.25,47.3385598367426
1980.5,47.2236771779797
1980.75,47.1087945192168
1981,46.9939118604538
1981.25,46.8790292016909
1981.5,46.764146542928
1981.75,46.7683834604733
1982,46.9232253048929
1982.25,47.0780671493125
1982.5,47.2329089937322
1982.75,47.3877508381517
1983,47.5425926825713
1983.25,47.697434526991
1983.5,47.8522763714106
1983.75,48.0071182158301
1984,48.1619600602499
1984.25,48.3168019046694
1984.5,48.471643749089
1984.75,48.6264855935085
1985,48.7813274379283
1985.25,48.9361692823478
1985.5,49.0910111267674
1985.75,49.2458529711871
1986,49.4006948156067
1986.25,49.5555366600262
1986.5,49.7103785044459
1986.75,49.8841552888587
1987,50.083951217142
1987.25,50.2837471454255
1987.5,50.4835430737088
1987.75,50.6833390019921
1988,50.8831349302756
1988.25,51.0829308585589
1988.5,51.2827267868422
1988.75,51.4825227151257
1989,51.682318643409
1989.25,51.8821145716924
1989.5,52.0819104999757
1989.75,52.2817064282592
1990,52.4815023565425
1990.25,52.6812982848258
1990.5,52.8810942131093
1990.75,53.0808901413926
1991,53.2806860696759
1991.25,53.4804819979594
1991.5,53.6802779262427
1991.75,53.840036927263
1992,53.9399348914048
1992.25,54.0398328555464
1992.5,54.1397308196881
1992.75,54.2396287838298
1993,54.3395267479715
1993.25,54.4394247121131
1993.5,54.5393226762549
1993.75,54.6392206403965
1994,54.7391186045382
1994.25,54.8390165686798
1994.5,54.9389145328216
1994.75,55.0388124969632
1995,55.1387104611049
1995.25,55.2386084252466
1995.5,55.3385063893883
1995.75,55.4384043535299
1996,55.5383023176717
1996.25,55.6382002818133
1996.5,55.738098245955
1996.75,55.6347164860791
1997,55.2001603420629
1997.25,54.7656041980467
1997.5,54.3310480540301
1997.75,53.8964919100139
1998,53.4619357659977
1998.25,53.0273796219811
1998.5,52.5928234779649
1998.75,52.1582673339487
1999,51.7237111899325
1999.25,51.2891550459159
1999.5,50.8545989018997
1999.75,50.4200427578835
2000,49.9854866138669
2000.25,49.5509304698507
2000.5,49.1163743258345
2000.75,48.6818181818179
2001,48.2472620378017
2001.25,47.8127058937855
2001.5,47.3781497497689
2001.75,47.0658422817161
2002,46.9709392157815
2002.25,46.8760361498469
2002.5,46.7811330839123
2002.75,46.6862300179777
2003,46.5913269520431
2003.25,46.4964238861085
2003.5,46.4015208201739
2003.75,46.3066177542394
2004,46.2117146883047
2004.25,46.1168116223701
2004.5,46.0219085564356
2004.75,45.9270054905009
2005,45.8321024245663
2005.25,45.7371993586318
2005.5,45.6422962926971
2005.75,45.5473932267625
2006,45.4524901608279
2006.25,45.3575870948933
2006.5,45.2626840289587
2006.75,45.2457849472815
2007,45.3806471988728
2007.25,45.5155094504641
2007.5,45.6503717020553
2007.75,45.7852339536467
2008,45.9200962052379
2008.25,46.0549584568291
2008.5,46.1898207084204
2008.75,46.3246829600117
2009,46.459545211603
2009.25,46.5944074631942
2009.5,46.7292697147856
2009.75,46.8641319663768
2010,46.998994217968
2010.25,47.1338564695594
2010.5,47.2687187211506
2010.75,47.4035809727419
2011,47.5384432243332
2011.25,47.6733054759244
2011.5,47.8081677275157
2011.75,47.9653418201255
2012,48.1701326466159
2012.25,48.3749234731063
2012.5,48.5797142995969
2012.75,48.7845051260873
2013,48.9892959525777
2013.25,49.194086779068
2013.5,49.3988776055586
2013.75,49.603668432049
2014,49.8084592585394
2014.25,50.01325008503
2014.5,50.2180409115204
2014.75,50.4228317380108
2015,50.6276225645014
2015.25,50.8324133909918
2015.5,51.0372042174821
2015.75,51.2419950439727
2016,51.4467858704631
2016.25,51.6515766969535
2016.5,51.8563675234441
2016.75,52.0477333462903
2017,52.207570088917
2017.25,52.3674068315436
2017.5,52.5272435741704
2017.75,52.6870803167971
2018,52.8469170594237
2018.25,53.0067538020505
2018.5,53.1665905446772
2018.75,53.3264272873038
2019,53.4862640299306
2019.25,53.6461007725573
2019.5,53.8059375151839
2019.75,53.9657742578107
2020,54.1256110004374
2020.25,54.285447743064
2020.5,54.4452844856908
2020.75,54.6051212283174
2021,54.7649579709441
2021.25,54.9247947135709
2021.5,55.0846314561975
2021.75,55.1360769641902
2022,54.9063116466644
2022.25,54.6765463291384
2022.5,54.4467810116126
2022.75,54.2170156940868
2023,53.9872503765608
2023.25,53.757485059035
2023.5,53.5277197415092
2023.75,53.2979544239832
2024,53.0681891064574
2024.25,52.8384237889315
2024.5,52.6086584714055
2024.75,52.3788931538797
2025,52.1491278363539
2025.25,51.9193625188279
2025.5,51.6895972013021
2025.75,51.4598318837763
2026,51.2300665662503
2026.25,51.0003012487245
2026.5,50.7705359311987
2026.75,50.5330450415432
2027,50.2733103347747
2027.25,50.0135756280064
2027.5,49.7538409212381
2027.75,49.4941062144695
2028,49.2343715077012
2028.25,48.9746368009329
2028.5,48.7149020941644
2028.75,48.4551673873961
2029,48.1954326806278
2029.25,47.9356979738592
2029.5,47.6759632670909
2029.75,47.4162285603226
2030,47.1564938535541
2030.25,46.8967591467858
2030.5,46.6370244400175
2030.75,46.3772897332489
2031,46.1175550264806
2031.25,45.8578203197123
2031.5,45.598085612944
2031.75,45.3300519896991
2032,45.0353529954812
2032.25,44.7406540012633
2032.5,44.4459550070452
2032.75,44.1512560128273
2033,43.8565570186094
2033.25,43.5618580243913
2033.5,43.2671590301734
2033.75,42.9724600359555
2034,42.6777610417373
2034.25,42.3830620475195
2034.5,42.0883630533016
2034.75,41.7936640590834
2035,41.4989650648655
2035.25,41.2042660706477
2035.5,40.9095670764295
2035.75,40.6148680822116
2036,40.3201690879937
2036.25,40.0254700937759
2036.5,39.7307710995577
2036.75,39.5075846654682
2037,39.5425489529177
2037.25,39.5775132403673
2037.5,39.6124775278169
2037.75,39.6474418152665
2038,39.6824061027161
2038.25,39.7173703901657
2038.5,39.7523346776153
2038.75,39.7872989650649
2039,39.8222632525145
2039.25,39.8572275399641
2039.5,39.8921918274137
2039.75,39.9271561148632
2040,39.9621204023128
2040.25,39.9970846897624
2040.5,40.032048977212
2040.75,40.0670132646616
2041,40.1019775521112
2041.25,40.1369418395608
2041.5,40.1719061270104
2041.75,40.2618337301394
2042,40.5765123171859
2042.25,40.8911909042321
2042.5,41.2058694912784
2042.75,41.5205480783249
2043,41.8352266653711
2043.25,42.1499052524173
2043.5,42.4645838394638
2043.75,42.77926242651
2044,43.0939410135562
2044.25,43.4086196006027
2044.5,43.7232981876489
2044.75,44.0379767746951
2045,44.3526553617416
2045.25,44.6673339487879
2045.5,44.9820125358341
2045.75,45.2966911228803
2046,45.6113697099268
2046.25,45.926048296973
2046.5,46.2407268840192
2046.75,46.5457314999273
2047,46.8054662066956
2047.25,47.0652009134639
2047.5,47.3249356202324
2047.75,47.5846703270007
2048,47.844405033769
2048.25,48.1041397405376
2048.5,48.3638744473059
2048.75,48.6236091540742
2049,48.8833438608427
2049.25,49.143078567611
2049.5,49.4028132743793
2049.75,49.6625479811476
2050,49.9222826879162
2050.25,50.1820173946845
2050.5,50.4417521014528
2050.75,50.7014868082213
2051,50.9612215149896
2051.25,51.2209562217579
2051.5,51.4806909285265
2051.75,51.7108838248871
2052,51.7808123997862
2052.25,51.8507409746854
2052.5,51.9206695495846
2052.75,51.9905981244838
2053,52.060526699383
2053.25,52.1304552742821
2053.5,52.2003838491813
2053.75,52.2703124240805
2054,52.3402409989797
2054.25,52.4101695738788
2054.5,52.480098148778
2054.75,52.5500267236772
2055,52.6199552985764
2055.25,52.6898838734755
2055.5,52.7598124483748
2055.75,52.8297410232739
2056,52.8996695981731
2056.25,52.9695981730723
2056.5,53.0395267479715
2056.75,53.084466255284
2057,52.969583596521
2057.25,52.8547009377581
2057.5,52.7398182789952
2057.75,52.6249356202322
2058,52.5100529614693
2058.25,52.3951703027064
2058.5,52.2802876439434
2058.75,52.1654049851805
2059,52.0505223264176
2059.25,51.9356396676546
2059.5,51.8207570088916
2059.75,51.7058743501287
2060,51.5909916913658
2060.25,51.4761090326028
2060.5,51.3612263738399
2060.75,51.246343715077
2061,51.131461056314
2061.25,51.0165783975511
2061.5,50.9016957387882
2061.75,50.7919731791458
2062,50.7220446042466
2062.25,50.6521160293475
2062.5,50.5821874544482
2062.75,50.5122588795491
2063,50.4423303046499
2063.25,50.3724017297507
2063.5,50.3024731548515
2063.75,50.2325445799524
2064,50.1626160050532
2064.25,50.092687430154
2064.5,50.0227588552548
2064.75,49.9528302803557
2065,49.8829017054564
2065.25,49.8129731305573
2065.5,49.7430445556581
2065.75,49.6731159807589
2066,49.6031874058598
2066.25,49.5332588309606
2066.5,49.4633302560614
2066.75,49.4042417763957
2067,49.4491958602595
2067.25,49.4941499441233
2067.5,49.539104027987
2067.75,49.5840581118507
2068,49.6290121957145
2068.25,49.6739662795783
2068.5,49.718920363442
2068.75,49.7638744473058
2069,49.8088285311695
2069.25,49.8537826150333
2069.5,49.898736698897
2069.75,49.9436907827608
2070,49.9886448666246
2070.25,50.0335989504883
2070.5,50.0785530343521
2070.75,50.1235071182158
2071,50.1684612020796
2071.25,50.2134152859434
2071.5,50.2583693698071
2071.75,50.3025849084107
2072,50.3375491958603
2072.25,50.3725134833099
2072.5,50.4074777707594
2072.75,50.4424420582091
2073,50.4774063456586
2073.25,50.5123706331082
2073.5,50.5473349205578
2073.75,50.5822992080074
2074,50.617263495457
2074.25,50.6522277829066
2074.5,50.6871920703562
2074.75,50.7221563578058
2075,50.7571206452553
2075.25,50.7920849327049
2075.5,50.8270492201545
2075.75,50.8620135076041
2076,50.8969777950537
2076.25,50.9319420825033
2076.5,50.9669063699529
2076.75,51.006146445751
2077,51.1210291045139
2077.25,51.2359117632768
2077.5,51.3507944220398
2077.75,51.4656770808027
2078,51.5805597395656
2078.25,51.6954423983285
2078.5,51.8103250570915
2078.75,51.9252077158545
2079,52.0400903746174
2079.25,52.1549730333804
2079.5,52.2698556921433
2079.75,52.3847383509062
2080,52.4996210096692
2080.25,52.6145036684321
2080.5,52.729386327195
2080.75,52.844268985958
2081,52.9591516447209
2081.25,53.0740343034838
2081.5,53.1889169622468
2081.75,53.2998347990865
2082,53.2948399008794
2082.25,53.2898450026724
2082.5,53.2848501044653
2082.75,53.2798552062582
2083,53.2748603080511
2083.25,53.269865409844
2083.5,53.2648705116369
2083.75,53.2598756134299
2084,53.2548807152228
2084.25,53.2498858170157
2084.5,53.2448909188086
2084.75,53.2398960206015
2085,53.2349011223944
2085.25,53.2299062241874
2085.5,53.2249113259803
2085.75,53.2199164277732
2086,53.2149215295661
2086.25,53.209926631359
2086.5,53.2049317331519
2086.75,53.1974733977941
2087,52.9976774695107
2087.25,52.7978815412273
2087.5,52.5980856129439
2087.75,52.3982896846606
2088,52.1984937563771
2088.25,51.9986978280938
2088.5,51.7989018998105
2088.75,51.599105971527
2089,51.3993100432437
2089.25,51.1995141149604
2089.5,50.9997181866769
2089.75,50.7999222583936
2090,50.6001263301103
2090.25,50.4003304018268
2090.5,50.2005344735435
2090.75,50.0007385452602
2091,49.8009426169767
2091.25,49.6011466886934
2091.5,49.4013507604101
2091.75,49.2015548321268
2092,49.3040765754823
2092.25,49.408969437831
2092.5,49.5138623001798
2092.75,49.6187551625286
2093,49.7236480248773
2093.25,49.8285408872261
2093.5,49.9334337495749
2093.75,50.0383266119237
2094,50.1432194742724
2094.25,50.2481123366212
2094.5,50.35300519897
2094.75,50.4578980613187
2095,50.5627909236675
2095.25,50.6676837860163
2095.5,50.772576648365
2095.75,50.8774695107138
2096,50.9823623730626
2096.25,51.0872552354113
2096.5,51.1921480977601
2096.75,51.2970409601089
2097,51.4067878140032
2097.25,51.516675574559
2097.5,51.626563335115
2097.75,51.7364510956708
2098,51.8463388562266
2098.25,51.9562266167825
2098.5,52.0661143773384
2098.75,52.1760021378942
2099,52.2858898984501
2099.25,52.3957776590059
2099.5,52.5056654195617
2099.75,52.6155531801177
2100,52.7254409406735
2100.25,52.8353287012293
2100.5,52.9452164617852
2100.75,53.055104222341
2101,53.1649919828969
2101.25,53.2748797434527
2101.5,53.3847675040086
2101.75,53.4946552645644
2102,53.6330547592439
2102.25,53.7729119090424
2102.5,53.9127690588407
2102.75,54.052626208639
2103,54.1924833584375
2103.25,54.3323405082358
2103.5,54.4721976580341
2103.75,54.6120548078326
2104,54.7519119576309
2104.25,54.8917691074292
2104.5,55.0316262572276
2104.75,55.171483407026
2105,55.3113405568243
2105.25,55.4511977066227
2105.5,55.591054856421
2105.75,55.7309120062193
2106,55.8707691560177
2106.25,56.0106263058161
2106.5,56.1504834556144
2106.75,56.2903406054127
2107,55.6815606627468
2107.25,55.0172392012048
2107.5,54.3529177396628
2107.75,53.6885962781202
2108,53.0242748165782
2108.25,52.3599533550362
2108.5,51.6956318934936
2108.75,51.0313104319516
2109,50.3669889704096
2109.25,49.7026675088669
2109.5,49.0383460473249
2109.75,48.3740245857829
2110,47.7097031242403
2110.25,47.0453816626983
2110.5,46.3810602011563
2110.75,45.7167387396143
2111,45.0524172780717
2111.25,44.3880958165297
2111.5,43.7237743549877
2111.75,43.059452893445
2112,42.9727126961761
2112.25,42.9427433069336
2112.5,42.9127739176911
2112.75,42.8828045284486
2113,42.8528351392061
2113.25,42.8228657499635
2113.5,42.792896360721
2113.75,42.7629269714785
2114,42.732957582236
2114.25,42.7029881929935
2114.5,42.673018803751
2114.75,42.6430494145085
2115,42.613080025266
2115.25,42.5831106360235
2115.5,42.553141246781
2115.75,42.5231718575385
2116,42.493202468296
2116.25,42.4632330790535
2116.5,42.433263689811
2116.75,42.4032943005685
2117,42.4711335697974
2117.25,42.5510519411108
2117.5,42.6309703124241
2117.75,42.7108886837374
2118,42.7908070550508
2118.25,42.8707254263642
2118.5,42.9506437976775
2118.75,43.0305621689909
2119,43.1104805403042
2119.25,43.1903989116175
2119.5,43.2703172829309
2119.75,43.3502356542442
2120,43.4301540255576
2120.25,43.5100723968709
2120.5,43.5899907681843
2120.75,43.6699091394976
2121,43.7498275108109
2121.25,43.8297458821243
2121.5,43.9096642534377
2121.75,43.989582624751
2122,44.3127544822897
2122.25,44.6723871531997
2122.5,45.0320198241096
2122.75,45.3916524950199
2123,45.7512851659299
2123.25,46.1109178368398
2123.5,46.4705505077501
2123.75,46.8301831786601
2124,47.18981584957
2124.25,47.54944852048
2124.5,47.9090811913903
2124.75,48.2687138623002
2125,48.6283465332102
2125.25,48.9879792041205
2125.5,49.3476118750305
2125.75,49.7072445459404
2126,50.0668772168507
2126.25,50.4265098877607
2126.5,50.7861425586706
2126.75,51.1457752295809
2127,50.8861085467177
2127.25,50.5164860793936
2127.5,50.1468636120691
2127.75,49.777241144745
2128,49.4076186774209
2128.25,49.0379962100964
2128.5,48.6683737427723
2128.75,48.2987512754482
2129,47.929128808124
2129.25,47.5595063407996
2129.5,47.1898838734755
2129.75,46.8202614061513
2130,46.4506389388269
2130.25,46.0810164715028
2130.5,45.7113940041786
2130.75,45.3417715368542
2131,44.97214906953
2131.25,44.6025266022059
2131.5,44.2329041348815
2131.75,43.8632816675573
2132,43.7503231135513
2132.25,43.6903843350663
2132.5,43.6304455565813
2132.75,43.5705067780963
2133,43.5105679996112
2133.25,43.4506292211263
2133.5,43.3906904426413
2133.75,43.3307516641563
2134,43.2708128856712
2134.25,43.2108741071862
2134.5,43.1509353287012
2134.75,43.0909965502162
2135,43.0310577717312
2135.25,42.9711189932462
2135.5,42.9111802147612
2135.75,42.8512414362762
2136,42.7913026577912
2136.25,42.7313638793061
2136.5,42.6714251008211
2136.75,42.6114863223361
2137,42.5434721344929
2137.25,42.4735435595938
2137.5,42.4036149846946
2137.75,42.3336864097954
2138,42.2637578348962
2138.25,42.1938292599971
2138.5,42.1239006850979
2138.75,42.0539721101987
2139,41.9840435352995
2139.25,41.9141149604004
2139.5,41.8441863855012
2139.75,41.774257810602
2140,41.7043292357028
2140.25,41.6344006608036
2140.5,41.5644720859045
2140.75,41.4945435110053
2141,41.4246149361061
2141.25,41.3546863612069
2141.5,41.2847577863078
2141.75,41.2148292114085
2142,41.4873038239154
2142.25,41.8519313930325
2142.5,42.2165589621498
2142.75,42.5811865312669
2143,42.9458141003839
2143.25,43.310441669501
2143.5,43.6750692386183
2143.75,44.0396968077354
2144,44.4043243768524
2144.25,44.7689519459698
2144.5,45.1335795150868
2144.75,45.4982070842039
2145,45.8628346533212
2145.25,46.2274622224383
2145.5,46.5920897915553
2145.75,46.9567173606727
2146,47.3213449297897
2146.25,47.6859724989068
2146.5,48.0506000680242
2146.75,48.4152276371412
2147,48.4731645692629
2147.25,48.4382002818133
2147.5,48.4032359943637
2147.75,48.3682717069141
2148,48.3333074194646
2148.25,48.2983431320149
2148.5,48.2633788445654
2148.75,48.2284145571158
2149,48.1934502696662
2149.25,48.1584859822166
2149.5,48.123521694767
2149.75,48.0885574073174
2150,48.0535931198678
2150.25,48.0186288324182
2150.5,47.9836645449686
2150.75,47.9487002575191
2151,47.9137359700695
2151.25,47.8787716826199
2151.5,47.8438073951703
2151.75,47.8088431077207
2152,48.0947961712262
2152.25,48.4893931295857
2152.5,48.8839900879453
2152.75,49.2785870463048
2153,49.6731840046647
2153.25,50.0677809630242
2153.5,50.4623779213838
2153.75,50.8569748797437
2154,51.2515718381032
2154.25,51.6461687964628
2154.5,52.0407657548227
2154.75,52.4353627131822
2155,52.8299596715417
2155.25,53.2245566299016
2155.5,53.6191535882612
2155.75,54.0137505466207
2156,54.4083475049806
2156.25,54.8029444633401
2156.5,55.1975414216997
2156.75,55.5921383800596
2157,55.7471842961956
2157.25,55.8121179728876
2157.5,55.8770516495797
2157.75,55.9419853262718
2158,56.0069190029639
2158.25,56.071852679656
2158.5,56.1367863563481
2158.75,56.2017200330402
2159,56.2666537097323
2159.25,56.3315873864244
2159.5,56.3965210631165
2159.75,56.4614547398086
2160,56.5263884165007
2160.25,56.5913220931928
2160.5,56.6562557698849
2160.75,56.721189446577
2161,56.7861231232691
2161.25,56.8510567999611
2161.5,56.9159904766532
2161.75,56.9809241533453
2162,56.9365045430251
2162.25,56.8465963752976
2162.5,56.75668820757
2162.75,56.6667800398426
2163,56.5768718721151
2163.25,56.4869637043875
2163.5,56.39705553666
2163.75,56.3071473689325
2164,56.2172392012049
2164.25,56.1273310334775
2164.5,56.03742286575
2164.75,55.9475146980224
2165,55.8576065302949
2165.25,55.7676983625674
2165.5,55.6777901948398
2165.75,55.5878820271124
2166,55.4979738593849
2166.25,55.4080656916574
2166.5,55.3181575239298
2166.75,55.2282493562023
2167,54.9533647538993
2167.25,54.593732082989
2167.5,54.234099412079
2167.75,53.8744667411691
2168,53.5148340702588
2168.25,53.1552013993488
2168.5,52.7955687284389
2168.75,52.4359360575286
2169,52.0763033866186
2169.25,51.7166707157086
2169.5,51.3570380447984
2169.75,50.9974053738884
2170,50.6377727029784
2170.25,50.2781400320682
2170.5,49.9185073611582
2170.75,49.5588746902482
2171,49.1992420193383
2171.25,48.839609348428
2171.5,48.479976677518
2171.75,48.1203440066081
2172,47.9401778339244
2172.25,47.850269666197
2172.5,47.7603614984695
2172.75,47.6704533307419
2173,47.5805451630144
2173.25,47.4906369952869
2173.5,47.4007288275593
2173.75,47.3108206598319
2174,47.2209124921044
2174.25,47.1310043243768
2174.5,47.0410961566493
2174.75,46.9511879889218
2175,46.8612798211942
2175.25,46.7713716534668
2175.5,46.6814634857393
2175.75,46.5915553180118
2176,46.5016471502842
2176.25,46.4117389825567
2176.5,46.3218308148292
2176.75,46.2319226471016
2177,46.0904717943734
2177.25,45.9206452553326
2177.5,45.7508187162916
2177.75,45.5809921772508
2178,45.41116563821
2178.25,45.241339099169
2178.5,45.0715125601282
2178.75,44.9016860210874
2179,44.7318594820464
2179.25,44.5620329430056
2179.5,44.3922064039648
2179.75,44.2223798649238
2180,44.052553325883
2180.25,43.882726786842
2180.5,43.7129002478014
2180.75,43.5430737087604
2181,43.3732471697194
2181.25,43.2034206306788
2181.5,43.0335940916378
2181.75,42.8637675525969
2182,43.0245955007045
2182.25,43.3842281716148
2182.5,43.7438608425244
2182.75,44.1034935134347
2183,44.463126184345
2183.25,44.8227588552546
2183.5,45.1823915261649
2183.75,45.5420241970752
2184,45.9016568679849
2184.25,46.2612895388951
2184.5,46.6209222098054
2184.75,46.9805548807151
2185,47.3401875516253
2185.25,47.6998202225356
2185.5,48.0594528934453
2185.75,48.4190855643556
2186,48.7787182352658
2186.25,49.1383509061755
2186.5,49.4979835770858
2186.75,49.857616247996
2187,50.0965550750692
2187.25,50.256391817696
2187.5,50.4162285603228
2187.75,50.5760653029493
2188,50.7359020455761
2188.25,50.8957387882029
2188.5,51.0555755308294
2188.75,51.2154122734562
2189,51.375249016083
2189.25,51.5350857587095
2189.5,51.6949225013363
2189.75,51.8547592439631
2190,52.0145959865896
2190.25,52.1744327292163
2190.5,52.3342694718432
2190.75,52.4941062144697
2191,52.6539429570964
2191.25,52.8137796997232
2191.5,52.9736164423497
2191.75,53.1334531849765
2192,53.2029153102376
2192.25,53.2079102084447
2192.5,53.2129051066518
2192.75,53.2179000048588
2193,53.2228949030659
2193.25,53.227889801273
2193.5,53.2328846994801
2193.75,53.2378795976872
2194,53.2428744958943
2194.25,53.2478693941014
2194.5,53.2528642923084
2194.75,53.2578591905155
2195,53.2628540887226
2195.25,53.2678489869297
2195.5,53.2728438851368
2195.75,53.2778387833439
2196,53.2828336815509
2196.25,53.287828579758
2196.5,53.2928234779651
2196.75,53.2978183761722
2197,53.2324814148971
2197.25,53.1126038579272
2197.5,52.9927263009571
2197.75,52.872848743987
2198,52.7529711870172
2198.25,52.6330936300471
2198.5,52.513216073077
2198.75,52.3933385161071
2199,52.273460959137
2199.25,52.1535834021669
2199.5,52.033705845197
2199.75,51.9138282882269
2200,51.7939507312568
2200.25,51.674073174287
2200.5,51.5541956173169
2200.75,51.4343180603468
2201,51.3144405033769
2201.25,51.1945629464068
2201.5,51.0746853894369
2201.75,50.9548078324668
2202,50.8023954132451
2202.25,50.6225790777903
2202.5,50.4427627423351
2202.75,50.26294640688
2203,50.0831300714252
2203.25,49.90331373597
2203.5,49.7234974005149
2203.75,49.5436810650601
2204,49.3638647296049
2204.25,49.1840483941498
2204.5,49.004232058695
2204.75,48.8244157232398
2205,48.6445993877847
2205.25,48.4647830523299
2205.5,48.2849667168747
2205.75,48.1051503814196
2206,47.9253340459648
2206.25,47.7455177105096
2206.5,47.5657013750545
2206.75,47.3858850395997
2207,47.2582527573976
2207.25,47.1783343860842
2207.5,47.0984160147709
2207.75,47.0184976434575
2208,46.9385792721441
2208.25,46.8586609008309
2208.5,46.7787425295175
2208.75,46.6988241582041
2209,46.6189057868908
2209.25,46.5389874155774
2209.5,46.459069044264
2209.75,46.3791506729508
2210,46.2992323016374
2210.25,46.219313930324
2210.5,46.1393955590107
2210.75,46.0594771876973
2211,45.9795588163841
2211.25,45.8996404450707
2211.5,45.8197220737573
2211.75,45.739803702444
2212,45.7501433360867
2212.25,45.8500413002284
2212.5,45.94993926437
2212.75,46.0498372285118
2213,46.1497351926535
2213.25,46.2496331567951
2213.5,46.3495311209368
2213.75,46.4494290850786
2214,46.5493270492201
2214.25,46.6492250133619
2214.5,46.7491229775036
2214.75,46.8490209416452
2215,46.9489189057869
2215.25,47.0488168699287
2215.5,47.1487148340702
2215.75,47.248612798212
2216,47.3485107623537
2216.25,47.4484087264953
2216.5,47.548306690637
2216.75,47.6482046547788
2217,47.7938001068947
2217.25,47.9886011369711
2217.5,48.1834021670475
2217.75,48.3782031971235
2218,48.5730042271999
2218.25,48.7678052572764
2218.5,48.9626062873524
2218.75,49.1574073174288
2219,49.3522083475052
2219.25,49.5470093775813
2219.5,49.7418104076577
2219.75,49.9366114377337
2220,50.1314124678101
2220.25,50.3262134978865
2220.5,50.5210145279626
2220.75,50.715815558039
2221,50.9106165881154
2221.25,51.1054176181914
2221.5,51.3002186482679
2221.75,51.4950196783443
2222,51.6944268985957
2222.25,51.8992177250863
2222.5,52.1040085515769
2222.75,52.3087993780671
2223,52.5135902045577
2223.25,52.7183810310482
2223.5,52.9231718575384
2223.75,53.127962684029
2224,53.3327535105196
2224.25,53.5375443370098
2224.5,53.7423351635004
2224.75,53.947125989991
2225,54.1519168164812
2225.25,54.3567076429718
2225.5,54.5614984694623
2225.75,54.7662892959525
2226,54.9710801224431
2226.25,55.1758709489337
2226.5,55.3806617754239
2226.75,55.5854526019145
2227,55.7330158884409
2227.25,55.8079393615471
2227.5,55.8828628346534
2227.75,55.9577863077597
2228,56.0327097808658
2228.25,56.1076332539722
2228.5,56.1825567270785
2228.75,56.2574802001846
2229,56.3324036732909
2229.25,56.4073271463971
2229.5,56.4822506195034
2229.75,56.5571740926097
2230,56.6320975657159
2230.25,56.7070210388222
2230.5,56.7819445119285
2230.75,56.8568679850347
2231,56.931791458141
2231.25,57.0067149312473
2231.5,57.0816384043535
2231.75,57.1565618774598
2232,57.1013459015595
2232.25,56.8665856858268
2232.5,56.6318254700937
2232.75,56.3970652543606
2233,56.1623050386279
2233.25,55.9275448228948
2233.5,55.6927846071617
2233.75,55.4580243914291
2234,55.223264175696
2234.25,54.9885039599628
2234.5,54.7537437442302
2234.75,54.5189835284971
2235,54.284223312764
2235.25,54.0494630970313
2235.5,53.8147028812982
2235.75,53.5799426655651
2236,53.3451824498324
2236.25,53.1104222340993
2236.5,52.8756620183662
2236.75,52.6409018026335
2237,52.5159759001021
2237.25,52.5559350857588
2237.5,52.5958942714154
2237.75,52.6358534570721
2238,52.6758126427288
2238.25,52.7157718283854
2238.5,52.7557310140421
2238.75,52.7956901996987
2239,52.8356493853554
2239.25,52.8756085710121
2239.5,52.9155677566688
2239.75,52.9555269423254
2240,52.9954861279821
2240.25,53.0354453136388
2240.5,53.0754044992955
2240.75,53.1153636849522
2241,53.1553228706088
2241.25,53.1952820562655
2241.5,53.2352412419222
2241.75,53.2752004275788
2242,53.2488363053301
2242.25,53.1139740537388
2242.5,52.9791118021476
2242.75,52.8442495505563
2243,52.7093872989649
2243.25,52.5745250473738
2243.5,52.4396627957825
2243.75,52.3048005441911
2244,52.1699382926
2244.25,52.0350760410086
2244.5,51.9002137894173
2244.75,51.7653515378262
2245,51.6304892862348
2245.25,51.4956270346435
2245.5,51.3607647830523
2245.75,51.225902531461
2246,51.0910402798696
2246.25,50.9561780282785
2246.5,50.8213157766872
2246.75,50.6864535250958
2247,50.5175258733784
2247.25,50.2877605558523
2247.5,50.0579952383263
2247.75,49.8282299208007
2248,49.5984646032747
2248.25,49.3686992857491
2248.5,49.1389339682231
2248.75,48.9091686506971
2249,48.6794033331715
2249.25,48.4496380156455
2249.5,48.2198726981195
2249.75,47.9901073805939
2250,47.7603420630678
2250.25,47.5305767455418
2250.5,47.3008114280162
2250.75,47.0710461104902
2251,46.8412807929642
2251.25,46.6115154754386
2251.5,46.3817501579126
2251.75,46.1519848403866
2252,46.0169087993781
2252.25,46.0668577814489
2252.5,46.1168067635198
2252.75,46.1667557455906
2253,46.2167047276615
2253.25,46.2666537097323
2253.5,46.3166026918031
2253.75,46.366551673874
2254,46.4165006559449
2254.25,46.4664496380156
2254.5,46.5163986200865
2254.75,46.5663476021574
2255,46.6162965842282
2255.25,46.666245566299
2255.5,46.7161945483699
2255.75,46.7661435304407
2256,46.8160925125116
2256.25,46.8660414945824
2256.5,46.9159904766532
2256.75,46.9659394587241
2257,46.9825227151256
2257.25,46.9275788348477
2257.5,46.8726349545697
2257.75,46.8176910742919
2258,46.7627471940139
2258.25,46.7078033137359
2258.5,46.6528594334581
2258.75,46.5979155531801
2259,46.5429716729021
2259.25,46.4880277926243
2259.5,46.4330839123463
2259.75,46.3781400320684
2260,46.3231961517905
2260.25,46.2682522715125
2260.5,46.2133083912346
2260.75,46.1583645109567
2261,46.1034206306788
2261.25,46.0484767504008
2261.5,45.9935328701229
2261.75,45.938588989845
2262,45.8955395753365
2262.25,45.8805548807152
2262.5,45.865570186094
2262.75,45.8505854914727
2263,45.8356007968515
2263.25,45.8206161022302
2263.5,45.8056314076089
2263.75,45.7906467129877
2264,45.7756620183664
2264.25,45.7606773237452
2264.5,45.745692629124
2264.75,45.7307079345027
2265,45.7157232398814
2265.25,45.7007385452602
2265.5,45.6857538506389
2265.75,45.6707691560177
2266,45.6557844613964
2266.25,45.6407997667752
2266.5,45.6258150721539
2266.75,45.6108303775327
2267,45.5127593411397
2267.25,45.1980807540937
2267.5,44.8834021670472
2267.75,44.5687235800007
2268,44.2540449929548
2268.25,43.9393664059083
2268.5,43.6246878188618
2268.75,43.3100092318159
2269,42.9953306447694
2269.25,42.6806520577229
2269.5,42.365973470677
2269.75,42.0512948836305
2270,41.736616296584
2270.25,41.421937709538
2270.5,41.1072591224915
2270.75,40.792580535445
2271,40.4779019483991
2271.25,40.1632233613526
2271.5,39.8485447743061
2271.75,39.5338661872602
2272,39.3320684126136
2272.25,39.4569408677908
2272.5,39.5818133229678
2272.75,39.7066857781449
2273,39.8315582333221
2273.25,39.9564306884991
2273.5,40.0813031436763
2273.75,40.2061755988534
2274,40.3310480540304
2274.25,40.4559205092076
2274.5,40.5807929643848
2274.75,40.7056654195617
2275,40.8305378747389
2275.25,40.9554103299161
2275.5,41.080282785093
2275.75,41.2051552402702
2276,41.3300276954472
2276.25,41.4549001506244
2276.5,41.5797726058016
2276.75,41.7046450609785
2277,41.8082649045236
2277.25,41.8432291919732
2277.5,41.8781934794227
2277.75,41.9131577668724
2278,41.948122054322
2278.25,41.9830863417715
2278.5,42.0180506292211
2278.75,42.0530149166707
2279,42.0879792041203
2279.25,42.1229434915699
2279.5,42.1579077790195
2279.75,42.1928720664691
2280,42.2278363539187
2280.25,42.2628006413683
2280.5,42.2977649288178
2280.75,42.3327292162674
2281,42.3676935037171
2281.25,42.4026577911666
2281.5,42.4376220786162
2281.75,42.4725863660658
2282,42.5690345464263
2282.25,42.8887080316799
2282.5,43.2083815169334
2282.75,43.5280550021864
2283,43.84772848744
2283.25,44.1674019726936
2283.5,44.4870754579466
2283.75,44.8067489432002
2284,45.1264224284538
2284.25,45.4460959137068
2284.5,45.7657693989604
2284.75,46.085442884214
2285,46.405116369467
2285.25,46.7247898547206
2285.5,47.0444633399736
2285.75,47.3641368252272
2286,47.6838103104808
2286.25,48.0034837957338
2286.5,48.3231572809874
2286.75,48.6428307662409
2287,48.8765609056898
2287.25,48.7566833487197
2287.5,48.6368057917496
2287.75,48.5169282347797
2288,48.3970506778096
2288.25,48.2771731208395
2288.5,48.1572955638696
2288.75,48.0374180068995
2289,47.9175404499294
2289.25,47.7976628929596
2289.5,47.6777853359895
2289.75,47.5579077790194
2290,47.4380302220495
2290.25,47.3181526650794
2290.5,47.1982751081093
2290.75,47.0783975511394
2291,46.9585199941693
2291.25,46.8386424371992
2291.5,46.7187648802294
2291.75,46.5988873232593
2292,46.5612215149899
2292.25,46.9108643894854
2292.5,47.2605072639815
2292.75,47.6101501384776
2293,47.9597930129731
2293.25,48.3094358874692
2293.5,48.6590787619653
2293.75,49.0087216364608
2294,49.3583645109569
2294.25,49.7080073854524
2294.5,50.0576502599485
2294.75,50.4072931344446
2295,50.7569360089401
2295.25,51.1065788834362
2295.5,51.4562217579323
2295.75,51.8058646324278
2296,52.1555075069239
2296.25,52.50515038142
2296.5,52.8547932559155
2296.75,53.2044361304116
2297,53.5533064476948
2297.25,53.8979544239832
2297.5,54.2426024002722
2297.75,54.5872503765612
2298,54.9318983528496
2298.25,55.2765463291386
2298.5,55.6211943054277
2298.75,55.9658422817161
2299,56.3104902580051
2299.25,56.6551382342941
2299.5,56.9997862105825
2299.75,57.3444341868715
2300,57.6890821631605
2300.25,58.0337301394489
2300.5,58.378378115738
2300.75,58.723026092027
2301,59.0676740683154
2301.25,59.4123220446044
2301.5,59.7569700208934
2301.75,60.1016179971818
2302,60.4187745979302
2302.25,60.5586317477286
2302.5,60.6984888975268
2302.75,60.8383460473253
2303,60.9782031971237
2303.25,61.1180603469219
2303.5,61.2579174967204
2303.75,61.3977746465186
2304,61.537631796317
2304.25,61.6774889461154
2304.5,61.8173460959136
2304.75,61.9572032457121
2305,62.0970603955105
2305.25,62.2369175453087
2305.5,62.3767746951072
2305.75,62.5166318449056
2306,62.6564889947038
2306.25,62.7963461445022
2306.5,62.9362032943007
2306.75,63.0760604440989
2307,63.191472717555
2307.25,63.1165492444487
2307.5,63.0416257713425
2307.75,62.9667022982362
2308,62.8917788251299
2308.25,62.8168553520237
2308.5,62.7419318789174
2308.75,62.6670084058111
2309,62.5920849327049
2309.25,62.5171614595986
2309.5,62.4422379864923
2309.75,62.3673145133861
2310,62.2923910402798
2310.25,62.2174675671735
2310.5,62.1425440940674
2310.75,62.067620620961
2311,61.9926971478547
2311.25,61.9177736747486
2311.5,61.8428502016423
2311.75,61.7679267285359
2312,61.6608182304067
2312.25,61.2412467810114
2312.5,60.821675331616
2312.75,60.4021038822215
2313,59.9825324328261
2313.25,59.5629609834316
2313.5,59.1433895340362
2313.75,58.7238180846409
2314,58.3042466352463
2314.25,57.884675185851
2314.5,57.4651037364556
2314.75,57.0455322870611
2315,56.6259608376657
2315.25,56.2063893882704
2315.5,55.7868179388758
2315.75,55.3672464894805
2316,54.9476750400852
2316.25,54.5281035906906
2316.5,54.1085321412953
2316.75,53.6889606918999
2317,53.2872455177106
2317.25,53.1124240804625
2317.5,52.9376026432144
2317.75,52.7627812059667
2318,52.5879597687187
2318.25,52.4131383314706
2318.5,52.2383168942229
2318.75,52.0634954569748
2319,51.8886740197268
2319.25,51.713852582479
2319.5,51.539031145231
2319.75,51.3642097079829
2320,51.1893882707352
2320.25,51.0145668334871
2320.5,50.839745396239
2320.75,50.6649239589913
2321,50.4901025217433
2321.25,50.3152810844952
2321.5,50.1404596472475
2321.75,49.9656382099994
2322,49.8078713376417
2322.25,49.957718283854
2322.5,50.1075652300667
2322.75,50.257412176279
2323,50.4072591224916
2323.25,50.5571060687043
2323.5,50.7069530149166
2323.75,50.8567999611292
2324,51.0066469073418
2324.25,51.1564938535542
2324.5,51.3063407997668
2324.75,51.4561877459794
2325,51.6060346921918
2325.25,51.7558816384044
2325.5,51.905728584617
2325.75,52.0555755308294
2326,52.205422477042
2326.25,52.3552694232546
2326.5,52.5051163694669
2326.75,52.6549633156796
2327,52.8012827365046
2327.25,52.8412419221612
2327.5,52.8812011078179
2327.75,52.9211602934746
2328,52.9611194791312
2328.25,53.0010786647879
2328.5,53.0410378504446
2328.75,53.0809970361013
2329,53.120956221758
2329.25,53.1609154074146
2329.5,53.2008745930713
2329.75,53.240833778728
2330,53.2807929643847
2330.25,53.3207521500413
2330.5,53.360711335698
2330.75,53.4006705213547
2331,53.4406297070113
2331.25,53.480588892668
2331.5,53.5205480783246
2331.75,53.5605072639813
2332,53.6018074923474
2332.25,53.7566493367668
2332.5,53.9114911811865
2332.75,54.0663330256063
2333,54.2211748700257
2333.25,54.3760167144454
2333.5,54.5308585588651
2333.75,54.6857004032845
2334,54.8405422477042
2334.25,54.9953840921239
2334.5,55.1502259365434
2334.75,55.3050677809631
2335,55.4599096253828
2335.25,55.6147514698022
2335.5,55.7695933142219
2335.75,55.9244351586416
2336,56.079277003061
2336.25,56.2341188474807
2336.5,56.3889606919005
2336.75,56.5438025363199
2337,56.6986443807396
2337.25,56.8732908993734
2337.5,57.0481123366211
2337.75,57.2229337738692
2338,57.3977552111172
2338.25,57.572576648365
2338.5,57.747398085613
2338.75,57.9222195228611
2339,58.0970409601088
2339.25,58.2718623973569
2339.5,58.4466838346049
2339.75,58.6215052718527
2340,58.7963267091007
2340.25,58.9711481463488
2340.5,59.1459695835965
2340.75,59.3207910208446
2341,59.4956124580923
2341.25,59.6704338953404
2341.5,59.8452553325884
2341.75,60.0200767698362
2342,60.1948982070842
2342.25,59.942995967154
2342.5,59.6782663621788
2342.75,59.4135367572032
2343,59.1488071522276
2343.25,58.8840775472524
2343.5,58.6193479422768
2343.75,58.3546183373012
2344,58.089888732326
2344.25,57.8251591273504
2344.5,57.5604295223748
2344.75,57.2956999173996
2345,57.030970312424
2345.25,56.7662407074484
2345.5,56.5015111024732
2345.75,56.2367814974976
2346,55.972051892522
2346.25,55.7073222875468
2346.5,55.4425926825712
2346.75,55.1778630775956
2347,54.9131334726204
2347.25,54.5297264467225
2347.5,54.1401243865697
2347.75,53.7505223264176
2348,53.3609202662648
2348.25,52.971318206112
2348.5,52.5817161459599
2348.75,52.1921140858071
2349,51.8025120256543
2349.25,51.4129099655022
2349.5,51.0233079053494
2349.75,50.6337058451965
2350,50.2441037850444
2350.25,49.8545017248916
2350.5,49.4648996647395
2350.75,49.0752976045867
2351,48.6856955444339
2351.25,48.2960934842818
2351.5,47.906491424129
2351.75,47.5168893639762
2352,47.1272873038241
2352.25,46.9049074388999
2352.5,46.6951217142023
2352.75,46.485335989505
2353,46.2755502648073
2353.25,46.0657645401096
2353.5,45.8559788154123
2353.75,45.6461930907147
2354,45.436407366017
2354.25,45.2266216413197
2354.5,45.0168359166221
2354.75,44.8070501919244
2355,44.5972644672271
2355.25,44.3874787425294
2355.5,44.1776930178318
2355.75,43.9679072931345
2356,43.7581215684368
2356.25,43.5483358437392
2356.5,43.3385501190419
2356.75,43.1287643943442
2357,42.9189786696465
2357.25,42.8000534473544
2357.5,42.6901656867984
2357.75,42.5802779262425
2358,42.4703901656868
2358.25,42.3605024051309
2358.5,42.250614644575
2358.75,42.1407268840192
2359,42.0308391234633
2359.25,41.9209513629074
2359.5,41.8110636023517
2359.75,41.7011758417958
2360,41.59128808124
2360.25,41.4814003206841
2360.5,41.3715125601282
2360.75,41.2616247995725
2361,41.1517370390166
2361.25,41.0418492784606
2361.5,40.9319615179049
2361.75,40.822073757349
2362,40.7121859967931
2362.25,40.7177639570478
2362.5,40.7377435498761
2362.75,40.7577231427045
2363,40.7777027355328
2363.25,40.7976823283611
2363.5,40.8176619211895
2363.75,40.8376415140178
2364,40.8576211068461
2364.25,40.8776006996745
2364.5,40.8975802925028
2364.75,40.9175598853311
2365,40.9375394781595
2365.25,40.9575190709878
2365.5,40.9774986638161
2365.75,40.9974782566445
2366,41.0174578494728
2366.25,41.0374374423012
2366.5,41.0574170351295
2366.75,41.0773966279578
2367,41.0973762207862
2367.25,41.3863709246396
2367.5,41.7160342063068
2367.75,42.0456974879745
2368,42.3753607696423
2368.25,42.7050240513095
2368.5,43.0346873329772
2368.75,43.3643506146444
2369,43.6940138963122
2369.25,44.0236771779799
2369.5,44.3533404596471
2369.75,44.6830037413148
2370,45.0126670229826
2370.25,45.3423303046498
2370.5,45.6719935863175
2370.75,46.0016568679853
2371,46.3313201496525
2371.25,46.6609834313202
2371.5,46.990646712988
2371.75,47.3203099946551
2372,47.6499732763229
2372.25,47.7296584228172
2372.5,47.7646227102667
2372.75,47.7995869977164
2373,47.834551285166
2373.25,47.8695155726155
2373.5,47.9044798600651
2373.75,47.9394441475147
2374,47.9744084349643
2374.25,48.0093727224139
2374.5,48.0443370098635
2374.75,48.0793012973131
2375,48.1142655847627
2375.25,48.1492298722123
2375.5,48.1841941596618
2375.75,48.2191584471114
2376,48.254122734561
2376.25,48.2890870220106
2376.5,48.3240513094602
2376.75,48.3590155969098
2377,48.3939798843594
2377.25,48.4537534619309
2377.5,48.5186871386231
2377.75,48.5836208153151
2378,48.6485544920072
2378.25,48.7134881686993
2378.5,48.7784218453914
2378.75,48.8433555220835
2379,48.9082891987755
2379.25,48.9732228754677
2379.5,49.0381565521598
2379.75,49.1030902288518
2380,49.168023905544
2380.25,49.2329575822361
2380.5,49.2978912589281
2380.75,49.3628249356202
2381,49.4277586123124
2381.25,49.4926922890044
2381.5,49.5576259656965
2381.75,49.6225596423887
2382,49.6874933190807
2382.25,49.5669160876536
2382.5,49.4020844468197
2382.75,49.2372528059861
2383,49.0724211651523
2383.25,48.9075895243184
2383.5,48.7427578834848
2383.75,48.5779262426509
2384,48.413094601817
2384.25,48.2482629609835
2384.5,48.0834313201496
2384.75,47.9185996793157
2385,47.7537680384821
2385.25,47.5889363976482
2385.5,47.4241047568144
2385.75,47.2592731159808
2386,47.0944414751469
2386.25,46.929609834313
2386.5,46.7647781934794
2386.75,46.5999465526455
2387,46.4351149118117
2387.25,46.4157232398814
2387.5,46.4357028327098
2387.75,46.4556824255381
2388,46.4756620183665
2388.25,46.4956416111948
2388.5,46.5156212040231
2388.75,46.5356007968515
2389,46.5555803896798
2389.25,46.5755599825081
2389.5,46.5955395753365
2389.75,46.6155191681648
2390,46.6354987609931
2390.25,46.6554783538215
2390.5,46.6754579466498
2390.75,46.6954375394781
2391,46.7154171323065
2391.25,46.7353967251348
2391.5,46.7553763179632
2391.75,46.7753559107915
2392,46.7953355036199
2392.25,46.7310820659832
2392.5,46.6411738982556
2392.75,46.5512657305281
2393,46.4613575628007
2393.25,46.3714493950731
2393.5,46.2815412273455
2393.75,46.1916330596181
2394,46.1017248918905
2394.25,46.011816724163
2394.5,45.9219085564356
2394.75,45.832000388708
2395,45.7420922209804
2395.25,45.652184053253
2395.5,45.5622758855254
2395.75,45.4723677177979
2396,45.3824595500705
2396.25,45.2925513823429
2396.5,45.2026432146153
2396.75,45.1127350468879
2397,45.0228268791603
2397.25,44.9142850201643
2397.5,44.7994023614013
2397.75,44.6845197026383
2398,44.5696370438755
2398.25,44.4547543851125
2398.5,44.3398717263495
2398.75,44.2249890675867
2399,44.1101064088236
2399.25,43.9952237500606
2399.5,43.8803410912978
2399.75,43.7654584325348
2400,43.6505757737718
2400.25,43.535693115009
2400.5,43.420810456246
2400.75,43.305927797483
2401,43.1910451387202
2401.25,43.0761624799572
2401.5,42.9612798211942
2401.75,42.8463971624314
2402,42.7315145036684
2402.25,42.7
2402.5,42.7
2402.75,42.7
2403,42.7
2403.25,42.7
2403.5,42.7
2403.75,42.7
2404,42.7
2404.25,42.7
2404.5,42.7
2404.75,42.7
2405,42.7
2405.25,42.7
2405.5,42.7
2405.75,42.7
2406,42.7
2406.25,42.7
2406.5,42.7
2406.75,42.7
2407,42.7
2407.25,42.7211359992226
2407.5,42.7511053884651
2407.75,42.7810747777076
2408,42.8110441669501
2408.25,42.8410135561926
2408.5,42.8709829454351
2408.75,42.9009523346776
2409,42.9309217239201
2409.25,42.9608911131626
2409.5,42.9908605024052
2409.75,43.0208298916476
2410,43.0507992808902
2410.25,43.0807686701327
2410.5,43.1107380593751
2410.75,43.1407074486177
2411,43.1706768378602
2411.25,43.2006462271027
2411.5,43.2306156163452
2411.75,43.2605850055877
2412,43.2905543948302
2412.25,43.2418492784607
2412.5,43.1569360089402
2412.75,43.0720227394199
2413,42.9871094698994
2413.25,42.9021962003789
2413.5,42.8172829308586
2413.75,42.7323696613381
2414,42.6474563918176
2414.25,42.5625431222973
2414.5,42.4776298527768
2414.75,42.3927165832563
2415,42.307803313736
2415.25,42.2228900442155
2415.5,42.1379767746952
2415.75,42.0530635051747
2416,41.9681502356542
2416.25,41.8832369661339
2416.5,41.7983236966134
2416.75,41.7134104270929
2417,41.6284971575726
2417.25,41.7028764394345
2417.5,41.8577182838542
2417.75,42.0125601282736
2418,42.1674019726933
2418.25,42.322243817113
2418.5,42.4770856615324
2418.75,42.6319275059521
2419,42.7867693503718
2419.25,42.9416111947913
2419.5,43.096453039211
2419.75,43.2512948836307
2420,43.4061367280501
2420.25,43.5609785724698
2420.5,43.7158204168895
2420.75,43.8706622613089
2421,44.0255041057287
2421.25,44.1803459501484
2421.5,44.3351877945678
2421.75,44.4900296389875
2422,44.6448714834072
2422.25,44.7096496768865
2422.5,44.7246343715077
2422.75,44.739619066129
2423,44.7546037607502
2423.25,44.7695884553715
2423.5,44.7845731499927
2423.75,44.799557844614
2424,44.8145425392352
2424.25,44.8295272338565
2424.5,44.8445119284777
2424.75,44.859496623099
2425,44.8744813177202
2425.25,44.8894660123415
2425.5,44.9044507069627
2425.75,44.919435401584
2426,44.9344200962052
2426.25,44.9494047908265
2426.5,44.9643894854477
2426.75,44.979374180069
2427,44.9943588746903
2427.25,45.1214664010494
2427.5,45.3162674311258
2427.75,45.5110684612023
2428,45.7058694912783
2428.25,45.9006705213547
2428.5,46.0954715514311
2428.75,46.2902725815072
2429,46.4850736115836
2429.25,46.67987464166
2429.5,46.874675671736
2429.75,47.0694767018124
2430,47.2642777318888
2430.25,47.4590787619649
2430.5,47.6538797920413
2430.75,47.8486808221177
2431,48.0434818521937
2431.25,48.2382828822701
2431.5,48.4330839123466
2431.75,48.6278849424226
2432,48.822685972499
2432.25,48.9030124872455
2432.5,48.9080073854526
2432.75,48.9130022836597
2433,48.9179971818668
2433.25,48.9229920800739
2433.5,48.9279869782809
2433.75,48.932981876488
2434,48.9379767746951
2434.25,48.9429716729022
2434.5,48.9479665711093
2434.75,48.9529614693164
2435,48.9579563675234
2435.25,48.9629512657305
2435.5,48.9679461639376
2435.75,48.9729410621447
2436,48.9779359603518
2436.25,48.9829308585589
2436.5,48.987925756766
2436.75,48.992920654973
2437,48.9979155531801
2437.25,49.0611194791313
2437.5,49.16601234148
2437.75,49.2709052038288
2438,49.3757980661776
2438.25,49.4806909285263
2438.5,49.5855837908751
2438.75,49.690476653224
2439,49.7953695155726
2439.25,49.9002623779214
2439.5,50.0051552402703
2439.75,50.1100481026189
2440,50.2149409649677
2440.25,50.3198338273166
2440.5,50.4247266896652
2440.75,50.529619552014
2441,50.6345124143629
2441.25,50.7394052767115
2441.5,50.8442981390604
2441.75,50.9491910014092
2442,51.0540838637578
2442.25,51.1140420776444
2442.5,51.1390165686799
2442.75,51.1639910597153
2443,51.1889655507507
2443.25,51.2139400417861
2443.5,51.2389145328215
2443.75,51.263889023857
2444,51.2888635148924
2444.25,51.3138380059278
2444.5,51.3388124969632
2444.75,51.3637869879986
2445,51.3887614790341
2445.25,51.4137359700695
2445.5,51.4387104611049
2445.75,51.4636849521403
2446,51.4886594431758
2446.25,51.5136339342112
2446.5,51.5386084252466
2446.75,51.563582916282
2447,51.5885574073174
2447.25,51.6081191390117
2447.5,51.623103833633
2447.75,51.6380885282542
2448,51.6530732228755
2448.25,51.6680579174967
2448.5,51.683042612118
2448.75,51.6980273067392
2449,51.7130120013605
2449.25,51.7279966959817
2449.5,51.742981390603
2449.75,51.7579660852243
2450,51.7729507798455
2450.25,51.7879354744667
2450.5,51.802920169088
2450.75,51.8179048637092
2451,51.8328895583305
2451.25,51.8478742529518
2451.5,51.862858947573
2451.75,51.8778436421943
2452,51.8928283368155
2452.25,51.9130217190613
2452.5,51.9379962100967
2452.75,51.9629707011321
2453,51.9879451921675
2453.25,52.012919683203
2453.5,52.0378941742384
2453.75,52.0628686652738
2454,52.0878431563092
2454.25,52.1128176473446
2454.5,52.1377921383801
2454.75,52.1627666294155
2455,52.1877411204509
2455.25,52.2127156114863
2455.5,52.2376901025218
2455.75,52.2626645935572
2456,52.2876390845926
2456.25,52.312613575628
2456.5,52.3375880666634
2456.75,52.3625625576989
2457,52.3875370487343
2457.25,52.3949953840921
2457.5,52.385005587678
2457.75,52.3750157912638
2458,52.3650259948496
2458.25,52.3550361984354
2458.5,52.3450464020213
2458.75,52.3350566056071
2459,52.3250668091929
2459.25,52.3150770127788
2459.5,52.3050872163646
2459.75,52.2950974199504
2460,52.2851076235363
2460.25,52.2751178271221
2460.5,52.2651280307079
2460.75,52.2551382342938
2461,52.2451484378796
2461.25,52.2351586414654
2461.5,52.2251688450513
2461.75,52.2151790486371
2462,52.2051892522229
2462.25,51.9767746951074
2462.5,51.5122491618483
2462.75,51.0477236285891
2463,50.5831980953309
2463.25,50.1186725620717
2463.5,49.6541470288126
2463.75,49.1896214955543
2464,48.7250959622952
2464.25,48.2605704290361
2464.5,47.7960448957778
2464.75,47.3315193625187
2465,46.8669938292596
2465.25,46.4024682960013
2465.5,45.9379427627422
2465.75,45.4734172294831
2466,45.0088916962248
2466.25,44.5443661629657
2466.5,44.0798406297066
2466.75,43.6153150964483
2467,43.1507895631892
2467.25,42.8126670229822
2467.5,42.6228608911132
2467.75,42.4330547592439
2468,42.2432486273746
2468.25,42.0534424955056
2468.5,41.8636363636363
2468.75,41.6738302317669
2469,41.484024099898
2469.25,41.2942179680287
2469.5,41.1044118361593
2469.75,40.9146057042904
2470,40.7247995724211
2470.25,40.5349934405517
2470.5,40.3451873086828
2470.75,40.1553811768134
2471,39.9655750449445
2471.25,39.7757689130752
2471.5,39.5859627812058
2471.75,39.3961566493369
2472,39.2063505174675
2472.25,39.0648607939361
2472.5,38.9849424226228
2472.75,38.9050240513094
2473,38.825105679996
2473.25,38.7451873086828
2473.5,38.6652689373694
2473.75,38.585350566056
2474,38.5054321947428
2474.25,38.4255138234294
2474.5,38.345595452116
2474.75,38.2656770808027
2475,38.1857587094893
2475.25,38.1058403381759
2475.5,38.0259219668627
2475.75,37.9460035955493
2476,37.8660852242359
2476.25,37.7861668529226
2476.5,37.7062484816092
2476.75,37.6263301102958
2477,37.5464117389826
2477.25,37.5356007968515
2477.5,37.620514066372
2477.75,37.7054273358923
2478,37.7903406054128
2478.25,37.8752538749333
2478.5,37.9601671444536
2478.75,38.0450804139741
2479,38.1299936834946
2479.25,38.2149069530149
2479.5,38.2998202225354
2479.75,38.3847334920559
2480,38.4696467615762
2480.25,38.5545600310967
2480.5,38.639473300617
2480.75,38.7243865701375
2481,38.809299839658
2481.25,38.8942131091783
2481.5,38.9791263786988
2481.75,39.0640396482193
2482,39.1489529177396
2482.25,39.2637481171955
2482.5,39.4235848598223
2482.75,39.5834216024488
2483,39.7432583450756
2483.25,39.9030950877024
2483.5,40.0629318303289
2483.75,40.2227685729557
2484,40.3826053155825
2484.25,40.542442058209
2484.5,40.7022788008358
2484.75,40.8621155434626
2485,41.0219522860891
2485.25,41.1817890287159
2485.5,41.3416257713427
2485.75,41.5014625139692
2486,41.661299256596
2486.25,41.8211359992228
2486.5,41.9809727418493
2486.75,42.1408094844761
2487,42.3006462271028
2487.25,42.4963947330061
2487.5,42.7511345415676
2487.75,43.005874350129
2488,43.26061415869
2488.25,43.5153539672515
2488.5,43.7700937758129
2488.75,44.0248335843739
2489,44.2795733929354
2489.25,44.5343132014968
2489.5,44.7890530100578
2489.75,45.0437928186193
2490,45.2985326271803
2490.25,45.5532724357417
2490.5,45.8080122443032
2490.75,46.0627520528642
2491,46.3174918614256
2491.25,46.5722316699871
2491.5,46.8269714785481
2491.75,47.0817112871095
2492,47.336451095671
2492.25,47.6162237014721
2492.5,47.9408920849328
2492.75,48.2655604683935
2493,48.5902288518535
2493.25,48.9148972353142
2493.5,49.2395656187749
2493.75,49.564234002235
2494,49.8889023856957
2494.25,50.2135707691563
2494.5,50.5382391526164
2494.75,50.8629075360771
2495,51.1875759195378
2495.25,51.5122443029979
2495.5,51.8369126864585
2495.75,52.1615810699192
2496,52.4862494533793
2496.25,52.81091783684
2496.5,53.1355862203006
2496.75,53.4602546037607
2497,53.7849229872214
2497.25,54.0219182741364
2497.5,54.0868519508284
2497.75,54.1517856275206
2498,54.2167193042127
2498.25,54.2816529809047
2498.5,54.3465866575969
2498.75,54.411520334289
2499,54.476454010981
2499.25,54.5413876876731
2499.5,54.6063213643652
2499.75,54.6712550410573
2500,54.7361887177494
2500.25,54.8011223944414
2500.5,54.8660560711336
2500.75,54.9309897478257
2501,54.9959234245177
2501.25,55.0608571012099
2501.5,55.125790777902
2501.75,55.190724454594
2502,55.2556581312862
2502.25,55.3411836159566
2502.5,55.4710509693406
2502.75,55.6009183227249
2503,55.7307856761092
2503.25,55.8606530294932
2503.5,55.9905203828775
2503.75,56.1203877362617
2504,56.2502550896458
2504.25,56.38012244303
2504.5,56.5099897964143
2504.75,56.6398571497983
2505,56.7697245031826
2505.25,56.8995918565669
2505.5,57.0294592099509
2505.75,57.1593265633352
2506,57.2891939167194
2506.25,57.4190612701035
2506.5,57.5489286234878
2506.75,57.678795976872
2507,57.8086633302561
2507.25,57.8170108352362
2507.5,57.5372965356393
2507.75,57.2575822360429
2508,56.9778679364461
2508.25,56.6981536368497
2508.5,56.4184393372528
2508.75,56.1387250376559
2509,55.8590107380595
2509.25,55.5792964384626
2509.5,55.2995821388657
2509.75,55.0198678392694
2510,54.7401535396725
2510.25,54.4604392400756
2510.5,54.1807249404792
2510.75,53.9010106408823
2511,53.6212963412854
2511.25,53.341582041689
2511.5,53.0618677420921
2511.75,52.7821534424953
2512,52.5024391428989
2512.25,52.338637578349
2512.5,52.4784947281475
2512.75,52.6183518779456
2513,52.7582090277441
2513.25,52.8980661775425
2513.5,53.0379233273407
2513.75,53.1777804771392
2514,53.3176376269376
2514.25,53.4574947767358
2514.5,53.5973519265342
2514.75,53.7372090763327
2515,53.8770662261309
2515.25,54.0169233759293
2515.5,54.1567805257278
2515.75,54.296637675526
2516,54.4364948253244
2516.25,54.5763519751229
2516.5,54.716209124921
2516.75,54.8560662747195
2517,54.9959234245179
2517.25,55.0322724843302
2517.5,54.7675428793546
2517.75,54.5028132743794
2518,54.2380836694038
2518.25,53.9733540644282
2518.5,53.708624459453
2518.75,53.4438948544774
2519,53.1791652495018
2519.25,52.9144356445266
2519.5,52.649706039551
2519.75,52.3849764345754
2520,52.1202468296002
2520.25,51.8555172246246
2520.5,51.590787619649
2520.75,51.3260580146738
2521,51.0613284096982
2521.25,50.7965988047226
2521.5,50.5318691997474
2521.75,50.2671395947718
2522,50.0024099897962
2522.25,49.8564404061998
2522.5,50.09619552014
2522.75,50.3359506340802
2523,50.57570574802
2523.25,50.8154608619602
2523.5,51.0552159759004
2523.75,51.2949710898401
2524,51.5347262037803
2524.25,51.7744813177205
2524.5,52.0142364316602
2524.75,52.2539915456004
2525,52.4937466595406
2525.25,52.7335017734804
2525.5,52.9732568874206
2525.75,53.2130120013608
2526,53.4527671153005
2526.25,53.6925222292407
2526.5,53.9322773431809
2526.75,54.1720324571207
2527,54.4117875710608
2527.25,54.5828191049998
2527.5,54.5029007336864
2527.75,54.422982362373
2528,54.3430639910598
2528.25,54.2631456197464
2528.5,54.183227248433
2528.75,54.1033088771197
2529,54.0233905058063
2529.25,53.9434721344929
2529.5,53.8635537631797
2529.75,53.7836353918663
2530,53.7037170205529
2530.25,53.6237986492396
2530.5,53.5438802779262
2530.75,53.4639619066128
2531,53.3840435352996
2531.25,53.3041251639862
2531.5,53.2242067926728
2531.75,53.1442884213595
2532,53.0643700500461
2532.25,52.9786210582575
2532.5,52.8687332977018
2532.75,52.7588455371459
2533,52.6489577765899
2533.25,52.5390700160342
2533.5,52.4291822554783
2533.75,52.3192944949224
2534,52.2094067343667
2534.25,52.0995189738107
2534.5,51.9896312132548
2534.75,51.8797434526991
2535,51.7698556921432
2535.25,51.6599679315873
2535.5,51.5500801710315
2535.75,51.4401924104756
2536,51.3303046499197
2536.25,51.220416889364
2536.5,51.110529128808
2536.75,51.0006413682523
2537,50.8907536076964
2537.25,50.8
2537.5,50.8
2537.75,50.8
2538,50.8
2538.25,50.8
2538.5,50.8
2538.75,50.8
2539,50.8
2539.25,50.8
2539.5,50.8
2539.75,50.8
2540,50.8
2540.25,50.8
2540.5,50.8
2540.75,50.8
2541,50.8
2541.25,50.8
2541.5,50.8
2541.75,50.8
2542,50.8
2542.25,50.8
2542.5,50.8
2542.75,50.8
2543,50.8
2543.25,50.8
2543.5,50.8
2543.75,50.8
2544,50.8
2544.25,50.8
2544.5,50.8
2544.75,50.8
2545,50.8
2545.25,50.8
2545.5,50.8
2545.75,50.8
2546,50.8
2546.25,50.8
2546.5,50.8
2546.75,50.8
2547,50.8
2547.25,50.8352801127254
2547.5,51.100009717701
2547.75,51.3647393226762
2548,51.6294689276518
2548.25,51.8941985326274
2548.5,52.1589281376026
2548.75,52.4236577425782
2549,52.6883873475538
2549.25,52.953116952529
2549.5,53.2178465575046
2549.75,53.4825761624802
2550,53.7473057674554
2550.25,54.012035372431
2550.5,54.2767649774066
2550.75,54.5414945823818
2551,54.8062241873574
2551.25,55.070953792333
2551.5,55.3356833973082
2551.75,55.6004130022838
2552,55.8651426072594
2552.25,56.0594188814927
2552.5,55.6997862105824
2552.75,55.3401535396721
2553,54.9805208687625
2553.25,54.6208881978522
2553.5,54.2612555269419
2553.75,53.9016228560323
2554,53.541990185122
2554.25,53.1823575142117
2554.5,52.8227248433021
2554.75,52.4630921723918
2555,52.1034595014821
2555.25,51.7438268305718
2555.5,51.3841941596616
2555.75,51.0245614887519
2556,50.6649288178416
2556.25,50.3052961469314
2556.5,49.9456634760217
2556.75,49.5860308051114
2557,49.2263981342012
2557.25,48.8912297750353
2557.5,48.7963267091006
2557.75,48.7014236431659
2558,48.6065205772315
2558.25,48.5116175112968
2558.5,48.4167144453621
2558.75,48.3218113794277
2559,48.226908313493
2559.25,48.1320052475583
2559.5,48.0371021816239
2559.75,47.9421991156892
2560,47.8472960497545
2560.25,47.75239298382
2560.5,47.6574899178854
2560.75,47.5625868519507
2561,47.4676837860162
2561.25,47.3727807200816
2561.5,47.2778776541469
2561.75,47.1829745882124
2562,47.0880715222778
2562.25,46.9856178028276
2562.5,46.7858218745445
2562.75,46.586025946261
2563,46.3862300179775
2563.25,46.1864340896944
2563.5,45.9866381614109
2563.75,45.7868422331274
2564,45.5870463048443
2564.25,45.3872503765608
2564.5,45.1874544482776
2564.75,44.9876585199941
2565,44.7878625917107
2565.25,44.5880666634275
2565.5,44.388270735144
2565.75,44.1884748068605
2566,43.9886788785774
2566.25,43.7888829502939
2566.5,43.5890870220104
2566.75,43.3892910937273
2567,43.1894951654438
2567.25,43.001030076284
2567.5,43.0210096691123
2567.75,43.0409892619406
2568,43.060968854769
2568.25,43.0809484475973
2568.5,43.1009280404256
2568.75,43.120907633254
2569,43.1408872260823
2569.25,43.1608668189107
2569.5,43.180846411739
2569.75,43.2008260045673
2570,43.2208055973957
2570.25,43.240785190224
2570.5,43.2607647830523
2570.75,43.2807443758807
2571,43.300723968709
2571.25,43.3207035615373
2571.5,43.3406831543657
2571.75,43.360662747194
2572,43.3806423400223
2572.25,43.4021767649774
2572.5,43.4721053398767
2572.75,43.5420339147758
2573,43.611962489675
2573.25,43.6818910645742
2573.5,43.7518196394733
2573.75,43.8217482143725
2574,43.8916767892716
2574.25,43.9616053641708
2574.5,44.0315339390701
2574.75,44.1014625139692
2575,44.1713910888684
2575.25,44.2413196637676
2575.5,44.3112482386667
2575.75,44.3811768135659
2576,44.4511053884651
2576.25,44.5210339633642
2576.5,44.5909625382635
2576.75,44.6608911131627
2577,44.7308196880618
2577.25,44.8004810261892
2577.5,44.845435110053
2577.75,44.8903891939167
2578,44.9353432777805
2578.25,44.9802973616443
2578.5,45.025251445508
2578.75,45.0702055293718
2579,45.1151596132356
2579.25,45.1601136970993
2579.5,45.205067780963
2579.75,45.2500218648268
2580,45.2949759486905
2580.25,45.3399300325543
2580.5,45.3848841164181
2580.75,45.4298382002818
2581,45.4747922841456
2581.25,45.5197463680094
2581.5,45.5647004518731
2581.75,45.6096545357369
2582,45.6546086196007
2582.25,45.6995627034644
2582.5,45.8335503619845
2582.75,45.9684126135756
2583,46.1032748651669
2583.25,46.2381371167583
2583.5,46.3729993683494
2583.75,46.5078616199407
2584,46.6427238715321
2584.25,46.7775861231232
2584.5,46.9124483747146
2584.75,47.0473106263059
2585,47.182172877897
2585.25,47.3170351294884
2585.5,47.4518973810798
2585.75,47.5867596326709
2586,47.7216218842622
2586.25,47.8564841358536
2586.5,47.9913463874447
2586.75,48.1262086390361
2587,48.2610708906274
2587.25,48.3959331422185
2587.5,48.3564015353967
2587.75,48.3114474515329
2588,48.2664933676692
2588.25,48.2215392838054
2588.5,48.1765851999416
2588.75,48.1316311160779
2589,48.0866770322142
2589.25,48.0417229483504
2589.5,47.9967688644867
2589.75,47.9518147806229
2590,47.9068606967591
2590.25,47.8619066128954
2590.5,47.8169525290316
2590.75,47.7719984451678
2591,47.7270443613041
2591.25,47.6820902774403
2591.5,47.6371361935765
2591.75,47.5921821097128
2592,47.5472280258491
2592.25,47.5022739419854
2592.5,47.5711335697974
2592.75,47.6460570429037
2593,47.7209805160099
2593.25,47.7959039891162
2593.5,47.8708274622225
2593.75,47.9457509353287
2594,48.020674408435
2594.25,48.0955978815413
2594.5,48.1705213546475
2594.75,48.2454448277538
2595,48.3203683008601
2595.25,48.3952917739663
2595.5,48.4702152470726
2595.75,48.5451387201789
2596,48.6200621932851
2596.25,48.6949856663914
2596.5,48.7699091394977
2596.75,48.8448326126038
2597,48.9197560857101
2597.25,48.9946795588165
2597.5,49.1345658617171
2597.75,49.2794179097226
2598,49.4242699577282
2598.25,49.5691220057334
2598.5,49.713974053739
2598.75,49.8588261017445
2599,50.0036781497498
2599.25,50.1485301977553
2599.5,50.2933822457608
2599.75,50.4382342937661
2600,50.5830863417716
2600.25,50.7279383897772
2600.5,50.8727904377824
2600.75,51.017642485788
2601,51.1624945337935
2601.25,51.3073465817988
2601.5,51.4521986298043
2601.75,51.5970506778096
2602,51.7419027258151
2602.25,51.8867547738206
2602.5,51.9181526650794
2602.75,51.9381322579078
2603,51.9581118507361
2603.25,51.9780914435644
2603.5,51.9980710363928
2603.75,52.0180506292211
2604,52.0380302220495
2604.25,52.0580098148778
2604.5,52.0779894077062
2604.75,52.0979690005345
2605,52.1179485933628
2605.25,52.1379281861912
2605.5,52.1579077790195
2605.75,52.1778873718478
2606,52.1978669646762
2606.25,52.2178465575045
2606.5,52.2378261503328
2606.75,52.2578057431612
2607,52.2777853359895
2607.25,52.2977649288178
2607.5,52.0959380010687
2607.75,51.8661726835431
2608,51.6364073660171
2608.25,51.4066420484911
2608.5,51.1768767309655
2608.75,50.9471114134395
2609,50.7173460959134
2609.25,50.4875807783878
2609.5,50.2578154608618
2609.75,50.0280501433358
2610,49.7982848258102
2610.25,49.5685195082842
2610.5,49.3387541907582
2610.75,49.1089888732326
2611,48.8792235557066
2611.25,48.649458238181
2611.5,48.4196929206549
2611.75,48.1899276031289
2612,47.9601622856033
2612.25,47.7303969680773
2612.5,47.6306544871483
2612.75,47.550736115835
2613,47.4708177445216
2613.25,47.3908993732082
2613.5,47.310981001895
2613.75,47.2310626305816
2614,47.1511442592682
2614.25,47.0712258879549
2614.5,46.9913075166415
2614.75,46.9113891453281
2615,46.8314707740149
2615.25,46.7515524027015
2615.5,46.6716340313881
2615.75,46.5917156600748
2616,46.5117972887615
2616.25,46.4318789174481
2616.5,46.3519605461348
2616.75,46.2720421748214
2617,46.192123803508
2617.25,46.1122054321947
2617.5,46.3793158738644
2617.75,46.7089791555322
2618,47.0386424371993
2618.25,47.3683057188671
2618.5,47.6979690005349
2618.75,48.027632282202
2619,48.3572955638698
2619.25,48.6869588455376
2619.5,49.0166221272047
2619.75,49.3462854088725
2620,49.6759486905396
2620.25,50.0056119722074
2620.5,50.3352752538752
2620.75,50.6649385355423
2621,50.9946018172101
2621.25,51.3242650988779
2621.5,51.653928380545
2621.75,51.9835916622128
2622,52.3132549438806
2622.25,52.6429182255477
2622.5,52.6132695204314
2622.75,52.5083766580826
2623,52.403483795734
2623.25,52.2985909333851
2623.5,52.1936980710363
2623.75,52.0888052086877
2624,51.9839123463388
2624.25,51.87901948399
2624.5,51.7741266216413
2624.75,51.6692337592925
2625,51.5643408969437
2625.25,51.459448034595
2625.5,51.3545551722462
2625.75,51.2496623098974
2626,51.1447694475487
2626.25,51.0398765851999
2626.5,50.9349837228511
2626.75,50.8300908605024
2627,50.7251979981536
2627.25,50.6203051358047
2627.5,50.6402798697828
2627.75,50.6902288518537
2628,50.7401778339246
2628.25,50.7901268159953
2628.5,50.8400757980662
2628.75,50.8900247801371
2629,50.9399737622079
2629.25,50.9899227442787
2629.5,51.0398717263495
2629.75,51.0898207084204
2630,51.1397696904913
2630.25,51.1897186725621
2630.5,51.2396676546329
2630.75,51.2896166367038
2631,51.3395656187746
2631.25,51.3895146008455
2631.5,51.4394635829163
2631.75,51.4894125649871
2632,51.539361547058
2632.25,51.5893105291289
2632.5,51.6
2632.75,51.6
2633,51.6
2633.25,51.6
2633.5,51.6
2633.75,51.6
2634,51.6
2634.25,51.6
2634.5,51.6
2634.75,51.6
2635,51.6
2635.25,51.6
2635.5,51.6
2635.75,51.6
2636,51.6
2636.25,51.6
2636.5,51.6
2636.75,51.6
2637,51.6
2637.25,51.6
2637.5,51.6229434915699
2637.75,51.6529128808124
2638,51.6828822700549
2638.25,51.7128516592974
2638.5,51.7428210485399
2638.75,51.7727904377824
2639,51.8027598270249
2639.25,51.8327292162674
2639.5,51.86269860551
2639.75,51.8926679947524
2640,51.922637383995
2640.25,51.9526067732375
2640.5,51.9825761624799
2640.75,52.0125455517225
2641,52.042514940965
2641.25,52.0724843302075
2641.5,52.10245371945
2641.75,52.1324231086925
2642,52.162392497935
2642.25,52.1923618871775
2642.5,52.3191001409068
2642.75,52.4789368835333
2643,52.6387736261601
2643.25,52.7986103687869
2643.5,52.9584471114134
2643.75,53.1182838540402
2644,53.278120596667
2644.25,53.4379573392935
2644.5,53.5977940819203
2644.75,53.7576308245471
2645,53.9174675671736
2645.25,54.0773043098004
2645.5,54.2371410524272
2645.75,54.3969777950537
2646,54.5568145376805
2646.25,54.7166512803073
2646.5,54.8764880229338
2646.75,55.0363247655606
2647,55.1961615081874
2647.25,55.3559982508139
2647.5,55.4108595306351
2647.75,55.4258442252563
2648,55.4408289198776
2648.25,55.4558136144988
2648.5,55.4707983091201
2648.75,55.4857830037413
2649,55.5007676983626
2649.25,55.5157523929838
2649.5,55.5307370876051
2649.75,55.5457217822263
2650,55.5607064768476
2650.25,55.5756911714688
2650.5,55.5906758660901
2650.75,55.6056605607113
2651,55.6206452553326
2651.25,55.6356299499539
2651.5,55.6506146445751
2651.75,55.6655993391964
2652,55.6805840338176
2652.25,55.6955687284389
2652.5,55.5944657693989
2652.75,55.4446188231863
2653,55.2947718769739
2653.25,55.1449249307613
2653.5,54.9950779845487
2653.75,54.8452310383364
2654,54.6953840921237
2654.25,54.5455371459111
2654.5,54.3956901996988
2654.75,54.2458432534862
2655,54.0959963072735
2655.25,53.9461493610612
2655.5,53.7963024148486
2655.75,53.6464554686359
2656,53.4966085224236
2656.25,53.346761576211
2656.5,53.1969146299984
2656.75,53.047067683786
2657,52.8972207375734
2657.25,52.747373791361
2657.5,52.4848063748117
2657.75,52.1701277877652
2658,51.8554492007193
2658.25,51.5407706136728
2658.5,51.2260920266263
2658.75,50.9114134395803
2659,50.5967348525338
2659.25,50.2820562654873
2659.5,49.9673776784414
2659.75,49.6526990913949
2660,49.3380205043484
2660.25,49.0233419173025
2660.5,48.708663330256
2660.75,48.3939847432095
2661,48.0793061561635
2661.25,47.764627569117
2661.5,47.4499489820705
2661.75,47.1352703950246
2662,46.8205918079781
2662.25,46.5059132209316
2662.5,46.4364510956708
2662.75,46.4913949759487
2663,46.5463388562267
2663.25,46.6012827365045
2663.5,46.6562266167825
2663.75,46.7111704970605
2664,46.7661143773383
2664.25,46.8210582576163
2664.5,46.8760021378942
2664.75,46.9309460181721
2665,46.9858898984501
2665.25,47.040833778728
2665.5,47.0957776590059
2665.75,47.1507215392838
2666,47.2056654195618
2666.25,47.2606092998397
2666.5,47.3155531801176
2666.75,47.3704970603955
2667,47.4254409406734
2667.25,47.4803848209514
2667.5,47.564234002235
2667.75,47.6641319663768
2668,47.7640299305185
2668.25,47.8639278946601
2668.5,47.9638258588018
2668.75,48.0637238229436
2669,48.1636217870851
2669.25,48.2635197512269
2669.5,48.3634177153686
2669.75,48.4633156795102
2670,48.5632136436519
2670.25,48.6631116077937
2670.5,48.7630095719353
2670.75,48.862907536077
2671,48.9628055002187
2671.25,49.0627034643603
2671.5,49.1626014285021
2671.75,49.2624993926438
2672,49.3623973567854
2672.25,49.4622953209271
2672.5,49.6430445556584
2672.75,49.872809873184
2673,50.10257519071
2673.25,50.332340508236
2673.5,50.5621058257616
2673.75,50.7918711432876
2674,51.0216364608136
2674.25,51.2514017783392
2674.5,51.4811670958653
2674.75,51.7109324133913
2675,51.9406977309169
2675.25,52.1704630484429
2675.5,52.4002283659689
2675.75,52.6299936834945
2676,52.8597590010205
2676.25,53.0895243185461
2676.5,53.3192896360721
2676.75,53.5490549535982
2677,53.7788202711237
2677.25,54.0085855886498
2677.5,54.2082746222245
2677.75,54.3880909576793
2678,54.5679072931345
2678.25,54.7477236285896
2678.5,54.9275399640444
2678.75,55.1073562994996
2679,55.2871726349547
2679.25,55.4669889704096
2679.5,55.6468053058647
2679.75,55.8266216413198
2680,56.0064379767747
2680.25,56.1862543122298
2680.5,56.3660706476849
2680.75,56.5458869831398
2681,56.7257033185949
2681.25,56.90551965405
2681.5,57.0853359895049
2681.75,57.26515232496
2682,57.4449686604151
2682.25,57.62478499587
2682.5,57.5895874836013
2682.75,57.399781351732
2683,57.209975219863
2683.25,57.0201690879937
2683.5,56.8303629561244
2683.75,56.6405568242554
2684,56.4507506923861
2684.25,56.2609445605167
2684.5,56.0711384286478
2684.75,55.8813322967785
2685,55.6915261649091
2685.25,55.5017200330402
2685.5,55.3119139011708
2685.75,55.1221077693019
2686,54.9323016374326
2686.25,54.7424955055632
2686.5,54.5526893736943
2686.75,54.3628832418249
2687,54.1730771099556
2687.25,53.9832709780867
2687.5,54.0009280404257
2687.75,54.1807443758808
2688,54.3605607113356
2688.25,54.5403770467908
2688.5,54.7201933822459
2688.75,54.9000097177007
2689,55.0798260531559
2689.25,55.259642388611
2689.5,55.4394587240658
2689.75,55.619275059521
2690,55.7990913949761
2690.25,55.9789077304309
2690.5,56.1587240658861
2690.75,56.3385404013412
2691,56.5183567367961
2691.25,56.6981730722512
2691.5,56.8779894077063
2691.75,57.0578057431612
2692,57.2376220786163
2692.25,57.4174384140714
2692.5,57.3162965842282
2692.75,56.9766435061462
2693,56.6369904280643
2693.25,56.297337349983
2693.5,55.9576842719011
2693.75,55.6180311938191
2694,55.2783781157378
2694.25,54.9387250376559
2694.5,54.5990719595745
2694.75,54.2594188814926
2695,53.9197658034107
2695.25,53.5801127253294
2695.5,53.2404596472474
2695.75,52.9008065691655
2696,52.5611534910842
2696.25,52.2215004130022
2696.5,51.8818473349203
2696.75,51.542194256839
2697,51.202541178757
2697.25,50.8628881006751
2697.5,50.8221757932073
2697.75,51.0569360089404
2698,51.2916962246735
2698.25,51.5264564404061
2698.5,51.7612166561392
2698.75,51.9959768718723
2699,52.230737087605
2699.25,52.4654973033381
2699.5,52.7002575190712
2699.75,52.9350177348039
2700,53.169777950537
2700.25,53.4045381662701
2700.5,53.6392983820028
2700.75,53.8740585977359
2701,54.108818813469
2701.25,54.3435790292017
2701.5,54.5783392449348
2701.75,54.8130994606679
2702,55.0478596764006
2702.25,55.2826198921337
2702.5,55.3300714251006
2702.75,55.1902142753025
2703,55.050357125504
2703.25,54.9104999757056
2703.5,54.7706428259074
2703.75,54.6307856761089
2704,54.4909285263107
2704.25,54.3510713765123
2704.5,54.2112142267139
2704.75,54.0713570769157
2705,53.9314999271172
2705.25,53.7916427773188
2705.5,53.6517856275206
2705.75,53.5119284777221
2706,53.3720713279237
2706.25,53.2322141781255
2706.5,53.0923570283271
2706.75,52.9524998785286
2707,52.8126427287304
2707.25,52.672785578932
2707.5,52.6143724794714
2707.75,52.6443418687139
2708,52.6743112579564
2708.25,52.7042806471989
2708.5,52.7342500364414
2708.75,52.7642194256839
2709,52.7941888149264
2709.25,52.8241582041689
2709.5,52.8541275934114
2709.75,52.8840969826539
2710,52.9140663718964
2710.25,52.9440357611389
2710.5,52.9740051503815
2710.75,53.0039745396239
2711,53.0339439288664
2711.25,53.063913318109
2711.5,53.0938827073514
2711.75,53.123852096594
2712,53.1538214858365
2712.25,53.183790875079
2712.5,53.1954132452262
2712.75,53.185423448812
2713,53.1754336523978
2713.25,53.1654438559837
2713.5,53.1554540595695
2713.75,53.1454642631553
2714,53.1354744667412
2714.25,53.125484670327
2714.5,53.1154948739128
2714.75,53.1055050774987
2715,53.0955152810845
2715.25,53.0855254846703
2715.5,53.0755356882562
2715.75,53.065545891842
2716,53.0555560954278
2716.25,53.0455662990136
2716.5,53.0355765025995
2716.75,53.0255867061853
2717,53.0155969097711
2717.25,53.005607113357
2717.5,53.1008017103154
2717.75,53.3305670278414
2718,53.560332345367
2718.25,53.7900976628931
2718.5,54.0198629804191
2718.75,54.2496282979447
2719,54.4793936154707
2719.25,54.7091589329967
2719.5,54.9389242505223
2719.75,55.1686895680483
2720,55.3984548855743
2720.25,55.6282202030999
2720.5,55.857985520626
2720.75,56.087750838152
2721,56.3175161556776
2721.25,56.5472814732036
2721.5,56.7770467907296
2721.75,57.0068121082552
2722,57.2365774257812
2722.25,57.4663427433072
2722.5,57.562392497935
2722.75,57.4724843302074
2723,57.38257616248
