2156,27.4365355751487
2156.25,27.5014795981136
2156.5,27.5664236210785
2156.75,27.6313676440435
2157,27.6963116670084
2157.25,27.7612556899734
2157.5,27.8261997129383
2157.75,27.8911437359032
2158,27.9560877588682
2158.25,28.0210317818331
2158.5,28.085975804798
2158.75,28.150919827763
2159,28.2158638507279
2159.25,28.2808078736929
2159.5,28.3140775066639
2159.75,28.3340602829608
2160,28.3540430592577
2160.25,28.3740258355546
2160.5,28.3940086118516
2160.75,28.4139913881485
2161,28.4339741644454
2161.25,28.4539569407423
2161.5,28.4739397170392
2161.75,28.4939224933361
2162,28.513905269633
2162.25,28.5338880459299
2162.5,28.5538708222268
2162.75,28.5738535985237
2163,28.5938363748206
2163.25,28.6138191511175
2163.5,28.6338019274144
2163.75,28.6537847037113
2164,28.6737674800082
2164.25,28.6937502563051
2164.5,28.748065614107
2164.75,28.8180053311462
2165,28.8879450481854
2165.25,28.9578847652245
2165.5,29.0278244822637
2165.75,29.0977641993029
2166,29.167703916342
2166.25,29.2376436333812
2166.5,29.3075833504204
2166.75,29.3775230674595
2167,29.4474627844987
2167.25,29.5174025015379
2167.5,29.587342218577
2167.75,29.6572819356162
2168,29.7272216526554
2168.25,29.7971613696945
2168.5,29.8671010867337
2168.75,29.9370408037729
2169,30.006980520812
2169.25,30.0769202378512
2169.5,30.1301242567152
2169.75,30.1750855033832
2170,30.2200467500513
2170.25,30.2650079967193
2170.5,30.3099692433873
2170.75,30.3549304900553
2171,30.3998917367234
2171.25,30.4448529833914
2171.5,30.4898142300595
2171.75,30.5347754767275
2172,30.5797367233956
2172.25,30.6246979700636
2172.5,30.6696592167316
2172.75,30.7146204633996
2173,30.7595817100677
2173.25,30.8045429567357
2173.5,30.8495042034037
2173.75,30.8944654500718
2174,30.9394266967398
2174.25,30.9843879434078
2174.5,31.035871232315
2174.75,31.0908238671314
2175,31.1457765019479
2175.25,31.2007291367644
2175.5,31.2556817715809
2175.75,31.3106344063974
2176,31.3655870412139
2176.25,31.4205396760303
2176.5,31.4754923108469
2176.75,31.5304449456633
2177,31.5853975804798
2177.25,31.6403502152963
2177.5,31.6953028501128
2177.75,31.7502554849293
2178,31.8052081197457
2178.25,31.8601607545622
2178.5,31.9151133893787
2178.75,31.9700660241952
2179,32.0250186590117
2179.25,32.0799712938282
2179.5,32.0777756817716
2179.75,32.042805823252
2180,32.0078359647324
2180.25,31.9728661062128
2180.5,31.9378962476932
2180.75,31.9029263891737
2181,31.8679565306541
2181.25,31.8329866721345
2181.5,31.7980168136149
2181.75,31.7630469550953
2182,31.7280770965758
2182.25,31.6931072380562
2182.5,31.6581373795366
2182.75,31.623167521017
2183,31.5881976624974
2183.25,31.5532278039779
2183.5,31.5182579454583
2183.75,31.4832880869387
2184,31.4483182284191
2184.25,31.4133483698995
2184.5,31.3660233750256
2184.75,31.3110707402091
2185,31.2561181053926
2185.25,31.2011654705762
2185.5,31.1462128357597
2185.75,31.0912602009432
2186,31.0363075661267
2186.25,30.9813549313102
2186.5,30.9264022964937
2186.75,30.8714496616773
2187,30.8164970268608
2187.25,30.7615443920443
2187.5,30.7065917572278
2187.75,30.6516391224113
2188,30.5966864875948
2188.25,30.5417338527783
2188.5,30.4867812179618
2188.75,30.4318285831454
2189,30.3768759483289
2189.25,30.3219233135124
2189.5,30.269973344269
2189.75,30.2200164035267
2190,30.1700594627845
2190.25,30.1201025220422
2190.5,30.0701455813
2190.75,30.0201886405577
2191,29.9702316998154
2191.25,29.9202747590732
2191.5,29.8703178183309
2191.75,29.8203608775887
2192,29.7704039368464
2192.25,29.7204469961041
2192.5,29.6704900553619
2192.75,29.6205331146196
2193,29.5705761738774
2193.25,29.5206192331351
2193.5,29.4706622923929
2193.75,29.4207053516506
2194,29.3707484109083
2194.25,29.3207914701661
2194.5,29.2270863235596
2194.75,29.1021939717039
2195,28.9773016198482
2195.25,28.8524092679926
2195.5,28.7275169161369
2195.75,28.6026245642812
2196,28.4777322124257
2196.25,28.35283986057
2196.5,28.2279475087144
2196.75,28.1030551568587
2197,27.978162805003
2197.25,27.8532704531474
2197.5,27.7283781012917
2197.75,27.6034857494362
2198,27.4785933975805
2198.25,27.3537010457248
2198.5,27.2288086938692
2198.75,27.1039163420135
2199,26.9790239901578
2199.25,26.8541316383022
2199.5,26.8
2199.75,26.8
2200,26.8
2200.25,26.8
2200.5,26.8
2200.75,26.8
2201,26.8
2201.25,26.8
2201.5,26.8
2201.75,26.8
2202,26.8
2202.25,26.8
2202.5,26.8
2202.75,26.8
2203,26.8
2203.25,26.8
2203.5,26.8
2203.75,26.8
2204,26.8
2204.25,26.8
2204.5,26.7835341398401
2204.75,26.7535599753947
2205,26.7235858109494
2205.25,26.693611646504
2205.5,26.6636374820586
2205.75,26.6336633176133
2206,26.6036891531679
2206.25,26.5737149887226
2206.5,26.5437408242772
2206.75,26.5137666598319
2207,26.4837924953865
2207.25,26.4538183309412
2207.5,26.4238441664958
2207.75,26.3938700020504
2208,26.3638958376051
2208.25,26.3339216731597
2208.5,26.3039475087144
2208.75,26.273973344269
2209,26.2439991798237
2209.25,26.2140250153783
2209.5,26.2318982981341
2209.75,26.2918466270248
2210,26.3517949559155
2210.25,26.4117432848062
2210.5,26.4716916136969
2210.75,26.5316399425877
2211,26.5915882714784
2211.25,26.6515366003691
2211.5,26.7114849292598
2211.75,26.7714332581505
2212,26.8313815870412
2212.25,26.8913299159319
2212.5,26.9512782448226
2212.75,27.0112265737134
2213,27.0711749026041
2213.25,27.1311232314948
2213.5,27.1910715603855
2213.75,27.2510198892762
2214,27.3109682181669
2214.25,27.3709165470576
2214.5,27.4205765839656
2214.75,27.4605421365594
2215,27.5005076891532
2215.25,27.540473241747
2215.5,27.5804387943408
2215.75,27.6204043469346
2216,27.6603698995284
2216.25,27.7003354521222
2216.5,27.740301004716
2216.75,27.7802665573098
2217,27.8202321099036
2217.25,27.8601976624974
2217.5,27.9001632150912
2217.75,27.9401287676851
2218,27.9800943202789
2218.25,28.0200598728727
2218.5,28.0600254254665
2218.75,28.0999909780603
2219,28.1399565306541
2219.25,28.1799220832479
2219.5,28.1701685462375
2219.75,28.1102202173467
2220,28.050271888456
2220.25,27.9903235595653
2220.5,27.9303752306746
2220.75,27.8704269017838
2221,27.8104785728932
2221.25,27.7505302440024
2221.5,27.6905819151118
2221.75,27.630633586221
2222,27.5706852573303
2222.25,27.5107369284396
2222.5,27.4507885995489
2222.75,27.3908402706582
2223,27.3308919417675
2223.25,27.2709436128767
2223.5,27.2109952839861
2223.75,27.1510469550953
2224,27.0910986262046
2224.25,27.0311502973139
2224.5,26.9472036087759
2224.75,26.8372983391429
2225,26.7273930695099
2225.25,26.6174877998769
2225.5,26.507582530244
2225.75,26.397677260611
2226,26.287771990978
2226.25,26.1778667213451
2226.5,26.0679614517121
2226.75,25.9580561820792
2227,25.8481509124462
2227.25,25.7382456428132
2227.5,25.6283403731802
2227.75,25.5184351035472
2228,25.4085298339142
2228.25,25.2986245642813
2228.5,25.1887192946483
2228.75,25.0788140250154
2229,24.9689087553824
2229.25,24.8590034857494
2229.5,24.8046274348985
2229.75,24.814618823047
2230,24.8246102111954
2230.25,24.8346015993439
2230.5,24.8445929874923
2230.75,24.8545843756408
2231,24.8645757637892
2231.25,24.8745671519377
2231.5,24.8845585400861
2231.75,24.8945499282346
2232,24.904541316383
2232.25,24.9145327045315
2232.5,24.9245240926799
2232.75,24.9345154808284
2233,24.9445068689768
2233.25,24.9544982571253
2233.5,24.9644896452737
2233.75,24.9744810334222
2234,24.9844724215706
2234.25,24.9944638097191
2234.5,25.0423243797417
2234.75,25.1372425671519
2235,25.2321607545623
2235.25,25.3270789419726
2235.5,25.4219971293828
2235.75,25.5169153167931
2236,25.6118335042034
2236.25,25.7067516916137
2236.5,25.801669879024
2236.75,25.8965880664343
2237,25.9915062538446
2237.25,26.0864244412548
2237.5,26.1813426286652
2237.75,26.2762608160755
2238,26.3711790034857
2238.25,26.4660971908961
2238.5,26.5610153783064
2238.75,26.6559335657166
2239,26.750851753127
2239.25,26.8457699405372
2239.5,26.9064244412549
2239.75,26.9214115234776
2240,26.9363986057002
2240.25,26.9513856879229
2240.5,26.9663727701456
2240.75,26.9813598523683
2241,26.9963469345909
2241.25,27.0113340168136
2241.5,27.0263210990363
2241.75,27.041308181259
2242,27.0562952634816
2242.25,27.0712823457043
2242.5,27.086269427927
2242.75,27.1012565101497
2243,27.1162435923724
2243.25,27.131230674595
2243.5,27.1462177568177
2243.75,27.1612048390404
2244,27.1761919212631
2244.25,27.1911790034858
2244.5,27.1753356571663
2244.75,27.1153873282756
2245,27.0554389993848
2245.25,26.9954906704942
2245.5,26.9355423416034
2245.75,26.8755940127127
2246,26.815645683822
2246.25,26.7556973549313
2246.5,26.6957490260406
2246.75,26.6358006971499
2247,26.5758523682591
2247.25,26.5159040393685
2247.5,26.4559557104777
2247.75,26.396007381587
2248,26.3360590526963
2248.25,26.2761107238056
2248.5,26.2161623949149
2248.75,26.1562140660242
2249,26.0962657371335
2249.25,26.0363174082428
2249.5,25.982276809514
2249.75,25.937315562846
2250,25.892354316178
2250.25,25.8473930695099
2250.5,25.8024318228419
2250.75,25.7574705761739
2251,25.7125093295058
2251.25,25.6675480828378
2251.5,25.6225868361698
2251.75,25.5776255895018
2252,25.5326643428337
2252.25,25.4877030961657
2252.5,25.4427418494976
2252.75,25.3977806028296
2253,25.3528193561616
2253.25,25.3078581094935
2253.5,25.2628968628255
2253.75,25.2179356161575
2254,25.1729743694894
2254.25,25.1280131228214
2254.5,25.0962337502563
2254.75,25.0862423621079
2255,25.0762509739594
2255.25,25.066259585811
2255.5,25.0562681976625
2255.75,25.046276809514
2256,25.0362854213656
2256.25,25.0262940332171
2256.5,25.0163026450687
2256.75,25.0063112569202
2257,24.9963198687718
2257.25,24.9863284806233
2257.5,24.9763370924749
2257.75,24.9663457043264
2258,24.956354316178
2258.25,24.9463629280295
2258.5,24.9363715398811
2258.75,24.9263801517326
2259,24.9163887635842
2259.25,24.9063973754357
2259.5,24.948519171622
2259.75,25.083402911626
2260,25.2182866516301
2260.25,25.3531703916343
2260.5,25.4880541316383
2260.75,25.6229378716425
2261,25.7578216116465
2261.25,25.8927053516506
2261.5,26.0275890916548
2261.75,26.1624728316588
2262,26.2973565716629
2262.25,26.432240311667
2262.5,26.5671240516711
2262.75,26.7020077916753
2263,26.8368915316793
2263.25,26.9717752716834
2263.5,27.1066590116876
2263.75,27.2415427516916
2264,27.3764264916958
2264.25,27.5113102316998
2264.5,27.5674931310232
2264.75,27.4725749436128
2265,27.3776567562026
2265.25,27.2827385687923
2265.5,27.1878203813819
2265.75,27.0929021939717
2266,26.9979840065614
2266.25,26.9030658191511
2266.5,26.8081476317408
2266.75,26.7132294443305
2267,26.6183112569202
2267.25,26.5233930695099
2267.5,26.4284748820996
2267.75,26.3335566946894
2268,26.238638507279
2268.25,26.1437203198688
2268.5,26.0488021324585
2268.75,25.9538839450481
2269,25.8589657576379
2269.25,25.7640475702276
2269.5,25.7633660036907
2269.75,25.9581980725856
2270,26.1530301414805
2270.25,26.3478622103752
2270.5,26.5426942792701
2270.75,26.737526348165
2271,26.9323584170597
2271.25,27.1271904859545
2271.5,27.3220225548492
2271.75,27.5168546237441
2272,27.711686692639
2272.25,27.9065187615337
2272.5,28.1013508304286
2272.75,28.2961828993235
2273,28.4910149682182
2273.25,28.685847037113
2273.5,28.8806791060078
2273.75,29.0755111749026
2274,29.2703432437975
2274.25,29.4651753126922
2274.5,29.5692269838015
2274.75,29.469313102317
2275,29.3693992208325
2275.25,29.2694853393479
2275.5,29.1695714578635
2275.75,29.0696575763789
2276,28.9697436948944
2276.25,28.8698298134099
2276.5,28.7699159319253
2276.75,28.6700020504409
2277,28.5700881689563
2277.25,28.4701742874718
2277.5,28.3702604059873
2277.75,28.2703465245027
2278,28.1704326430182
2278.25,28.0705187615337
2278.5,27.9706048800492
2278.75,27.8706909985647
2279,27.7707771170802
2279.25,27.6708632355956
2279.5,27.6464810334222
2279.75,27.8063432437975
2280,27.9662054541727
2280.25,28.1260676645479
2280.5,28.2859298749232
2280.75,28.4457920852983
2281,28.6056542956736
2281.25,28.7655165060489
2281.5,28.925378716424
2281.75,29.0852409267993
2282,29.2451031371744
2282.25,29.4049653475497
2282.5,29.564827557925
2282.75,29.7246897683002
2283,29.8845519786754
2283.25,30.0444141890507
2283.5,30.2042763994259
2283.75,30.3641386098012
2284,30.5240008201763
2284.25,30.6838630305516
2284.5,30.7685724830838
2284.75,30.6536715193767
2285,30.5387705556694
2285.25,30.4238695919622
2285.5,30.3089686282551
2285.75,30.1940676645478
2286,30.0791667008407
2286.25,29.9642657371335
2286.5,29.8493647734262
2286.75,29.7344638097191
2287,29.6195628460119
2287.25,29.5046618823046
2287.5,29.3897609185975
2287.75,29.2748599548903
2288,29.1599589911831
2288.25,29.0450580274759
2288.5,28.9301570637687
2288.75,28.8152561000615
2289,28.7003551363543
2289.25,28.5854541726472
2289.5,28.5192044289522
2289.75,28.5941398400656
2290,28.669075251179
2290.25,28.7440106622924
2290.5,28.8189460734058
2290.75,28.8938814845192
2291,28.9688168956326
2291.25,29.0437523067459
2291.5,29.1186877178593
2291.75,29.1936231289728
2292,29.2685585400861
2292.25,29.3434939511995
2292.5,29.4184293623129
2292.75,29.4933647734263
2293,29.5683001845397
2293.25,29.643235595653
2293.5,29.7181710067665
2293.75,29.7931064178799
2294,29.8680418289932
2294.25,29.9429772401066
2294.5,29.977310641788
2294.75,29.8823924543777
2295,29.7874742669674
2295.25,29.6925560795571
2295.5,29.5976378921468
2295.75,29.5027197047365
2296,29.4078015173262
2296.25,29.3128833299159
2296.5,29.2179651425057
2296.75,29.1230469550953
2297,29.028128767685
2297.25,28.9332105802748
2297.5,28.8382923928644
2297.75,28.7433742054541
2298,28.6484560180439
2298.25,28.5535378306336
2298.5,28.4586196432233
2298.75,28.363701455813
2299,28.2687832684027
2299.25,28.1738650809924
2299.5,28.1055402911626
2299.75,28.1305187615337
2300,28.1554972319049
2300.25,28.180475702276
2300.5,28.2054541726471
2300.75,28.2304326430183
2301,28.2554111133894
2301.25,28.2803895837605
2301.5,28.3053680541316
2301.75,28.3303465245028
2302,28.3553249948739
2302.25,28.380303465245
2302.5,28.4052819356162
2302.75,28.4302604059873
2303,28.4552388763584
2303.25,28.4802173467295
2303.5,28.5051958171007
2303.75,28.5301742874718
2304,28.5551527578429
2304.25,28.5801312282141
2304.5,28.5938683616978
2304.75,28.5638941972524
2305,28.533920032807
2305.25,28.5039458683617
2305.5,28.4739717039163
2305.75,28.443997539471
2306,28.4140233750256
2306.25,28.3840492105803
2306.5,28.3540750461349
2306.75,28.3241008816896
2307,28.2941267172442
2307.25,28.2641525527989
2307.5,28.2341783883535
2307.75,28.2042042239081
2308,28.1742300594628
2308.25,28.1442558950174
2308.5,28.1142817305721
2308.75,28.0843075661267
2309,28.0543334016814
2309.25,28.024359237236
2309.5,28.0018716424031
2309.75,28.0118630305516
2310,28.0218544187
2310.25,28.0318458068485
2310.5,28.0418371949969
2310.75,28.0518285831454
2311,28.0618199712938
2311.25,28.0718113594423
2311.5,28.0818027475907
2311.75,28.0917941357392
2312,28.1017855238876
2312.25,28.1117769120361
2312.5,28.1217683001845
2312.75,28.131759688333
2313,28.1417510764814
2313.25,28.1517424646299
2313.5,28.1617338527784
2313.75,28.1717252409268
2314,28.1817166290753
2314.25,28.1917080172237
2314.5,28.2093467295469
2314.75,28.2642993643634
2315,28.3192519991798
2315.25,28.3742046339963
2315.5,28.4291572688128
2315.75,28.4841099036293
2316,28.5390625384458
2316.25,28.5940151732622
2316.5,28.6489678080787
2316.75,28.7039204428952
2317,28.7588730777117
2317.25,28.8138257125282
2317.5,28.8687783473447
2317.75,28.9237309821612
2318,28.9786836169777
2318.25,29.0336362517941
2318.5,29.0885888866106
2318.75,29.1435415214271
2319,29.1984941562436
2319.25,29.2534467910601
2319.5,29.3
2319.75,29.3
2320,29.3
2320.25,29.3
2320.5,29.3
2320.75,29.3
2321,29.3
2321.25,29.3
2321.5,29.3
2321.75,29.3
2322,29.3
2322.25,29.3
2322.5,29.3
2322.75,29.3
2323,29.3
2323.25,29.3
2323.5,29.3
2323.75,29.3
2324,29.3
2324.25,29.3
2324.5,29.2952577404142
2324.75,29.2602878818946
2325,29.225318023375
2325.25,29.1903481648554
2325.5,29.1553783063359
2325.75,29.1204084478163
2326,29.0854385892967
2326.25,29.0504687307771
2326.5,29.0154988722575
2326.75,28.9805290137379
2327,28.9455591552184
2327.25,28.9105892966988
2327.5,28.8756194381792
2327.75,28.8406495796596
2328,28.80567972114
2328.25,28.7707098626205
2328.5,28.7357400041009
2328.75,28.7007701455813
2329,28.6658002870617
2329.25,28.6308304285421
2329.5,28.5994086528604
2329.75,28.5944129587861
2330,28.5894172647119
2330.25,28.5844215706377
2330.5,28.5794258765635
2330.75,28.5744301824892
2331,28.569434488415
2331.25,28.5644387943408
2331.5,28.5594431002666
2331.75,28.5544474061923
2332,28.5494517121181
2332.25,28.5444560180439
2332.5,28.5394603239697
2332.75,28.5344646298954
2333,28.5294689358212
2333.25,28.524473241747
2333.5,28.5194775476728
2333.75,28.5144818535985
2334,28.5094861595243
2334.25,28.5044904654501
2334.5,28.4893901988927
2334.75,28.384480623334
2335,28.2795710477753
2335.25,28.1746614722165
2335.5,28.0697518966578
2335.75,27.964842321099
2336,27.8599327455403
2336.25,27.7550231699815
2336.5,27.6501135944228
2336.75,27.5452040188641
2337,27.4402944433053
2337.25,27.3353848677465
2337.5,27.2304752921878
2337.75,27.125565716629
2338,27.0206561410704
2338.25,26.9157465655116
2338.5,26.8108369899528
2338.75,26.7059274143941
2339,26.6010178388353
2339.25,26.4961082632765
2339.5,26.4
2339.75,26.4
2340,26.4
2340.25,26.4
2340.5,26.4
2340.75,26.4
2341,26.4
2341.25,26.4
2341.5,26.4
2341.75,26.4
2342,26.4
2342.25,26.4
2342.5,26.4
2342.75,26.4
2343,26.4
2343.25,26.4
2343.5,26.4
2343.75,26.4
2344,26.4
2344.25,26.4
2344.5,26.3953381176953
2344.75,26.3253984006561
2345,26.255458683617
2345.25,26.1855189665778
2345.5,26.1155792495386
2345.75,26.0456395324995
2346,25.9756998154603
2346.25,25.9057600984211
2346.5,25.835820381382
2346.75,25.7658806643428
2347,25.6959409473036
2347.25,25.6260012302645
2347.5,25.5560615132253
2347.75,25.4861217961861
2348,25.416182079147
2348.25,25.3462423621078
2348.5,25.2763026450687
2348.75,25.2063629280295
2349,25.1364232109903
2349.25,25.0664834939512
2349.5,25.0039499692434
2349.75,25.083881074431
2350,25.1638121796186
2350.25,25.2437432848063
2350.5,25.3236743899938
2350.75,25.4036054951815
2351,25.4835366003691
2351.25,25.5634677055567
2351.5,25.6433988107443
2351.75,25.723329915932
2352,25.8032610211195
2352.25,25.8831921263072
2352.5,25.9631232314948
2352.75,26.0430543366824
2353,26.12298544187
2353.25,26.2029165470576
2353.5,26.2828476522453
2353.75,26.3627787574328
2354,26.4427098626205
2354.25,26.5226409678081
2354.5,26.6027328275579
2354.75,26.6876596268198
2355,26.7725864260817
2355.25,26.8575132253434
2355.5,26.9424400246053
2355.75,27.0273668238671
2356,27.112293623129
2356.25,27.1972204223909
2356.5,27.2821472216526
2356.75,27.3670740209145
2357,27.4520008201764
2357.25,27.5369276194382
2357.5,27.6218544187001
2357.75,27.7067812179618
2358,27.7917080172237
2358.25,27.8766348164856
2358.5,27.9615616157474
2358.75,28.0464884150093
2359,28.1314152142711
2359.25,28.2163420135329
2359.5,28.3007463604675
2359.75,28.3507033012098
2360,28.400660241952
2360.25,28.4506171826943
2360.5,28.5005741234365
2360.75,28.5505310641788
2361,28.600488004921
2361.25,28.6504449456633
2361.5,28.7004018864056
2361.75,28.7503588271478
2362,28.8003157678901
2362.25,28.8502727086324
2362.5,28.9002296493746
2362.75,28.9501865901169
2363,29.0001435308591
2363.25,29.0501004716014
2363.5,29.1000574123437
2363.75,29.1500143530859
2364,29.1999712938282
2364.25,29.2499282345705
2364.5,29.2998851753127
2364.75,29.319936846422
2365,29.3399196227189
2365.25,29.3599023990158
2365.5,29.3798851753127
2365.75,29.3998679516096
2366,29.4198507279065
2366.25,29.4398335042034
2366.5,29.4598162805003
2366.75,29.4797990567972
2367,29.4997818330941
2367.25,29.519764609391
2367.5,29.5397473856879
2367.75,29.5597301619848
2368,29.5797129382817
2368.25,29.5996957145786
2368.5,29.6196784908755
2368.75,29.6396612671725
2369,29.6596440434693
2369.25,29.6796268197663
2369.5,29.6996095960632
2369.75,29.7538790239902
2370,29.8088316588067
2370.25,29.8637842936231
2370.5,29.9187369284396
2370.75,29.9736895632561
2371,30.0286421980726
2371.25,30.0835948328891
2371.5,30.1385474677056
2371.75,30.193500102522
2372,30.2484527373386
2372.25,30.303405372155
2372.5,30.3583580069715
2372.75,30.413310641788
2373,30.4682632766045
2373.25,30.523215911421
2373.5,30.5781685462374
2373.75,30.6331211810539
2374,30.6880738158704
2374.25,30.7430264506869
2374.5,30.7979790855034
2374.75,30.8914275169162
2375,30.9863457043264
2375.25,31.0812638917368
2375.5,31.176182079147
2375.75,31.2711002665573
2376,31.3660184539676
2376.25,31.4609366413779
2376.5,31.5558548287882
2376.75,31.6507730161985
2377,31.7456912036088
2377.25,31.8406093910191
2377.5,31.9355275784293
2377.75,32.0304457658397
2378,32.12536395325
2378.25,32.2202821406602
2378.5,32.3152003280706
2378.75,32.4101185154809
2379,32.5050367028911
2379.25,32.5999548903015
2379.5,32.6948730777117
2379.75,32.7378068484724
2380,32.7777724010663
2380.25,32.81773795366
2380.5,32.8577035062539
2380.75,32.8976690588476
2381,32.9376346114415
2381.25,32.9776001640353
2381.5,33.0175657166291
2381.75,33.0575312692229
2382,33.0974968218167
2382.25,33.1374623744105
2382.5,33.1774279270043
2382.75,33.2173934795981
2383,33.257359032192
2383.25,33.2973245847857
2383.5,33.3372901373795
2383.75,33.3772556899733
2384,33.4172212425672
2384.25,33.457186795161
2384.5,33.4971523477547
2384.75,33.4814410498257
2385,33.4614582735288
2385.25,33.4414754972319
2385.5,33.421492720935
2385.75,33.4015099446381
2386,33.3815271683412
2386.25,33.3615443920443
2386.5,33.3415616157474
2386.75,33.3215788394505
2387,33.3015960631536
2387.25,33.2816132868567
2387.5,33.2616305105598
2387.75,33.2416477342629
2388,33.2216649579659
2388.25,33.2016821816691
2388.5,33.1816994053722
2388.75,33.1617166290752
2389,33.1417338527783
2389.25,33.1217510764815
2389.5,33.1017683001845
2389.75,33.0408029526348
2390,32.9758589296699
2390.25,32.9109149067049
2390.5,32.84597088374
2390.75,32.7810268607751
2391,32.7160828378102
2391.25,32.6511388148452
2391.5,32.5861947918803
2391.75,32.5212507689154
2392,32.4563067459503
2392.25,32.3913627229854
2392.5,32.3264187000205
2392.75,32.2614746770555
2393,32.1965306540906
2393.25,32.1315866311257
2393.5,32.0666426081607
2393.75,32.0016985851958
2394,31.9367545622309
2394.25,31.871810539266
2394.5,31.806866516301
2394.75,31.90275251179
2395,32.0176534754972
2395.25,32.1325544392045
2395.5,32.2474554029116
2395.75,32.3623563666188
2396,32.4772573303261
2396.25,32.5921582940332
2396.5,32.7070592577404
2396.75,32.8219602214477
2397,32.9368611851548
2397.25,33.051762148862
2397.5,33.1666631125693
2397.75,33.2815640762765
2398,33.3964650399836
2398.25,33.5113660036907
2398.5,33.6262669673981
2398.75,33.7411679311052
2399,33.8560688948123
2399.25,33.9709698585197
2399.5,34.0858708222268
2399.75,33.9028378101293
2400,33.6780315767888
2400.25,33.4532253434488
2400.5,33.2284191101087
2400.75,33.0036128767683
2401,32.7788066434282
2401.25,32.5540004100882
2401.5,32.3291941767482
2401.75,32.1043879434077
2402,31.8795817100677
2402.25,31.6547754767276
2402.5,31.4299692433872
2402.75,31.2051630100471
2403,30.9803567767071
2403.25,30.7555505433666
2403.5,30.5307443100266
2403.75,30.3059380766866
2404,30.0811318433461
2404.25,29.8563256100061
2404.5,29.631519376666
2404.75,29.6515431617798
2405,29.7114914906705
2405.25,29.7714398195612
2405.5,29.8313881484519
2405.75,29.8913364773427
2406,29.9512848062333
2406.25,30.011233135124
2406.5,30.0711814640148
2406.75,30.1311297929055
2407,30.1910781217962
2407.25,30.251026450687
2407.5,30.3109747795776
2407.75,30.3709231084683
2408,30.4308714373591
2408.25,30.4908197662498
2408.5,30.5507680951404
2408.75,30.6107164240311
2409,30.6706647529219
2409.25,30.7306130818126
2409.5,30.7905614107033
2409.75,30.677934795981
2410,30.5330596678286
2410.25,30.3881845396761
2410.5,30.2433094115234
2410.75,30.0984342833709
2411,29.9535591552184
2411.25,29.8086840270657
2411.5,29.6638088989132
2411.75,29.5189337707607
2412,29.374058642608
2412.25,29.2291835144555
2412.5,29.0843083863031
2412.75,28.9394332581506
2413,28.7945581299979
2413.25,28.6496830018454
2413.5,28.5048078736929
2413.75,28.3599327455402
2414,28.2150576173877
2414.25,28.0701824892352
2414.5,27.9253073610825
2414.75,28.0030756612672
2415,28.1279680131228
2415.25,28.2528603649786
2415.5,28.3777527168342
2415.75,28.5026450686898
2416,28.6275374205453
2416.25,28.7524297724011
2416.5,28.8773221242567
2416.75,29.0022144761123
2417,29.1271068279681
2417.25,29.2519991798237
2417.5,29.3768915316793
2417.75,29.5017838835351
2418,29.6266762353906
2418.25,29.7515685872462
2418.5,29.876460939102
2418.75,30.0013532909576
2419,30.1262456428132
2419.25,30.2511379946688
2419.5,30.3760303465246
2419.75,30.4242214476112
2420,30.4541956120566
2420.25,30.484169776502
2420.5,30.5141439409473
2420.75,30.5441181053926
2421,30.574092269838
2421.25,30.6040664342834
2421.5,30.6340405987287
2421.75,30.6640147631741
2422,30.6939889276194
2422.25,30.7239630920648
2422.5,30.7539372565102
2422.75,30.7839114209555
2423,30.8138855854009
2423.25,30.8438597498462
2423.5,30.8738339142916
2423.75,30.9038080787369
2424,30.9337822431823
2424.25,30.9637564076277
2424.5,30.993730572073
2424.75,31.0316063153578
2425,31.0715718679516
2425.25,31.1115374205454
2425.5,31.1515029731392
2425.75,31.1914685257331
2426,31.2314340783269
2426.25,31.2713996309206
2426.5,31.3113651835144
2426.75,31.3513307361083
2427,31.3912962887021
2427.25,31.4312618412959
2427.5,31.4712273938897
2427.75,31.5111929464835
2428,31.5511584990773
2428.25,31.5911240516711
2428.5,31.6310896042649
2428.75,31.6710551568587
2429,31.7110207094526
2429.25,31.7509862620464
2429.5,31.7909518146401
2429.75,31.7806766454788
2430,31.7556981751076
2430.25,31.7307197047365
2430.5,31.7057412343654
2430.75,31.6807627639942
2431,31.6557842936231
2431.25,31.630805823252
2431.5,31.6058273528809
2431.75,31.5808488825097
2432,31.5558704121386
2432.25,31.5308919417675
2432.5,31.5059134713963
2432.75,31.4809350010252
2433,31.4559565306541
2433.25,31.430978060283
2433.5,31.4059995899118
2433.75,31.3810211195407
2434,31.3560426491696
2434.25,31.3310641787984
2434.5,31.3060857084273
2434.75,31.2924428952225
2435,31.282451507074
2435.25,31.2724601189256
2435.5,31.2624687307771
2435.75,31.2524773426287
2436,31.2424859544802
2436.25,31.2324945663318
2436.5,31.2225031781833
2436.75,31.2125117900349
2437,31.2025204018864
2437.25,31.192529013738
2437.5,31.1825376255895
2437.75,31.1725462374411
2438,31.1625548492926
2438.25,31.1525634611441
2438.5,31.1425720729957
2438.75,31.1325806848472
2439,31.1225892966988
2439.25,31.1125979085503
2439.5,31.1026065204019
2439.75,31.0667680951404
2440,31.0218068484724
2440.25,30.9768456018043
2440.5,30.9318843551363
2440.75,30.8869231084683
2441,30.8419618618003
2441.25,30.7970006151322
2441.5,30.7520393684642
2441.75,30.7070781217962
2442,30.6621168751281
2442.25,30.6171556284601
2442.5,30.5721943817921
2442.75,30.527233135124
2443,30.482271888456
2443.25,30.437310641788
2443.5,30.3923493951199
2443.75,30.3473881484519
2444,30.3024269017839
2444.25,30.2574656551158
2444.5,30.2125044084478
2444.75,30.1567242157064
2445,30.0967758868157
2445.25,30.0368275579249
2445.5,29.9768792290342
2445.75,29.9169309001436
2446,29.8569825712528
2446.25,29.7970342423621
2446.5,29.7370859134714
2446.75,29.6771375845806
2447,29.61718925569
2447.25,29.5572409267993
2447.5,29.4972925979085
2447.75,29.4373442690178
2448,29.3773959401271
2448.25,29.3174476112365
2448.5,29.2574992823457
2448.75,29.197550953455
2449,29.1376026245643
2449.25,29.0776542956735
2449.5,29.0177059667829
2449.75,28.9577576378922
2450,28.8978093090014
2450.25,28.8378609801107
2450.5,28.77791265122
2450.75,28.7179643223292
2451,28.6580159934386
2451.25,28.5980676645479
2451.5,28.5381193356571
2451.75,28.4781710067664
2452,28.4182226778757
2452.25,28.3582743489851
2452.5,28.2983260200943
2452.75,28.2383776912036
2453,28.1784293623129
2453.25,28.1184810334221
2453.5,28.0585327045315
2453.75,27.9985843756408
2454,27.93863604675
2454.25,27.8786877178593
2454.5,27.8187393889686
2454.75,27.8103022349805
2455,27.8252893172032
2455.25,27.8402763994259
2455.5,27.8552634816485
2455.75,27.8702505638712
2456,27.8852376460939
2456.25,27.9002247283166
2456.5,27.9152118105393
2456.75,27.9301988927619
2457,27.9451859749846
2457.25,27.9601730572073
2457.5,27.97516013943
2457.75,27.9901472216527
2458,28.0051343038753
2458.25,28.020121386098
2458.5,28.0351084683207
2458.75,28.0500955505434
2459,28.0650826327661
2459.25,28.0800697149887
2459.5,28.0950567972114
2459.75,28.1669591962273
2460,28.2668730777117
2460.25,28.3667869591962
2460.5,28.4667008406808
2460.75,28.5666147221653
2461,28.6665286036498
2461.25,28.7664424851344
2461.5,28.8663563666189
2461.75,28.9662702481033
2462,29.066184129588
2462.25,29.1660980110724
2462.5,29.2660118925569
2462.75,29.3659257740414
2463,29.465839655526
2463.25,29.5657535370105
2463.5,29.6656674184949
2463.75,29.7655812999796
2464,29.865495181464
2464.25,29.9654090629485
2464.5,30.0653229444331
2464.75,30.0673815870412
2465,30.017424646299
2465.25,29.9674677055566
2465.5,29.9175107648144
2465.75,29.8675538240722
2466,29.81759688333
2466.25,29.7676399425876
2466.5,29.7176830018454
2466.75,29.6677260611032
2467,29.6177691203608
2467.25,29.5678121796186
2467.5,29.5178552388764
2467.75,29.4678982981341
2468,29.4179413573918
2468.25,29.3679844166496
2468.5,29.3180274759073
2468.75,29.268070535165
2469,29.2181135944228
2469.25,29.1681566536805
2469.5,29.1181997129383
2469.75,29.0301340988313
2470,28.9202288291984
2470.25,28.8103235595652
2470.5,28.7004182899323
2470.75,28.5905130202994
2471,28.4806077506663
2471.25,28.3707024810334
2471.5,28.2607972114005
2471.75,28.1508919417674
2472,28.0409866721345
2472.25,27.9310814025016
2472.5,27.8211761328685
2472.75,27.7112708632355
2473,27.6013655936026
2473.25,27.4914603239697
2473.5,27.3815550543366
2473.75,27.2716497847037
2474,27.1617445150708
2474.25,27.0518392454377
2474.5,26.9419339758048
2474.75,26.8845519786754
2475,26.8595735083043
2475.25,26.8345950379331
2475.5,26.809616567562
2475.75,26.7846380971909
2476,26.7596596268198
2476.25,26.7346811564486
2476.5,26.7097026860775
2476.75,26.6847242157064
2477,26.6597457453352
2477.25,26.6347672749641
2477.5,26.609788804593
2477.75,26.5848103342219
2478,26.5598318638507
2478.25,26.5348533934796
2478.5,26.5098749231085
2478.75,26.4848964527373
2479,26.4599179823662
2479.25,26.4349395119951
2479.5,26.409961041624
2479.75,26.4330383432439
2480,26.4879909780603
2480.25,26.5429436128768
2480.5,26.5978962476932
2480.75,26.6528488825098
2481,26.7078015173262
2481.25,26.7627541521427
2481.5,26.8177067869592
2481.75,26.8726594217757
2482,26.9276120565921
2482.25,26.9825646914087
2482.5,27.0375173262252
2482.75,27.0924699610416
2483,27.1474225958582
2483.25,27.2023752306746
2483.5,27.2573278654911
2483.75,27.3122805003076
2484,27.3672331351241
2484.25,27.4221857699405
2484.5,27.477138404757
2484.75,27.5437605085094
2485,27.6186959196227
2485.25,27.6936313307361
2485.5,27.7685667418496
2485.75,27.8435021529629
2486,27.9184375640763
2486.25,27.9933729751897
2486.5,28.0683083863031
2486.75,28.1432437974164
2487,28.2181792085299
2487.25,28.2931146196433
2487.5,28.3680500307566
2487.75,28.44298544187
2488,28.5179208529834
2488.25,28.5928562640968
2488.5,28.6677916752101
2488.75,28.7427270863236
2489,28.817662497437
2489.25,28.8925979085503
2489.5,28.9675333196638
2489.75,28.9745187615337
2490,28.9295575148657
2490.25,28.8845962681976
2490.5,28.8396350215296
2490.75,28.7946737748616
2491,28.7497125281935
2491.25,28.7047512815255
2491.5,28.6597900348575
2491.75,28.6148287881895
2492,28.5698675415214
2492.25,28.5249062948534
2492.5,28.4799450481854
2492.75,28.4349838015173
2493,28.3900225548493
2493.25,28.3450613081813
2493.5,28.3001000615132
2493.75,28.2551388148452
2494,28.2101775681772
2494.25,28.1652163215091
2494.5,28.1202550748411
2494.75,28.0505876563461
2495,27.9606651630101
2495.25,27.8707426696739
2495.5,27.7808201763379
2495.75,27.6908976830019
2496,27.6009751896657
2496.25,27.5110526963297
2496.5,27.4211302029937
2496.75,27.3312077096575
2497,27.2412852163215
2497.25,27.1513627229855
2497.5,27.0614402296493
2497.75,26.9715177363133
2498,26.8815952429773
2498.25,26.7916727496412
2498.5,26.7017502563051
2498.75,26.611827762969
2499,26.521905269633
2499.25,26.4319827762968
2499.5,26.3420602829608
2499.75,26.305318023375
2500,26.3153094115235
2500.25,26.3253007996719
2500.5,26.3352921878204
2500.75,26.3452835759688
2501,26.3552749641173
2501.25,26.3652663522657
2501.5,26.3752577404142
2501.75,26.3852491285626
2502,26.3952405167111
2502.25,26.4052319048595
2502.5,26.415223293008
2502.75,26.4252146811565
2503,26.4352060693049
2503.25,26.4451974574534
2503.5,26.4551888456018
2503.75,26.4651802337503
2504,26.4751716218987
2504.25,26.4851630100472
2504.5,26.4951543981956
2504.75,26.5231560385483
2505,26.5681172852163
2505.25,26.6130785318843
2505.5,26.6580397785524
2505.75,26.7030010252204
2506,26.7479622718885
2506.25,26.7929235185565
2506.5,26.8378847652246
2506.75,26.8828460118926
2507,26.9278072585606
2507.25,26.9727685052287
2507.5,27.0177297518967
2507.75,27.0626909985647
2508,27.1076522452328
2508.25,27.1526134919008
2508.5,27.1975747385688
2508.75,27.2425359852369
2509,27.2874972319049
2509.25,27.3324584785729
2509.5,27.3774197252409
2509.75,27.467142915727
2510,27.602026655731
2510.25,27.736910395735
2510.5,27.8717941357393
2510.75,28.0066778757433
2511,28.1415616157473
2511.25,28.2764453557516
2511.5,28.4113290957556
2511.75,28.5462128357597
2512,28.6810965757639
2512.25,28.8159803157679
2512.5,28.950864055772
2512.75,29.085747795776
2513,29.2206315357803
2513.25,29.3555152757843
2513.5,29.4903990157883
2513.75,29.6252827557926
2514,29.7601664957966
2514.25,29.8950502358006
2514.5,30.0299339758049
2514.75,30.0831954070125
2515,30.0482255484929
2515.25,30.0132556899733
2515.5,29.9782858314538
2515.75,29.9433159729342
2516,29.9083461144146
2516.25,29.873376255895
2516.5,29.8384063973754
2516.75,29.8034365388559
2517,29.7684666803363
2517.25,29.7334968218167
2517.5,29.6985269632971
2517.75,29.6635571047775
2518,29.6285872462579
2518.25,29.5936173877384
2518.5,29.5586475292187
2518.75,29.5236776706992
2519,29.4887078121796
2519.25,29.45373795366
2519.5,29.4187680951404
2519.75,29.4138872257535
2520,29.4438613901989
2520.25,29.4738355546443
2520.5,29.5038097190896
2520.75,29.5337838835349
2521,29.5637580479803
2521.25,29.5937322124257
2521.5,29.623706376871
2521.75,29.6536805413164
2522,29.6836547057617
2522.25,29.7136288702071
2522.5,29.7436030346525
2522.75,29.7735771990978
2523,29.8035513635432
2523.25,29.8335255279885
2523.5,29.8634996924339
2523.75,29.8934738568792
2524,29.9234480213246
2524.25,29.95342218577
2524.5,29.9833963502153
2524.75,29.9910863235596
2525,29.9711035472626
2525.25,29.9511207709658
2525.5,29.9311379946689
2525.75,29.9111552183719
2526,29.891172442075
2526.25,29.8711896657781
2526.5,29.8512068894812
2526.75,29.8312241131843
2527,29.8112413368874
2527.25,29.7912585605905
2527.5,29.7712757842936
2527.75,29.7512930079967
2528,29.7313102316998
2528.25,29.7113274554029
2528.5,29.691344679106
2528.75,29.6713619028091
2529,29.6513791265122
2529.25,29.6313963502153
2529.5,29.6114135739184
2529.75,29.6149961041624
2530,29.649965962682
2530.25,29.6849358212016
2530.5,29.7199056797212
2530.75,29.7548755382407
2531,29.7898453967603
2531.25,29.8248152552799
2531.5,29.8597851137995
2531.75,29.8947549723191
2532,29.9297248308386
2532.25,29.9646946893582
2532.5,29.9996645478778
2532.75,30.0346344063974
2533,30.069604264917
2533.25,30.1045741234366
2533.5,30.1395439819561
2533.75,30.1745138404757
2534,30.2094836989953
2534.25,30.2444535575149
2534.5,30.2794234160344
2534.75,30.2876629075251
2535,30.2576887430798
2535.25,30.2277145786344
2535.5,30.197740414189
2535.75,30.1677662497437
2536,30.1377920852984
2536.25,30.107817920853
2536.5,30.0778437564076
2536.75,30.0478695919623
2537,30.0178954275169
2537.25,29.9879212630715
2537.5,29.9579470986262
2537.75,29.9279729341809
2538,29.8979987697355
2538.25,29.8680246052901
2538.5,29.8380504408448
2538.75,29.8080762763994
2539,29.7781021119541
2539.25,29.7481279475087
2539.5,29.7181537830633
2539.75,29.6921197457453
2540,29.6721369694484
2540.25,29.6521541931515
2540.5,29.6321714168546
2540.75,29.6121886405577
2541,29.5922058642608
2541.25,29.5722230879639
2541.5,29.552240311667
2541.75,29.5322575353701
2542,29.5122747590732
2542.25,29.4922919827763
2542.5,29.4723092064794
2542.75,29.4523264301825
2543,29.4323436538856
2543.25,29.4123608775887
2543.5,29.3923781012918
2543.75,29.3723953249949
2544,29.352412548698
2544.25,29.332429772401
2544.5,29.3124469961042
2544.75,29.269856879229
2545,29.1899257740415
2545.25,29.1099946688538
2545.5,29.0300635636662
2545.75,28.9501324584786
2546,28.8702013532909
2546.25,28.7902702481033
2546.5,28.7103391429158
2546.75,28.630408037728
2547,28.5504769325405
2547.25,28.4705458273529
2547.5,28.3906147221652
2547.75,28.3106836169776
2548,28.2307525117901
2548.25,28.1508214066023
2548.5,28.0708903014148
2548.75,27.9909591962272
2549,27.9110280910396
2549.25,27.8310969858519
2549.5,27.7511658806643
2549.75,27.7071913061308
2550,27.7271740824277
2550.25,27.7471568587246
2550.5,27.7671396350215
2550.75,27.7871224113185
2551,27.8071051876153
2551.25,27.8270879639122
2551.5,27.8470707402092
2551.75,27.8670535165061
2552,27.887036292803
2552.25,27.9070190690998
2552.5,27.9270018453968
2552.75,27.9469846216937
2553,27.9669673979906
2553.25,27.9869501742875
2553.5,28.0069329505844
2553.75,28.0269157268813
2554,28.0468985031782
2554.25,28.0668812794751
2554.5,28.086864055772
2554.75,28.1068468320689
2555,28.1268296083658
2555.25,28.1468123846627
2555.5,28.1667951609596
2555.75,28.1867779372565
2556,28.2067607135534
2556.25,28.2267434898503
2556.5,28.2467262661472
2556.75,28.2667090424441
2557,28.286691818741
2557.25,28.306674595038
2557.5,28.3266573713348
2557.75,28.3466401476317
2558,28.3666229239287
2558.25,28.3866057002256
2558.5,28.4065884765224
2558.75,28.4265712528194
2559,28.4465540291163
2559.25,28.4665368054132
2559.5,28.4865195817101
2559.75,28.4951232314948
2560,28.4801361492721
2560.25,28.4651490670494
2560.5,28.4501619848267
2560.75,28.4351749026041
2561,28.4201878203814
2561.25,28.4052007381587
2561.5,28.390213655936
2561.75,28.3752265737134
2562,28.3602394914907
2562.25,28.345252409268
2562.5,28.3302653270453
2562.75,28.3152782448226
2563,28.3002911626
2563.25,28.2853040803773
2563.5,28.2703169981546
2563.75,28.2553299159319
2564,28.2403428337092
2564.25,28.2253557514866
2564.5,28.2103686692639
2564.75,28.1953815870412
2565,28.1803945048185
2565.25,28.1654074225958
2565.5,28.1504203403732
2565.75,28.1354332581505
2566,28.1204461759278
2566.25,28.1054590937051
2566.5,28.0904720114825
2566.75,28.0754849292598
2567,28.0604978470371
2567.25,28.0455107648144
2567.5,28.0305236825918
2567.75,28.0155366003691
2568,28.0005495181464
2568.25,27.9855624359237
2568.5,27.970575353701
2568.75,27.9555882714784
2569,27.9406011892557
2569.25,27.925614107033
2569.5,27.9106270248103
2569.75,27.8898265327045
2570,27.8548566741849
2570.25,27.8198868156653
2570.5,27.7849169571458
2570.75,27.7499470986262
2571,27.7149772401066
2571.25,27.680007381587
2571.5,27.6450375230675
2571.75,27.6100676645478
2572,27.5750978060283
2572.25,27.5401279475087
2572.5,27.5051580889891
2572.75,27.4701882304695
2573,27.43521837195
2573.25,27.4002485134304
2573.5,27.3652786549108
2573.75,27.3303087963912
2574,27.2953389378717
2574.25,27.260369079352
2574.5,27.2253992208325
2574.75,27.213672339553
2575,27.2636292802953
2575.25,27.3135862210375
2575.5,27.3635431617798
2575.75,27.4135001025221
2576,27.4634570432643
2576.25,27.5134139840065
2576.5,27.5633709247489
2576.75,27.6133278654911
2577,27.6632848062333
2577.25,27.7132417469756
2577.5,27.7631986877179
2577.75,27.8131556284601
2578,27.8631125692023
2578.25,27.9130695099447
2578.5,27.9630264506869
2578.75,28.0129833914291
2579,28.0629403321715
2579.25,28.1128972729137
2579.5,28.1628542136559
2579.75,28.1897510764814
2580,28.1497855238876
2580.25,28.1098199712938
2580.5,28.0698544187
2580.75,28.0298888661062
2581,27.9899233135124
2581.25,27.9499577609186
2581.5,27.9099922083248
2581.75,27.870026655731
2582,27.8300611031372
2582.25,27.7900955505433
2582.5,27.7501299979496
2582.75,27.7101644453558
2583,27.6701988927619
2583.25,27.6302333401681
2583.5,27.5902677875743
2583.75,27.5503022349805
2584,27.5103366823867
2584.25,27.4703711297929
2584.5,27.4304055771991
2584.75,27.4095599753947
2585,27.4495255279885
2585.25,27.4894910805823
2585.5,27.5294566331762
2585.75,27.5694221857699
2586,27.6093877383637
2586.25,27.6493532909576
2586.5,27.6893188435514
2586.75,27.7292843961452
2587,27.769249948739
2587.25,27.8092155013328
2587.5,27.8491810539266
2587.75,27.8891466065204
2588,27.9291121591142
2588.25,27.969077711708
2588.5,28.0090432643018
2588.75,28.0490088168957
2589,28.0889743694894
2589.25,28.1289399220832
2589.5,28.1689054746771
2589.75,28.1944556079557
2590,28.1694771375846
2590.25,28.1444986672134
2590.5,28.1195201968423
2590.75,28.0945417264712
2591,28.0695632561
2591.25,28.0445847857289
2591.5,28.0196063153578
2591.75,27.9946278449867
2592,27.9696493746155
2592.25,27.9446709042444
2592.5,27.9196924338733
2592.75,27.8947139635021
2593,27.869735493131
2593.25,27.8447570227599
2593.5,27.8197785523887
2593.75,27.7948000820176
2594,27.7698216116465
2594.25,27.7448431412754
2594.5,27.7198646709042
2594.75,27.7061365593603
2595,27.7361107238056
2595.25,27.766084888251
2595.5,27.7960590526963
2595.75,27.8260332171417
2596,27.8560073815871
2596.25,27.8859815460324
2596.5,27.9159557104777
2596.75,27.9459298749231
2597,27.9759040393685
2597.25,28.0058782038138
2597.5,28.0358523682592
2597.75,28.0658265327045
2598,28.0958006971499
2598.25,28.1257748615953
2598.5,28.1557490260406
2598.75,28.185723190486
2599,28.2156973549313
2599.25,28.2456715193767
2599.5,28.275645683822
2599.75,28.2934435103547
2600,28.2584736518351
2600.25,28.2235037933156
2600.5,28.188533934796
2600.75,28.1535640762764
2601,28.1185942177568
2601.25,28.0836243592372
2601.5,28.0486545007176
2601.75,28.0136846421981
2602,27.9787147836785
2602.25,27.9437449251589
2602.5,27.9087750666393
2602.75,27.8738052081197
2603,27.8388353496002
2603.25,27.8038654910806
2603.5,27.768895632561
2603.75,27.7339257740414
2604,27.6989559155218
2604.25,27.6639860570023
2604.5,27.6290161984827
2604.75,27.6093557514866
2605,27.6643083863031
2605.25,27.7192610211195
2605.5,27.7742136559361
2605.75,27.8291662907525
2606,27.884118925569
2606.25,27.9390715603854
2606.5,27.994024195202
2606.75,28.0489768300185
2607,28.1039294648349
2607.25,28.1588820996515
2607.5,28.2138347344679
2607.75,28.2687873692844
2608,28.3237400041009
2608.25,28.3786926389174
2608.5,28.4336452737338
2608.75,28.4885979085504
2609,28.5435505433668
2609.25,28.5985031781833
2609.5,28.6534558129998
2609.75,28.6938847652245
2610,28.6539192126307
2610.25,28.6139536600369
2610.5,28.5739881074431
2610.75,28.5340225548493
2611,28.4940570022555
2611.25,28.4540914496616
2611.5,28.4141258970679
2611.75,28.3741603444741
2612,28.3341947918802
2612.25,28.2942292392864
2612.5,28.2542636866926
2612.75,28.2142981340988
2613,28.174332581505
2613.25,28.1343670289112
2613.5,28.0944014763174
2613.75,28.0544359237236
2614,28.0144703711298
2614.25,27.974504818536
2614.5,27.9345392659421
2614.75,27.9135657166291
2615,28.0134795981136
2615.25,28.1133934795982
2615.5,28.2133073610827
2615.75,28.3132212425671
2616,28.4131351240518
2616.25,28.5130490055362
2616.5,28.6129628870207
2616.75,28.7128767685052
2617,28.8127906499898
2617.25,28.9127045314743
2617.5,29.0126184129587
2617.75,29.1125322944434
2618,29.2124461759278
2618.25,29.3123600574123
2618.5,29.4122739388969
2618.75,29.5121878203814
2619,29.6121017018659
2619.25,29.7120155833505
2619.5,29.811929464835
2619.75,29.8917096575764
2620,29.8217699405371
2620.25,29.751830223498
2620.5,29.6818905064589
2620.75,29.6119507894198
2621,29.5420110723805
2621.25,29.4720713553414
2621.5,29.4021316383023
2621.75,29.332191921263
2622,29.2622522042239
2622.25,29.1923124871848
2622.5,29.1223727701455
2622.75,29.0524330531064
2623,28.9824933360673
2623.25,28.912553619028
2623.5,28.8426139019889
2623.75,28.7726741849498
2624,28.7027344679106
2624.25,28.6327947508714
2624.5,28.5628550338323
2624.75,28.4959516095961
2625,28.4559860570022
2625.25,28.4160205044084
2625.5,28.3760549518147
2625.75,28.3360893992208
2626,28.296123846627
2626.25,28.2561582940332
2626.5,28.2161927414394
2626.75,28.1762271888456
2627,28.1362616362518
2627.25,28.0962960836579
2627.5,28.0563305310642
2627.75,28.0163649784704
2628,27.9763994258766
2628.25,27.9364338732827
2628.5,27.8964683206889
2628.75,27.8565027680952
2629,27.8165372155013
2629.25,27.7765716629075
2629.5,27.7366061103137
2629.75,27.7016797211401
2630,27.721662497437
2630.25,27.7416452737338
2630.5,27.7616280500308
2630.75,27.7816108263277
2631,27.8015936026246
2631.25,27.8215763789215
2631.5,27.8415591552184
2631.75,27.8615419315153
2632,27.8815247078122
2632.25,27.9015074841091
2632.5,27.921490260406
2632.75,27.9414730367029
2633,27.9614558129998
2633.25,27.9814385892967
2633.5,28.0014213655936
2633.75,28.0214041418905
2634,28.0413869181874
2634.25,28.0613696944843
2634.5,28.0813524707812
2634.75,28.0939913881484
2635,28.0040688948124
2635.25,27.9141464014764
2635.5,27.8242239081402
2635.75,27.7343014148042
2636,27.6443789214682
2636.25,27.554456428132
2636.5,27.464533934796
2636.75,27.3746114414599
2637,27.2846889481238
2637.25,27.1947664547878
2637.5,27.1048439614517
2637.75,27.0149214681156
2638,26.9249989747795
2638.25,26.8350764814435
2638.5,26.7451539881075
2638.75,26.6552314947713
2639,26.5653090014353
2639.25,26.4753865080993
2639.5,26.3854640147631
2639.75,26.3022292392865
2640,26.3471904859545
2640.25,26.3921517326226
2640.5,26.4371129792906
2640.75,26.4820742259586
2641,26.5270354726267
2641.25,26.5719967192947
2641.5,26.6169579659627
2641.75,26.6619192126308
2642,26.7068804592988
2642.25,26.7518417059668
2642.5,26.7968029526348
2642.75,26.8417641993029
2643,26.8867254459709
2643.25,26.9316866926389
2643.5,26.976647939307
2643.75,27.021609185975
2644,27.066570432643
2644.25,27.1115316793111
2644.5,27.1564929259791
2644.75,27.2021004716014
2645,27.2670444945664
2645.25,27.3319885175313
2645.5,27.3969325404962
2645.75,27.4618765634611
2646,27.5268205864261
2646.25,27.591764609391
2646.5,27.6567086323559
2646.75,27.7216526553209
2647,27.7865966782858
2647.25,27.8515407012507
2647.5,27.9164847242158
2647.75,27.9814287471807
2648,28.0463727701456
2648.25,28.1113167931106
2648.5,28.1762608160755
2648.75,28.2412048390404
2649,28.3061488620053
2649.25,28.3710928849703
2649.5,28.4360369079352
2649.75,28.5003772811154
2650,28.5253557514866
2650.25,28.5503342218577
2650.5,28.5753126922288
2650.75,28.6002911626
2651,28.6252696329711
2651.25,28.6502481033422
2651.5,28.6752265737134
2651.75,28.7002050440845
2652,28.7251835144556
2652.25,28.7501619848268
2652.5,28.7751404551979
2652.75,28.800118925569
2653,28.8250973959401
2653.25,28.8500758663113
2653.5,28.8750543366824
2653.75,28.9000328070535
2654,28.9250112774247
2654.25,28.9499897477958
2654.5,28.9749682181669
2654.75,28.9999466885381
2655,28.9052843961451
2655.25,28.8103662087349
2655.5,28.7154480213245
2655.75,28.6205298339143
2656,28.525611646504
2656.25,28.4306934590938
2656.5,28.3357752716834
2656.75,28.2408570842731
2657,28.1459388968629
2657.25,28.0510207094525
2657.5,27.9561025220422
2657.75,27.861184334632
2658,27.7662661472216
2658.25,27.6713479598113
2658.5,27.5764297724011
2658.75,27.4815115849907
2659,27.3865933975804
2659.25,27.2916752101702
2659.5,27.1967570227598
2659.75,27.1018388353496
2660,27.1195956530654
2660.25,27.1395784293623
2660.5,27.1595612056592
2660.75,27.1795439819561
2661,27.199526758253
2661.25,27.2195095345499
2661.5,27.2394923108468
2661.75,27.2594750871437
2662,27.2794578634407
2662.25,27.2994406397376
2662.5,27.3194234160344
2662.75,27.3394061923314
2663,27.3593889686283
2663.25,27.3793717449252
2663.5,27.399354521222
2663.75,27.419337297519
2664,27.4393200738159
2664.25,27.4593028501128
2664.5,27.4792856264097
2664.75,27.4992684027066
2665,27.4566848472422
2665.25,27.4117236005741
2665.5,27.3667623539061
2665.75,27.3218011072381
2666,27.27683986057
2666.25,27.231878613902
2666.5,27.186917367234
2666.75,27.1419561205659
2667,27.0969948738979
2667.25,27.0520336272299
2667.5,27.0070723805619
2667.75,26.9621111338938
2668,26.9171498872258
2668.25,26.8721886405577
2668.5,26.8272273938897
2668.75,26.7822661472216
2669,26.7373049005536
2669.25,26.6923436538855
2669.5,26.6473824072175
2669.75,26.6024211605495
2670,26.6756268197663
2670.25,26.7555579249539
2670.5,26.8354890301415
2670.75,26.915420135329
2671,26.9953512405168
2671.25,27.0752823457043
2671.5,27.1552134508919
2671.75,27.2351445560796
2672,27.3150756612672
2672.25,27.3950067664548
2672.5,27.4749378716425
2672.75,27.55486897683
2673,27.6348000820176
2673.25,27.7147311872053
2673.5,27.7946622923929
2673.75,27.8745933975805
2674,27.9545245027682
2674.25,28.0344556079557
2674.5,28.1143867131433
2674.75,28.1943178183309
2675,28.1860783268403
2675.25,28.1710912446176
2675.5,28.1561041623949
2675.75,28.1411170801722
2676,28.1261299979496
2676.25,28.1111429157269
2676.5,28.0961558335042
2676.75,28.0811687512815
2677,28.0661816690588
2677.25,28.0511945868362
2677.5,28.0362075046135
2677.75,28.0212204223908
2678,28.0062333401681
2678.25,27.9912462579454
2678.5,27.9762591757228
2678.75,27.9612720935001
2679,27.9462850112774
2679.25,27.9312979290547
2679.5,27.9163108468321
2679.75,27.9013237646094
2680,27.8544556079557
2680.25,27.8044986672135
2680.5,27.7545417264711
2680.75,27.7045847857289
2681,27.6546278449867
2681.25,27.6046709042444
2681.5,27.5547139635021
2681.75,27.5047570227599
2682,27.4548000820177
2682.25,27.4048431412753
2682.5,27.3548862005331
2682.75,27.3049292597909
2683,27.2549723190486
2683.25,27.2050153783063
2683.5,27.1550584375641
2683.75,27.1051014968218
2684,27.0551445560795
2684.25,27.0051876153373
2684.5,26.955230674595
2684.75,26.9052737338528
2685,26.9089366413779
2685.25,26.9189280295263
2685.5,26.9289194176748
2685.75,26.9389108058233
2686,26.9489021939717
2686.25,26.9588935821202
2686.5,26.9688849702686
2686.75,26.9788763584171
2687,26.9888677465655
2687.25,26.998859134714
2687.5,27.0088505228624
2687.75,27.0188419110109
2688,27.0288332991593
2688.25,27.0388246873078
2688.5,27.0488160754562
2688.75,27.0588074636047
2689,27.0687988517531
2689.25,27.0787902399016
2689.5,27.08878162805
2689.75,27.0987730161985
2690,27.1788796391224
2690.25,27.2688021324586
2690.5,27.3587246257946
2690.75,27.4486471191306
2691,27.5385696124668
2691.25,27.6284921058028
2691.5,27.7184145991388
2691.75,27.808337092475
2692,27.898259585811
2692.25,27.988182079147
2692.5,28.078104572483
2692.75,28.1680270658192
2693,28.2579495591552
2693.25,28.3478720524912
2693.5,28.4377945458274
2693.75,28.5277170391634
2694,28.6176395324994
2694.25,28.7075620258356
2694.5,28.7974845191716
2694.75,28.8874070125077
2695,29.0031060077918
2695.25,29.1230026655731
2695.5,29.2428993233545
2695.75,29.3627959811359
2696,29.4826926389174
2696.25,29.6025892966988
2696.5,29.7224859544801
2696.75,29.8423826122617
2697,29.9622792700431
2697.25,30.0821759278244
2697.5,30.202072585606
2697.75,30.3219692433874
2698,30.4418659011687
2698.25,30.5617625589503
2698.5,30.6816592167316
2698.75,30.801555874513
2699,30.9214525322946
2699.25,31.0413491900759
2699.5,31.1612458478573
2699.75,31.2811425056386
2700,31.3210498257125
2700.25,31.3460282960837
2700.5,31.3710067664548
2700.75,31.3959852368259
2701,31.4209637071971
2701.25,31.4459421775682
2701.5,31.4709206479393
2701.75,31.4958991183104
2702,31.5208775886816
2702.25,31.5458560590527
2702.5,31.5708345294238
2702.75,31.595812999795
2703,31.6207914701661
2703.25,31.6457699405372
2703.5,31.6707484109083
2703.75,31.6957268812795
2704,31.7207053516506
2704.25,31.7456838220217
2704.5,31.7706622923929
2704.75,31.795640762764
2705,31.7298946073406
2705.25,31.6449678080788
2705.5,31.5600410088168
2705.75,31.475114209555
2706,31.3901874102932
2706.25,31.3052606110313
2706.5,31.2203338117695
2706.75,31.1354070125077
2707,31.0504802132459
2707.25,30.965553413984
2707.5,30.8806266147222
2707.75,30.7956998154604
2708,30.7107730161984
2708.25,30.6258462169366
2708.5,30.5409194176748
2708.75,30.4559926184129
2709,30.3710658191511
2709.25,30.2861390198893
2709.5,30.2012122206274
2709.75,30.1162854213656
2710,30.0152077096576
2710.25,29.9102981340989
2710.5,29.80538855854
2710.75,29.7004789829813
2711,29.5955694074227
2711.25,29.4906598318638
2711.5,29.3857502563051
2711.75,29.2808406807464
2712,29.1759311051875
2712.25,29.0710215296288
2712.5,28.9661119540702
2712.75,28.8612023785113
2713,28.7562928029526
2713.25,28.6513832273939
2713.5,28.546473651835
2713.75,28.4415640762763
2714,28.3366545007177
2714.25,28.231744925159
2714.5,28.1268353496001
2714.75,28.0219257740414
2715,28
2715.25,28
2715.5,28
2715.75,28
2716,28
2716.25,28
2716.5,28
2716.75,28
2717,28
2717.25,28
2717.5,28
2717.75,28
2718,28
2718.25,28
2718.5,28
2718.75,28
2719,28
2719.25,28
2719.5,28
2719.75,28
2720,27.9884035267582
2720.25,27.9734164445356
2720.5,27.9584293623129
2720.75,27.9434422800902
2721,27.9284551978675
2721.25,27.9134681156449
2721.5,27.8984810334222
2721.75,27.8834939511995
2722,27.8685068689768
2722.25,27.8535197867542
2722.5,27.8385327045315
2722.75,27.8235456223088
2723,27.8085585400861
2723.25,27.7935714578634
2723.5,27.7785843756408
2723.75,27.7635972934181
2724,27.7486102111954
2724.25,27.7336231289727
2724.5,27.7186360467501
2724.75,27.7036489645274
2725,27.7529112159115
2725.25,27.8228509329506
2725.5,27.8927906499897
2725.75,27.962730367029
2726,28.0326700840681
2726.25,28.1026098011072
2726.5,28.1725495181465
2726.75,28.2424892351856
2727,28.3124289522247
2727.25,28.382368669264
2727.5,28.4523083863031
2727.75,28.5222481033422
2728,28.5921878203813
2728.25,28.6621275374206
2728.5,28.7320672544597
2728.75,28.8020069714988
2729,28.8719466885381
2729.25,28.9418864055772
2729.5,29.0118261226163
2729.75,29.0817658396556
2730,29.1553988107443
2730.25,29.2303342218577
2730.5,29.3052696329712
2730.75,29.3802050440845
2731,29.4551404551979
2731.25,29.5300758663113
2731.5,29.6050112774247
2731.75,29.679946688538
2732,29.7548820996514
2732.25,29.8298175107649
2732.5,29.9047529218782
2732.75,29.9796883329916
2733,30.054623744105
2733.25,30.1295591552184
2733.5,30.2044945663317
2733.75,30.2794299774452
2734,30.3543653885586
2734.25,30.4293007996719
2734.5,30.5042362107854
2734.75,30.5791716218987
2735,30.5891785933976
2735.25,30.5741915111749
2735.5,30.5592044289522
2735.75,30.5442173467296
2736,30.5292302645069
2736.25,30.5142431822842
2736.5,30.4992561000615
2736.75,30.4842690178388
2737,30.4692819356161
2737.25,30.4542948533935
2737.5,30.4393077711708
2737.75,30.4243206889481
2738,30.4093336067254
2738.25,30.3943465245028
2738.5,30.3793594422801
2738.75,30.3643723600574
2739,30.3493852778347
2739.25,30.3343981956121
2739.5,30.3194111133894
2739.75,30.3044240311667
2740,30.3
2740.25,30.3
2740.5,30.3
2740.75,30.3
2741,30.3
2741.25,30.3
2741.5,30.3
2741.75,30.3
2742,30.3
2742.25,30.3
2742.5,30.3
2742.75,30.3
2743,30.3
2743.25,30.3
2743.5,30.3
2743.75,30.3
2744,30.3
2744.25,30.3
2744.5,30.3
2744.75,30.3
2745,30.3
2745.25,30.3
2745.5,30.3
2745.75,30.3
2746,30.3
2746.25,30.3
2746.5,30.3
2746.75,30.3
2747,30.3
2747.25,30.3
2747.5,30.3
2747.75,30.3
2748,30.3
2748.25,30.3
2748.5,30.3
2748.75,30.3
2749,30.3
2749.25,30.3
2749.5,30.3
2749.75,30.3
2750,30.2899536600369
2750.25,30.2749665778142
2750.5,30.2599794955916
2750.75,30.2449924133689
2751,30.2300053311462
2751.25,30.2150182489235
2751.5,30.2000311667008
2751.75,30.1850440844782
2752,30.1700570022555
2752.25,30.1550699200328
2752.5,30.1400828378101
2752.75,30.1250957555875
2753,30.1101086733648
2753.25,30.0951215911421
2753.5,30.0801345089194
2753.75,30.0651474266968
2754,30.0501603444741
2754.25,30.0351732622514
2754.5,30.0201861800287
2754.75,30.005199097806
2755,30.02936395325
2755.25,30.074325199918
2755.5,30.1192864465861
2755.75,30.1642476932541
2756,30.2092089399221
2756.25,30.2541701865902
2756.5,30.2991314332582
2756.75,30.3440926799262
2757,30.3890539265942
2757.25,30.4340151732623
2757.5,30.4789764199303
2757.75,30.5239376665983
2758,30.5688989132664
2758.25,30.6138601599344
2758.5,30.6588214066024
2758.75,30.7037826532705
2759,30.7487438999385
2759.25,30.7937051466065
2759.5,30.8386663932746
2759.75,30.8836276399426
2760,30.8904703711298
2760.25,30.8754832889071
2760.5,30.8604962066844
2760.75,30.8455091244618
2761,30.8305220422391
2761.25,30.8155349600164
2761.5,30.8005478777937
2761.75,30.7855607955711
2762,30.7705737133484
2762.25,30.7555866311257
2762.5,30.740599548903
2762.75,30.7256124666803
2763,30.7106253844577
2763.25,30.695638302235
2763.5,30.6806512200123
2763.75,30.6656641377896
2764,30.6506770555669
2764.25,30.6356899733443
2764.5,30.6207028911216
2764.75,30.6057158088989
2765,30.6154521222063
2765.25,30.6404305925774
2765.5,30.6654090629485
2765.75,30.6903875333197
2766,30.7153660036908
2766.25,30.7403444740619
2766.5,30.765322944433
2766.75,30.7903014148042
2767,30.8152798851753
2767.25,30.8402583555464
2767.5,30.8652368259176
2767.75,30.8902152962887
2768,30.9151937666598
2768.25,30.940172237031
2768.5,30.9651507074021
2768.75,30.9901291777732
2769,31.0151076481443
2769.25,31.0400861185155
2769.5,31.0650645888866
2769.75,31.0900430592577
2770,31.0669526348164
2770.25,31.012
2770.5,30.9570473651835
2770.75,30.902094730367
2771,30.8471420955505
2771.25,30.7921894607341
2771.5,30.7372368259176
2771.75,30.6822841911011
2772,30.6273315562846
2772.25,30.5723789214681
2772.5,30.5174262866516
2772.75,30.4624736518351
2773,30.4075210170187
2773.25,30.3525683822021
2773.5,30.2976157473857
2773.75,30.2426631125692
2774,30.1877104777527
2774.25,30.1327578429362
2774.5,30.0778052081198
2774.75,30.0228525733033
2775,30.0204273118721
2775.25,30.0553971703916
2775.5,30.0903670289112
2775.75,30.1253368874308
2776,30.1603067459504
2776.25,30.1952766044699
2776.5,30.2302464629896
2776.75,30.2652163215091
2777,30.3001861800287
2777.25,30.3351560385483
2777.5,30.3701258970679
2777.75,30.4050957555874
2778,30.4400656141071
2778.25,30.4750354726266
2778.5,30.5100053311462
2778.75,30.5449751896658
2779,30.5799450481854
2779.25,30.6149149067049
2779.5,30.6498847652245
2779.75,30.6848546237441
2780,30.7226565511585
2780.25,30.7626221037523
2780.5,30.8025876563461
2780.75,30.8425532089399
2781,30.8825187615337
2781.25,30.9224843141276
2781.5,30.9624498667214
2781.75,31.0024154193151
2782,31.0423809719089
2782.25,31.0823465245028
2782.5,31.1223120770966
2782.75,31.1622776296904
2783,31.2022431822842
2783.25,31.242208734878
2783.5,31.2821742874718
2783.75,31.3221398400656
2784,31.3621053926594
2784.25,31.4020709452532
2784.5,31.4420364978471
2784.75,31.4820020504409
2785,31.524713553414
2785.25,31.5696748000821
2785.5,31.6146360467501
2785.75,31.6595972934181
2786,31.7045585400861
2786.25,31.7495197867542
2786.5,31.7944810334222
2786.75,31.8394422800902
2787,31.8844035267583
2787.25,31.9293647734263
2787.5,31.9743260200943
2787.75,32.0192872667624
2788,32.0642485134304
2788.25,32.1092097600984
2788.5,32.1541710067665
2788.75,32.1991322534345
2789,32.2440935001025
2789.25,32.2890547467705
2789.5,32.3340159934386
2789.75,32.3789772401066
2790,32.4239384867746
2790.25,32.4688997334427
2790.5,32.5138609801107
2790.75,32.5588222267787
2791,32.6037834734468
2791.25,32.6487447201148
2791.5,32.6937059667828
2791.75,32.7386672134509
2792,32.7836284601189
2792.25,32.828589706787
2792.5,32.873550953455
2792.75,32.918512200123
2793,32.9634734467911
2793.25,33.0084346934591
2793.5,33.0533959401272
2793.75,33.0983571867952
2794,33.1433184334632
2794.25,33.1882796801313
2794.5,33.2332409267993
2794.75,33.2782021734673
2795,33.2691154398195
2795.25,33.2091671109288
2795.5,33.1492187820381
2795.75,33.0892704531474
2796,33.0293221242567
2796.25,32.969373795366
2796.5,32.9094254664753
2796.75,32.8494771375845
2797,32.7895288086939
2797.25,32.7295804798032
2797.5,32.6696321509124
2797.75,32.6096838220217
2798,32.549735493131
2798.25,32.4897871642403
2798.5,32.4298388353496
2798.75,32.3698905064589
2799,32.3099421775681
2799.25,32.2499938486774
2799.5,32.1900455197868
2799.75,32.130097190896
2800,32.0726364568382
2800.25,32.0176838220217
2800.5,31.9627311872053
2800.75,31.9077785523887
2801,31.8528259175723
2801.25,31.7978732827558
2801.5,31.7429206479393
2801.75,31.6879680131228
2802,31.6330153783064
2802.25,31.5780627434898
2802.5,31.5231101086733
2802.75,31.4681574738569
2803,31.4132048390403
2803.25,31.3582522042239
2803.5,31.3032995694074
2803.75,31.248346934591
2804,31.1933942997744
2804.25,31.138441664958
2804.5,31.0834890301415
2804.75,31.028536395325
2805,30.9423645683822
2805.25,30.8224679106008
2805.5,30.7025712528193
2805.75,30.5826745950379
2806,30.4627779372565
2806.25,30.342881279475
2806.5,30.2229846216936
2806.75,30.1030879639123
2807,29.9831913061309
2807.25,29.8632946483493
2807.5,29.743397990568
2807.75,29.6235013327866
2808,29.503604675005
2808.25,29.3837080172237
2808.5,29.2638113594423
2808.75,29.1439147016608
2809,29.0240180438794
2809.25,28.9041213860981
2809.5,28.7842247283165
2809.75,28.6643280705351
2810,28.5861078531884
2810.25,28.556133688743
2810.5,28.5261595242977
2810.75,28.4961853598524
2811,28.466211195407
2811.25,28.4362370309616
2811.5,28.4062628665163
2811.75,28.376288702071
2812,28.3463145376256
2812.25,28.3163403731802
2812.5,28.2863662087349
2812.75,28.2563920442895
2813,28.2264178798442
2813.25,28.1964437153988
2813.5,28.1664695509534
2813.75,28.1364953865081
2814,28.1065212220627
2814.25,28.0765470576174
2814.5,28.046572893172
2814.75,28.0165987287267
2815,27.9754783678491
2815.25,27.9205257330326
2815.5,27.8655730982161
2815.75,27.8106204633997
2816,27.7556678285831
2816.25,27.7007151937666
2816.5,27.6457625589502
2816.75,27.5908099241336
2817,27.5358572893172
2817.25,27.4809046545007
2817.5,27.4259520196842
2817.75,27.3709993848677
2818,27.3160467500513
2818.25,27.2610941152348
2818.5,27.2061414804183
2818.75,27.1511888456018
2819,27.0962362107853
2819.25,27.0412835759688
2819.5,26.9863309411523
2819.75,26.9313783063359
2820,26.9150018453968
2820.25,26.9499717039164
2820.5,26.9849415624359
2820.75,27.0199114209555
2821,27.0548812794751
2821.25,27.0898511379947
2821.5,27.1248209965142
2821.75,27.1597908550339
2822,27.1947607135534
2822.25,27.229730572073
2822.5,27.2647004305926
2822.75,27.2996702891122
2823,27.3346401476317
2823.25,27.3696100061514
2823.5,27.4045798646709
2823.75,27.4395497231905
2824,27.4745195817101
2824.25,27.5094894402297
2824.5,27.5444592987492
2824.75,27.5794291572689
2825,27.6102850112774
2825.25,27.6352634816486
2825.5,27.6602419520197
2825.75,27.6852204223908
2826,27.7101988927619
2826.25,27.7351773631331
2826.5,27.7601558335042
2826.75,27.7851343038753
2827,27.8101127742465
2827.25,27.8350912446176
2827.5,27.8600697149887
2827.75,27.8850481853599
2828,27.910026655731
2828.25,27.9350051261021
2828.5,27.9599835964732
2828.75,27.9849620668444
2829,28.0099405372155
2829.25,28.0349190075866
2829.5,28.0598974779577
2829.75,28.0848759483289
2830,28.11182530244
2830.25,28.1417994668854
2830.5,28.1717736313308
2830.75,28.2017477957761
2831,28.2317219602214
2831.25,28.2616961246668
2831.5,28.2916702891122
2831.75,28.3216444535575
2832,28.3516186180029
2832.25,28.3815927824482
2832.5,28.4115669468936
2832.75,28.4415411113389
2833,28.4715152757843
2833.25,28.5014894402297
2833.5,28.531463604675
2833.75,28.5614377691204
2834,28.5914119335657
2834.25,28.6213860980111
2834.5,28.6513602624565
2834.75,28.6813344269018
2835,28.703769530449
2835.25,28.7137609185975
2835.5,28.723752306746
2835.75,28.7337436948944
2836,28.7437350830428
2836.25,28.7537264711913
2836.5,28.7637178593398
2836.75,28.7737092474882
2837,28.7837006356367
2837.25,28.7936920237851
2837.5,28.8036834119336
2837.75,28.813674800082
2838,28.8236661882305
2838.25,28.8336575763789
2838.5,28.8436489645274
2838.75,28.8536403526758
2839,28.8636317408243
2839.25,28.8736231289727
2839.5,28.8836145171212
2839.75,28.8936059052696
2840,28.9
2840.25,28.9
2840.5,28.9
2840.75,28.9
2841,28.9
2841.25,28.9
2841.5,28.9
2841.75,28.9
2842,28.9
2842.25,28.9
2842.5,28.9
2842.75,28.9
2843,28.9
2843.25,28.9
2843.5,28.9
2843.75,28.9
2844,28.9
2844.25,28.9
2844.5,28.9
2844.75,28.9
2845,28.9308255074842
2845.25,29.0207480008202
2845.5,29.1106704941562
2845.75,29.2005929874924
2846,29.2905154808284
2846.25,29.3804379741644
2846.5,29.4703604675004
2846.75,29.5602829608366
2847,29.6502054541726
2847.25,29.7401279475087
2847.5,29.8300504408448
2847.75,29.9199729341809
2848,30.0098954275169
2848.25,30.0998179208531
2848.5,30.1897404141891
2848.75,30.2796629075251
2849,30.3695854008613
2849.25,30.4595078941973
2849.5,30.5494303875333
2849.75,30.6393528808695
2850,30.7065056387123
2850.25,30.7264884150092
2850.5,30.7464711913061
2850.75,30.766453967603
2851,30.7864367438999
2851.25,30.8064195201968
2851.5,30.8264022964938
2851.75,30.8463850727907
2852,30.8663678490875
2852.25,30.8863506253845
2852.5,30.9063334016814
2852.75,30.9263161779783
2853,30.9462989542752
2853.25,30.9662817305721
2853.5,30.986264506869
2853.75,31.0062472831659
2854,31.0262300594628
2854.25,31.0462128357597
2854.5,31.0661956120566
2854.75,31.0861783883535
2855,31.084597088374
2855.25,31.0346401476318
2855.5,30.9846832068894
2855.75,30.9347262661472
2856,30.884769325405
2856.25,30.8348123846627
2856.5,30.7848554439204
2856.75,30.7348985031782
2857,30.6849415624359
2857.25,30.6349846216936
2857.5,30.5850276809514
2857.75,30.5350707402092
2858,30.4851137994669
2858.25,30.4351568587246
2858.5,30.3851999179824
2858.75,30.3352429772401
2859,30.2852860364978
2859.25,30.2353290957556
2859.5,30.1853721550133
2859.75,30.1354152142711
2860,30.0767332376461
2860.25,29.9968021324584
2860.5,29.9168710272708
2860.75,29.8369399220833
2861,29.7570088168957
2861.25,29.677077711708
2861.5,29.5971466065204
2861.75,29.5172155013328
2862,29.4372843961451
2862.25,29.3573532909575
2862.5,29.27742218577
2862.75,29.1974910805823
2863,29.1175599753947
2863.25,29.0376288702071
2863.5,28.9576977650194
2863.75,28.8777666598318
2864,28.7978355546443
2864.25,28.7179044494565
2864.5,28.637973344269
2864.75,28.5580422390814
2865,28.484951404552
2865.25,28.4299987697355
2865.5,28.375046134919
2865.75,28.3200935001025
2866,28.265140865286
2866.25,28.2101882304695
2866.5,28.1552355956531
2866.75,28.1002829608365
2867,28.0453303260201
2867.25,27.9903776912036
2867.5,27.9354250563871
2867.75,27.8804724215706
2868,27.8255197867542
2868.25,27.7705671519377
2868.5,27.7156145171211
2868.75,27.6606618823047
2869,27.6057092474882
2869.25,27.5507566126717
2869.5,27.4958039778552
2869.75,27.4408513430388
2870,27.4128193561616
2870.25,27.4627762969038
2870.5,27.5127332376461
2870.75,27.5626901783884
2871,27.6126471191306
2871.25,27.6626040598729
2871.5,27.7125610006152
2871.75,27.7625179413574
2872,27.8124748820997
2872.25,27.8624318228419
2872.5,27.9123887635842
2872.75,27.9623457043264
2873,28.0123026450687
2873.25,28.062259585811
2873.5,28.1122165265532
2873.75,28.1621734672955
2874,28.2121304080378
2874.25,28.26208734878
2874.5,28.3120442895222
2874.75,28.3620012302646
2875,28.3748878408857
2875.25,28.2699782653271
2875.5,28.1650686897684
2875.75,28.0601591142095
2876,27.9552495386508
2876.25,27.8503399630921
2876.5,27.7454303875332
2876.75,27.6405208119746
2877,27.5356112364159
2877.25,27.430701660857
2877.5,27.3257920852983
2877.75,27.2208825097396
2878,27.1159729341807
2878.25,27.0110633586221
2878.5,26.9061537830634
2878.75,26.8012442075047
2879,26.6963346319458
2879.25,26.5914250563871
2879.5,26.4865154808284
2879.75,26.3816059052696
2880,26.3022193971704
2880.25,26.3122107853188
2880.5,26.3222021734673
2880.75,26.3321935616158
2881,26.3421849497642
2881.25,26.3521763379127
2881.5,26.3621677260611
2881.75,26.3721591142096
2882,26.382150502358
2882.25,26.3921418905065
2882.5,26.4021332786549
2882.75,26.4121246668034
2883,26.4221160549518
2883.25,26.4321074431003
2883.5,26.4420988312487
2883.75,26.4520902193972
2884,26.4620816075456
2884.25,26.4720729956941
2884.5,26.4820643838425
2884.75,26.492055771991
2885,26.5092122206274
2885.25,26.5541734672955
2885.5,26.5991347139635
2885.75,26.6440959606315
2886,26.6890572072995
2886.25,26.7340184539676
2886.5,26.7789797006356
2886.75,26.8239409473036
2887,26.8689021939717
2887.25,26.9138634406397
2887.5,26.9588246873078
2887.75,27.0037859339758
2888,27.0487471806439
2888.25,27.0937084273119
2888.5,27.1386696739799
2888.75,27.183630920648
2889,27.228592167316
2889.25,27.2735534139841
2889.5,27.3185146606521
2889.75,27.3634759073201
2890,27.4271863850727
2890.25,27.5720615132254
2890.5,27.7169366413779
2890.75,27.8618117695304
2891,28.0066868976831
2891.25,28.1515620258356
2891.5,28.2964371539881
2891.75,28.4413122821408
2892,28.5861874102933
2892.25,28.7310625384457
2892.5,28.8759376665985
2892.75,29.0208127947509
2893,29.1656879229034
2893.25,29.3105630510559
2893.5,29.4554381792086
2893.75,29.6003133073611
2894,29.7451884355136
2894.25,29.8900635636663
2894.5,30.0349386918188
2894.75,30.1798138199712
2895,30.296594627845
2895.25,30.2766118515481
2895.5,30.2566290752512
2895.75,30.2366462989543
2896,30.2166635226574
2896.25,30.1966807463605
2896.5,30.1766979700635
2896.75,30.1567151937667
2897,30.1367324174698
2897.25,30.1167496411729
2897.5,30.0967668648759
2897.75,30.076784088579
2898,30.0568013122822
2898.25,30.0368185359852
2898.5,30.0168357596883
2898.75,29.9968529833914
2899,29.9768702070945
2899.25,29.9568874307976
2899.5,29.9369046545007
2899.75,29.9169218782038
2900,29.8969391019069
2900.25,29.87695632561
2900.5,29.8569735493131
2900.75,29.8369907730162
2901,29.8170079967193
2901.25,29.7970252204224
2901.5,29.7770424441255
2901.75,29.7570596678286
2902,29.7370768915317
2902.25,29.7170941152348
2902.5,29.6971113389379
2902.75,29.677128562641
2903,29.657145786344
2903.25,29.6371630100472
2903.5,29.6171802337503
2903.75,29.5971974574533
2904,29.5772146811564
2904.25,29.5572319048595
2904.5,29.5372491285627
2904.75,29.5172663522657
2905,29.5013582120156
2905.25,29.511349600164
2905.5,29.5213409883125
2905.75,29.5313323764609
2906,29.5413237646094
2906.25,29.5513151527579
2906.5,29.5613065409063
2906.75,29.5712979290547
2907,29.5812893172032
2907.25,29.5912807053517
2907.5,29.6012720935001
2907.75,29.6112634816485
2908,29.621254869797
2908.25,29.6312462579455
2908.5,29.6412376460939
2908.75,29.6512290342424
2909,29.6612204223908
2909.25,29.6712118105393
2909.5,29.6812031986877
2909.75,29.6911945868362
2910,29.7
2910.25,29.7
2910.5,29.7
2910.75,29.7
2911,29.7
2911.25,29.7
2911.5,29.7
2911.75,29.7
2912,29.7
2912.25,29.7
2912.5,29.7
2912.75,29.7
2913,29.7
2913.25,29.7
2913.5,29.7
2913.75,29.7
2914,29.7
2914.25,29.7
2914.5,29.7
2914.75,29.7
2915,29.7005068689768
2915.25,29.7055025630511
2915.5,29.7104982571253
2915.75,29.7154939511995
2916,29.7204896452737
2916.25,29.725485339348
2916.5,29.7304810334222
2916.75,29.7354767274964
2917,29.7404724215706
2917.25,29.7454681156449
2917.5,29.7504638097191
2917.75,29.7554595037933
2918,29.7604551978675
2918.25,29.7654508919418
2918.5,29.770446586016
2918.75,29.7754422800902
2919,29.7804379741644
2919.25,29.7854336682387
2919.5,29.7904293623129
2919.75,29.7954250563871
2920,29.7987377486159
2920.25,29.7837506663933
2920.5,29.7687635841706
2920.75,29.7537765019479
2921,29.7387894197252
2921.25,29.7238023375026
2921.5,29.7088152552799
2921.75,29.6938281730572
2922,29.6788410908345
2922.25,29.6638540086119
2922.5,29.6488669263892
2922.75,29.6338798441665
2923,29.6188927619438
2923.25,29.6039056797211
2923.5,29.5889185974985
2923.75,29.5739315152758
2924,29.5589444330531
2924.25,29.5439573508304
2924.5,29.5289702686078
2924.75,29.5139831863851
2925,29.4959844166496
2925.25,29.4360360877589
2925.5,29.3760877588682
2925.75,29.3161394299774
2926,29.2561911010867
2926.25,29.1962427721961
2926.5,29.1362944433053
2926.75,29.0763461144146
2927,29.0163977855239
2927.25,28.9564494566331
2927.5,28.8965011277425
2927.75,28.8365527988518
2928,28.776604469961
2928.25,28.7166561410703
2928.5,28.6567078121796
2928.75,28.5967594832888
2929,28.5368111543982
2929.25,28.4768628255075
2929.5,28.4169144966168
2929.75,28.356966167726
2930,28.303230674595
2930.25,28.3681746975599
2930.5,28.433118720525
2930.75,28.4980627434899
2931,28.5630067664548
2931.25,28.6279507894198
2931.5,28.6928948123847
2931.75,28.7578388353496
2932,28.8227828583146
2932.25,28.8877268812795
2932.5,28.9526709042444
2932.75,29.0176149272093
2933,29.0825589501743
2933.25,29.1475029731392
2933.5,29.2124469961041
2933.75,29.2773910190691
2934,29.342335042034
2934.25,29.4072790649989
2934.5,29.472223087964
2934.75,29.5371671109289
2935,29.5983760508509
2935.25,29.5484191101086
2935.5,29.4984621693664
2935.75,29.4485052286242
2936,29.3985482878818
2936.25,29.3485913471396
2936.5,29.2986344063974
2936.75,29.2486774656551
2937,29.1987205249128
2937.25,29.1487635841706
2937.5,29.0988066434284
2937.75,29.048849702686
2938,28.9988927619438
2938.25,28.9489358212016
2938.5,28.8989788804593
2938.75,28.849021939717
2939,28.7990649989748
2939.25,28.7491080582325
2939.5,28.6991511174902
2939.75,28.649194176748
2940,28.6027459503792
2940.25,28.7825909370516
2940.5,28.9624359237236
2940.75,29.1422809103956
2941,29.322125897068
2941.25,29.50197088374
2941.5,29.6818158704121
2941.75,29.8616608570844
2942,30.0415058437565
2942.25,30.2213508304285
2942.5,30.4011958171009
2942.75,30.5810408037729
2943,30.7608857904449
2943.25,30.9407307771173
2943.5,31.1205757637893
2943.75,31.3004207504613
2944,31.4802657371334
2944.25,31.6601107238057
2944.5,31.8399557104778
2944.75,32.0198006971498
2945,32.1996456838222
2945.25,32.0903112569202
2945.5,31.9804059872873
2945.75,31.8705007176542
2946,31.7605954480213
2946.25,31.6506901783884
2946.5,31.5407849087553
2946.75,31.4308796391224
2947,31.3209743694895
2947.25,31.2110690998565
2947.5,31.1011638302234
2947.75,30.9912585605905
2948,30.8813532909576
2948.25,30.7714480213245
2948.5,30.6615427516916
2948.75,30.5516374820587
2949,30.4417322124256
2949.25,30.3318269427927
2949.5,30.2219216731598
2949.75,30.1120164035266
2950,30.0021111338937
2950.25,30.0244986672134
2950.5,30.0494771375846
2950.75,30.0744556079557
2951,30.0994340783268
2951.25,30.124412548698
2951.5,30.1493910190691
2951.75,30.1743694894402
2952,30.1993479598113
2952.25,30.2243264301825
2952.5,30.2493049005536
2952.75,30.2742833709247
2953,30.2992618412959
2953.25,30.324240311667
2953.5,30.3492187820381
2953.75,30.3741972524093
2954,30.3991757227804
2954.25,30.4241541931515
2954.5,30.4491326635226
2954.75,30.4741111338938
2955,30.4990896042649
2955.25,30.4566774656551
2955.5,30.411716218987
2955.75,30.366754972319
2956,30.321793725651
2956.25,30.2768324789829
2956.5,30.2318712323149
2956.75,30.1869099856469
2957,30.1419487389788
2957.25,30.0969874923108
2957.5,30.0520262456428
2957.75,30.0070649989748
2958,29.9621037523067
2958.25,29.9171425056387
2958.5,29.8721812589707
2958.75,29.8272200123026
2959,29.7822587656346
2959.25,29.7372975189666
2959.5,29.6923362722985
2959.75,29.6473750256305
2960,29.6024137789625
2960.25,29.6850949354112
2960.5,29.7750174287472
2960.75,29.8649399220832
2961,29.9548624154194
2961.25,30.0447849087554
2961.5,30.1347074020914
2961.75,30.2246298954275
2962,30.3145523887636
2962.25,30.4044748820997
2962.5,30.4943973754357
2962.75,30.5843198687719
2963,30.6742423621079
2963.25,30.7641648554439
2963.5,30.8540873487801
2963.75,30.9440098421161
2964,31.0339323354521
2964.25,31.1238548287883
2964.5,31.2137773221243
2964.75,31.3036998154603
2965,31.3936223087963
2965.25,31.3953586221038
2965.5,31.3903629280295
2965.75,31.3853672339553
2966,31.3803715398811
2966.25,31.3753758458068
2966.5,31.3703801517326
2966.75,31.3653844576584
2967,31.3603887635842
2967.25,31.3553930695099
2967.5,31.3503973754357
2967.75,31.3454016813615
2968,31.3404059872873
2968.25,31.335410293213
2968.5,31.3304145991388
2968.75,31.3254189050646
2969,31.3204232109904
2969.25,31.3154275169161
2969.5,31.3104318228419
2969.75,31.3054361287677
2970,31.3004404346935
2970.25,31.2954447406192
2970.5,31.290449046545
2970.75,31.2854533524708
2971,31.2804576583966
2971.25,31.2754619643223
2971.5,31.2704662702481
2971.75,31.2654705761739
2972,31.2604748820997
2972.25,31.2554791880254
2972.5,31.2504834939512
2972.75,31.245487799877
2973,31.2404921058028
2973.25,31.2354964117285
2973.5,31.2305007176543
2973.75,31.2255050235801
2974,31.2205093295058
2974.25,31.2155136354316
2974.5,31.2105179413574
2974.75,31.2055222472832
2975,31.2005265532089
2975.25,31.1016789009637
2975.5,30.9917736313306
2975.75,30.8818683616977
2976,30.7719630920648
2976.25,30.6620578224319
2976.5,30.5521525527988
2976.75,30.4422472831659
2977,30.332342013533
2977.25,30.2224367438999
2977.5,30.1125314742669
2977.75,30.002626204634
2978,29.8927209350009
2978.25,29.782815665368
2978.5,29.6729103957351
2978.75,29.563005126102
2979,29.4530998564691
2979.25,29.3431945868362
2979.5,29.2332893172033
2979.75,29.1233840475702
2980,29.0134787779373
2980.25,29.0876604469961
2980.5,29.1875743284807
2980.75,29.2874882099652
2981,29.3874020914496
2981.25,29.4873159729343
2981.5,29.5872298544187
2981.75,29.6871437359032
2982,29.7870576173878
2982.25,29.8869714988723
2982.5,29.9868853803568
2982.75,30.0867992618414
2983,30.1867131433259
2983.25,30.2866270248103
2983.5,30.3865409062948
2983.75,30.4864547877794
2984,30.5863686692639
2984.25,30.6862825507484
2984.5,30.786196432233
2984.75,30.8861103137175
2985,30.9860241952019
2985.25,30.9355464424851
2985.5,30.8606110313717
2985.75,30.7856756202584
2986,30.7107402091449
2986.25,30.6358047980315
2986.5,30.5608693869182
2986.75,30.4859339758048
2987,30.4109985646914
2987.25,30.336063153578
2987.5,30.2611277424647
2987.75,30.1861923313512
2988,30.1112569202378
2988.25,30.0363215091245
2988.5,29.961386098011
2988.75,29.8864506868977
2989,29.8115152757843
2989.25,29.7365798646708
2989.5,29.6616444535575
2989.75,29.5867090424441
2990,29.5117736313307
2990.25,29.5294754972319
2990.5,29.5644453557515
2990.75,29.599415214271
2991,29.6343850727907
2991.25,29.6693549313102
2991.5,29.7043247898298
2991.75,29.7392946483494
2992,29.774264506869
2992.25,29.8092343653885
2992.5,29.8442042239082
2992.75,29.8791740824277
2993,29.9141439409473
2993.25,29.9491137994669
2993.5,29.9840836579865
2993.75,30.019053516506
2994,30.0540233750256
2994.25,30.0889932335452
2994.5,30.1239630920648
2994.75,30.1589329505844
2995,30.193902809104
2995.25,30.1917506663933
2995.5,30.1817592782448
2995.75,30.1717678900964
2996,30.1617765019479
2996.25,30.1517851137995
2996.5,30.141793725651
2996.75,30.1318023375026
2997,30.1218109493541
2997.25,30.1118195612057
2997.5,30.1018281730572
2997.75,30.0918367849088
2998,30.0818453967603
2998.25,30.0718540086118
2998.5,30.0618626204634
2998.75,30.051871232315
2999,30.0418798441665
2999.25,30.031888456018
2999.5,30.0218970678696
2999.75,30.0119056797211
3000,30.0019142915727
3000.25,30.0444240311667
3000.5,30.0993766659832
3000.75,30.1543293007997
3001,30.2092819356162
3001.25,30.2642345704326
3001.5,30.3191872052492
3001.75,30.3741398400656
3002,30.4290924748821
3002.25,30.4840451096986
3002.5,30.5389977445151
3002.75,30.5939503793315
3003,30.6489030141481
3003.25,30.7038556489645
3003.5,30.758808283781
3003.75,30.8137609185976
3004,30.868713553414
3004.25,30.9236661882305
3004.5,30.9786188230469
3004.75,31.0335714578635
3005,31.0885240926799
3005.25,31.0960475702276
3005.5,31.0910518761534
3005.75,31.0860561820791
3006,31.0810604880049
3006.25,31.0760647939307
3006.5,31.0710690998565
3006.75,31.0660734057822
3007,31.061077711708
3007.25,31.0560820176338
3007.5,31.0510863235596
3007.75,31.0460906294853
3008,31.0410949354111
3008.25,31.0360992413369
3008.5,31.0311035472627
3008.75,31.0261078531884
3009,31.0211121591142
3009.25,31.01611646504
3009.5,31.0111207709658
3009.75,31.0061250768915
3010,31.0011293828173
3010.25,30.9110748410907
3010.5,30.7961738773836
3010.75,30.6812729136765
3011,30.5663719499691
3011.25,30.451470986262
3011.5,30.3365700225549
3011.75,30.2216690588477
3012,30.1067680951404
3012.25,29.9918671314333
3012.5,29.8769661677261
3012.75,29.7620652040188
3013,29.6471642403117
3013.25,29.5322632766045
3013.5,29.4173623128972
3013.75,29.30246134919
3014,29.1875603854829
3014.25,29.0726594217756
3014.5,28.9577584580684
3014.75,28.8428574943613
3015,28.727956530654
3015.25,28.7226811564487
3015.5,28.752655320894
3015.75,28.7826294853393
3016,28.8126036497847
3016.25,28.8425778142301
3016.5,28.8725519786754
3016.75,28.9025261431208
3017,28.9325003075661
3017.25,28.9624744720115
3017.5,28.9924486364569
3017.75,29.0224228009022
3018,29.0523969653475
3018.25,29.0823711297929
3018.5,29.1123452942383
3018.75,29.1423194586836
3019,29.172293623129
3019.25,29.2022677875743
3019.5,29.2322419520197
3019.75,29.262216116465
3020,29.2921902809104
3020.25,29.3443288907115
3020.5,29.4042772196022
3020.75,29.464225548493
3021,29.5241738773837
3021.25,29.5841222062743
3021.5,29.6440705351651
3021.75,29.7040188640558
3022,29.7639671929465
3022.25,29.8239155218373
3022.5,29.8838638507279
3022.75,29.9438121796186
3023,30.0037605085093
3023.25,30.0637088374001
3023.5,30.1236571662908
3023.75,30.1836054951814
3024,30.2435538240722
3024.25,30.3035021529629
3024.5,30.3634504818536
3024.75,30.4233988107444
3025,30.483347139635
3025.25,30.4675283986057
3025.5,30.4225671519376
3025.75,30.3776059052696
3026,30.3326446586016
3026.25,30.2876834119336
3026.5,30.2427221652655
3026.75,30.1977609185975
3027,30.1527996719295
3027.25,30.1078384252614
3027.5,30.0628771785934
3027.75,30.0179159319254
3028,29.9729546852573
3028.25,29.9279934385893
3028.5,29.8830321919213
3028.75,29.8380709452532
3029,29.7931096985852
3029.25,29.7481484519172
3029.5,29.7031872052491
3029.75,29.6582259585811
3030,29.6132647119131
3030.25,29.603521837195
3030.5,29.6085175312692
3030.75,29.6135132253435
3031,29.6185089194177
3031.25,29.6235046134919
3031.5,29.6285003075661
3031.75,29.6334960016404
3032,29.6384916957146
3032.25,29.6434873897888
3032.5,29.648483083863
3032.75,29.6534787779373
3033,29.6584744720115
3033.25,29.6634701660857
3033.5,29.6684658601599
3033.75,29.6734615542342
3034,29.6784572483084
3034.25,29.6834529423826
3034.5,29.6884486364568
3034.75,29.6934443305311
3035,29.6984400246053
3035.25,29.7137428747181
3035.5,29.733725651015
3035.75,29.7537084273119
3036,29.7736912036088
3036.25,29.7936739799057
3036.5,29.8136567562026
3036.75,29.8336395324995
3037,29.8536223087964
3037.25,29.8736050850933
3037.5,29.8935878613902
3037.75,29.9135706376871
3038,29.933553413984
3038.25,29.9535361902809
3038.5,29.9735189665778
3038.75,29.9935017428747
3039,30.0134845191716
3039.25,30.0334672954685
3039.5,30.0534500717654
3039.75,30.0734328480623
3040,30.0934156243593
3040.25,30.1200976009842
3040.5,30.1500717654296
3040.75,30.1800459298749
3041,30.2100200943203
3041.25,30.2399942587656
3041.5,30.269968423211
3041.75,30.2999425876564
3042,30.3299167521017
3042.25,30.359890916547
3042.5,30.3898650809924
3042.75,30.4198392454378
3043,30.4498134098831
3043.25,30.4797875743285
3043.5,30.5097617387739
3043.75,30.5397359032192
3044,30.5697100676645
3044.25,30.5996842321099
3044.5,30.6296583965553
3044.75,30.6596325610006
3045,30.689606725446
3045.25,30.6967365183514
3045.5,30.6917408242772
3045.75,30.686745130203
3046,30.6817494361288
3046.25,30.6767537420545
3046.5,30.6717580479803
3046.75,30.6667623539061
3047,30.6617666598319
3047.25,30.6567709657576
3047.5,30.6517752716834
3047.75,30.6467795776092
3048,30.641783883535
3048.25,30.6367881894607
3048.5,30.6317924953865
3048.75,30.6267968013123
3049,30.6218011072381
3049.25,30.6168054131638
3049.5,30.6118097190896
3049.75,30.6068140250154
3050,30.6018183309412
3050.25,30.5777584580685
3050.5,30.5427885995489
3050.75,30.5078187410293
3051,30.4728488825097
3051.25,30.4378790239902
3051.5,30.4029091654706
3051.75,30.367939306951
3052,30.3329694484314
3052.25,30.2979995899118
3052.5,30.2630297313922
3052.75,30.2280598728727
3053,30.1930900143531
3053.25,30.1581201558335
3053.5,30.1231502973139
3053.75,30.0881804387943
3054,30.0532105802747
3054.25,30.0182407217552
3054.5,29.9832708632356
3054.75,29.948301004716
3055,29.9133311461964
3055.25,29.9030912446176
3055.5,29.9080869386918
3055.75,29.913082632766
3056,29.9180783268403
3056.25,29.9230740209145
3056.5,29.9280697149887
3056.75,29.9330654090629
3057,29.9380611031372
3057.25,29.9430567972114
3057.5,29.9480524912856
3057.75,29.9530481853599
3058,29.9580438794341
3058.25,29.9630395735083
3058.5,29.9680352675825
3058.75,29.9730309616568
3059,29.978026655731
3059.25,29.9830223498052
3059.5,29.9880180438794
3059.75,29.9930137379537
3060,29.9980094320279
3060.25,30.0300512610212
3060.5,30.0800082017634
3060.75,30.1299651425056
3061,30.1799220832479
3061.25,30.2298790239902
3061.5,30.2798359647324
3061.75,30.3297929054747
3062,30.379749846217
3062.25,30.4297067869592
3062.5,30.4796637277014
3062.75,30.5296206684437
3063,30.579577609186
3063.25,30.6295345499282
3063.5,30.6794914906705
3063.75,30.7294484314128
3064,30.779405372155
3064.25,30.8293623128973
3064.5,30.8793192536396
3064.75,30.9292761943818
3065,30.9792331351241
3065.25,30.9737289317203
3065.5,30.9287676850523
3065.75,30.8838064383843
3066,30.8388451917162
3066.25,30.7938839450482
3066.5,30.7489226983802
3066.75,30.7039614517121
3067,30.6590002050441
3067.25,30.6140389583761
3067.5,30.569077711708
3067.75,30.52411646504
3068,30.479155218372
3068.25,30.4341939717039
3068.5,30.3892327250359
3068.75,30.3442714783679
3069,30.2993102316998
3069.25,30.2543489850318
3069.5,30.2093877383637
3069.75,30.1644264916957
3070,30.1194652450277
3070.25,30.0773368874308
3070.5,30.037371334837
3070.75,29.9974057822432
3071,29.9574402296494
3071.25,29.9174746770556
3071.5,29.8775091244617
3071.75,29.8375435718679
3072,29.7975780192742
3072.25,29.7576124666803
3072.5,29.7176469140865
3072.75,29.6776813614927
3073,29.6377158088989
3073.25,29.5977502563051
3073.5,29.5577847037113
3073.75,29.5178191511175
3074,29.4778535985237
3074.25,29.4378880459299
3074.5,29.3979224933361
3074.75,29.3579569407422
3075,29.3179913881484
3075.25,29.275279064999
3075.5,29.2303178183309
3075.75,29.1853565716629
3076,29.1403953249949
3076.25,29.0954340783269
3076.5,29.0504728316588
3076.75,29.0055115849908
3077,28.9605503383228
3077.25,28.9155890916547
3077.5,28.8706278449867
3077.75,28.8256665983187
3078,28.7807053516506
3078.25,28.7357441049826
3078.5,28.6907828583145
3078.75,28.6458216116465
3079,28.6008603649785
3079.25,28.5558991183104
3079.5,28.5109378716424
3079.75,28.4659766249743
3080,28.4210153783063
3080.25,28.4186245642813
3080.5,28.4535944228009
3080.75,28.4885642813205
3081,28.52353413984
3081.25,28.5585039983597
3081.5,28.5934738568792
3081.75,28.6284437153988
3082,28.6634135739184
3082.25,28.698383432438
3082.5,28.7333532909575
3082.75,28.7683231494772
3083,28.8032930079967
3083.25,28.8382628665163
3083.5,28.8732327250359
3083.75,28.9082025835555
3084,28.943172442075
3084.25,28.9781423005946
3084.5,29.0131121591142
3084.75,29.0480820176338
3085,29.0830518761534
3085.25,29.118021734673
3085.5,29.1529915931925
3085.75,29.1879614517121
3086,29.2229313102317
3086.25,29.2579011687513
3086.5,29.2928710272709
3086.75,29.3278408857905
3087,29.36281074431
3087.25,29.3977806028296
3087.5,29.4327504613492
3087.75,29.4677203198688
3088,29.5026901783884
3088.25,29.5376600369079
3088.5,29.5726298954275
3088.75,29.6075997539471
3089,29.6425696124667
3089.25,29.6775394709863
3089.5,29.7125093295059
3089.75,29.7474791880254
3090,29.782449046545
3090.25,29.7502316998154
3090.5,29.650317818331
3090.75,29.5504039368465
3091,29.4504900553618
3091.25,29.3505761738774
3091.5,29.2506622923929
3091.75,29.1507484109083
3092,29.0508345294238
3092.25,28.9509206479393
3092.5,28.8510067664547
3092.75,28.7510928849702
3093,28.6511790034858
3093.25,28.5512651220011
3093.5,28.4513512405167
3093.75,28.3514373590322
3094,28.2515234775476
3094.25,28.1516095960631
3094.5,28.0516957145786
3094.75,27.9517818330942
3095,27.8518679516095
3095.25,27.7975977035063
3095.5,27.792602009432
3095.75,27.7876063153578
3096,27.7826106212836
3096.25,27.7776149272094
3096.5,27.7726192331351
3096.75,27.7676235390609
3097,27.7626278449867
3097.25,27.7576321509124
3097.5,27.7526364568382
3097.75,27.747640762764
3098,27.7426450686898
3098.25,27.7376493746155
3098.5,27.7326536805413
3098.75,27.7276579864671
3099,27.7226622923929
3099.25,27.7176665983186
3099.5,27.7126709042444
3099.75,27.7076752101702
3100,27.702679516096
3100.25,27.6953676440435
3100.5,27.685376255895
3100.75,27.6753848677466
3101,27.6653934795981
3101.25,27.6554020914496
3101.5,27.6454107033012
3101.75,27.6354193151528
3102,27.6254279270043
3102.25,27.6154365388558
3102.5,27.6054451507074
3102.75,27.595453762559
3103,27.5854623744105
3103.25,27.575470986262
3103.5,27.5654795981136
3103.75,27.5554882099651
3104,27.5454968218167
3104.25,27.5355054336682
3104.5,27.5255140455198
3104.75,27.5155226573713
3105,27.5055312692229
3105.25,27.5
3105.5,27.5
3105.75,27.5
3106,27.5
3106.25,27.5
3106.5,27.5
3106.75,27.5
3107,27.5
3107.25,27.5
3107.5,27.5
3107.75,27.5
3108,27.5
3108.25,27.5
3108.5,27.5
3108.75,27.5
3109,27.5
3109.25,27.5
3109.5,27.5
3109.75,27.5
3110,27.5
3110.25,27.4742727086323
3110.5,27.4143243797416
3110.75,27.354376050851
3111,27.2944277219602
3111.25,27.2344793930695
3111.5,27.1745310641788
3111.75,27.114582735288
3112,27.0546344063973
3112.25,26.9946860775067
3112.5,26.934737748616
3112.75,26.8747894197252
3113,26.8148410908345
3113.25,26.7548927619438
3113.5,26.6949444330531
3113.75,26.6349961041624
3114,26.5750477752717
3114.25,26.5150994463809
3114.5,26.4551511174902
3114.75,26.3952027885996
3115,26.3352544597088
3115.25,26.3308673364774
3115.5,26.4058027475907
3115.75,26.4807381587041
3116,26.5556735698176
