2156,1021.29934536394
2156.25,1014.36244443371
2156.5,1008.83040501081
2156.75,1006.54047833738
2157,1006.80388371804
2157.25,1008.37475657523
2157.5,1010.00723239354
2157.75,1010.78299718448
2158,1011.07141933991
2158.25,1011.55825435062
2158.5,1012.92925770742
2158.75,1015.63759748522
2159,1019.10550615445
2159.25,1022.46967522405
2159.5,1024.86678587779
2159.75,1025.63194018996
2160,1025.12921044247
2160.25,1024.0551956516
2160.5,1023.10666122266
2160.75,1022.87866209105
2161,1023.24709885322
2161.25,1023.77785530979
2161.5,1024.03559816692
2161.75,1023.64475589277
2162,1022.80175318904
2162.25,1022.02105562777
2162.5,1021.82054675302
2162.75,1022.6585667273
2163,1024.18786102526
2163.25,1025.4819715352
2163.5,1025.60172565787
2163.75,1023.68206085797
2164,1020.2933812641
2164.25,1017.30630108867
2164.5,1016.63841021223
2164.75,1020.14612339451
2165,1027.76512319444
2165.25,1037.17243323408
2165.5,1045.91575971686
2165.75,1051.57254955635
2166,1053.14776750129
2166.25,1051.67508000532
2166.5,1048.34280622757
2166.75,1044.33854602746
2167,1040.60346859296
2167.25,1037.47350015197
2167.5,1035.1933321856
2167.75,1034.00765617494
2168,1034.07792678574
2168.25,1035.21838481406
2168.5,1037.15274942599
2168.75,1039.60473955019
2169,1042.26867084703
2169.25,1044.65334757249
2169.5,1046.19542061068
2169.75,1046.33137940782
2170,1044.58059286171
2170.25,1041.34846651455
2170.5,1037.57729899253
2170.75,1034.21689815923
2171,1032.19077109463
2171.25,1031.83445496707
2171.5,1032.90478130828
2171.75,1035.13413386793
2172,1038.24945088736
2172.25,1041.72961632058
2172.5,1044.70851176375
2172.75,1046.29451973472
2173,1045.60043639701
2173.25,1042.42497047697
2173.5,1037.98965215412
2173.75,1033.69289387505
2174,1030.93307495218
2174.25,1030.60823346876
2174.5,1031.85238834471
2174.75,1033.41099913258
2175,1034.0295253849
2175.25,1032.76324902264
2175.5,1030.25300772447
2175.75,1027.64550182233
2176,1026.08765085013
2176.25,1026.5517610973
2176.5,1028.64327802434
2176.75,1031.32380595514
2177,1033.55118009366
2177.25,1034.39048429264
2177.5,1034.10266026637
2177.75,1033.69666633607
2178,1034.19291306314
2178.25,1036.53998738057
2178.5,1040.32133283169
2178.75,1043.89780229499
2179,1045.58704431868
2179.25,1043.74757609002
2179.5,1038.30549804964
2179.75,1031.21108489249
2180,1024.54867281551
2180.25,1020.39659146489
2180.5,1019.85874817746
2180.75,1021.99614745216
2181,1025.61262382958
2181.25,1029.51245868408
2181.5,1032.7471634462
2181.75,1035.02549636231
2182,1036.1642239772
2182.25,1035.98011498306
2182.5,1034.49545428195
2182.75,1032.50130859096
2183,1030.96847223357
2183.25,1030.86773953328
2183.5,1032.9487068257
2183.75,1036.68260172604
2184,1041.08244068674
2184.25,1045.16065291537
2184.5,1047.98884066539
2184.75,1049.14614318403
2185,1048.46988701667
2185.25,1045.79944053084
2185.5,1041.03484758894
2185.75,1035.09956584054
2186,1029.76849055035
2186.25,1026.84243189956
2186.5,1028.0746608003
2186.75,1033.30824221205
2187,1039.86827016604
2187.25,1044.90783128444
2187.5,1045.60244708039
2187.75,1041.06972186903
2188,1033.84189128407
2188.25,1026.79786685255
2188.5,1022.81567033563
2188.75,1023.66947288819
2189,1027.8773453086
2189.25,1033.35992223265
2189.5,1038.03783885656
2189.75,1040.3287558926
2190,1040.57669295937
2190.25,1039.59230007673
2190.5,1038.18622726458
2190.75,1037.07467873843
2191,1036.39353169353
2191.25,1036.05839105049
2191.5,1035.98443927088
2191.75,1036.0788703641
2192,1036.1682747201
2192.25,1036.03252669597
2192.5,1035.45092846124
2192.75,1034.22305642099
2193,1032.50180458893
2193.25,1030.74010399414
2193.5,1029.40041444716
2193.75,1028.93379047035
2194,1029.40185965762
2194.25,1030.38954197608
2194.5,1031.45267187382
2194.75,1032.1509922941
2195,1032.33102519414
2195.25,1032.31678500009
2195.5,1032.47747353292
2195.75,1033.18160793939
2196,1034.60385380197
2196.25,1036.45957950517
2196.5,1038.39763180945
2196.75,1040.06685948117
2197,1041.13870968999
2197.25,1041.36323554555
2197.5,1040.50757039398
2197.75,1038.33884758138
2198,1034.73247891557
2198.25,1030.1738329369
2198.5,1025.36167650281
2198.75,1020.99500230422
2199,1017.723960164
2199.25,1015.75121973108
2199.5,1015.03920860877
2199.75,1015.54805579565
2200,1017.22394376733
2200.25,1019.84371329769
2200.5,1023.0714267637
2200.75,1026.56910195983
2201,1030.0088919071
2201.25,1033.22028190509
2201.5,1036.15684394519
2201.75,1038.77551845625
2202,1041.02938551482
2202.25,1042.77323357347
2202.5,1043.75797055157
2202.75,1043.7295251626
2203,1042.43920076881
2203.25,1039.99720794367
2203.5,1037.09208671639
2203.75,1034.46479202482
2204,1032.85528000202
2204.25,1032.5317644138
2204.5,1032.53871705276
2204.75,1031.72476134372
2205,1028.93852248687
2205.25,1023.59243326505
2205.5,1017.25575320292
2205.75,1012.01341201353
2206,1009.95033940988
2206.25,1012.60421778137
2206.5,1018.54282558701
2206.75,1025.33120764552
2207,1030.5336301708
2207.25,1032.1678749746
2207.5,1031.03508262469
2207.75,1028.99170526635
2208,1027.89620462581
2208.25,1029.36869755605
2208.5,1032.84724903385
2208.75,1036.59911199605
2209,1038.88035937721
2209.25,1038.08800593497
2209.5,1034.54742622308
2209.75,1029.98120988144
2210,1026.14319058912
2210.25,1024.73775319191
2210.5,1026.13420003949
2210.75,1029.24666264229
2211,1032.91575014133
2211.25,1035.9973751816
2211.5,1038.07701137466
2211.75,1039.77406104031
2212,1041.78643306144
2212.25,1044.80863187144
2212.5,1049.01136479434
2212.75,1053.48152591009
2213,1057.17167065494
2213.25,1059.03439550484
2213.5,1058.37999265805
2213.75,1055.74683026421
2214,1051.936626034
2214.25,1047.7510976781
2214.5,1043.91789955499
2214.75,1040.64307505117
2215,1037.90859402382
2215.25,1035.69556162273
2215.5,1034.00355756459
2215.75,1033.08095568067
2216,1033.35443205515
2216.25,1035.25454662692
2216.5,1039.16945328054
2216.75,1044.45043420422
2217,1049.37651741182
2217.25,1052.17724586949
2217.5,1051.10963405991
2217.75,1046.01187796429
2218,1039.13517654441
2218.25,1032.93393974762
2218.5,1029.86094713719
2218.75,1031.33022912815
2219,1035.93689851513
2219.25,1041.80247330891
2219.5,1047.04847202941
2219.75,1050.17018361883
2220,1051.1085431732
2220.25,1050.15394445649
2220.5,1047.5967812327
2220.75,1043.78148203882
2221,1039.42332626509
2221.25,1035.39327782509
2221.5,1032.56283556567
2221.75,1031.71632091827
2222,1032.49976075524
2222.25,1033.76080584748
2222.5,1034.33060597741
2222.75,1033.09507311692
2223,1030.15760486838
2223.25,1026.8161744931
2223.5,1024.41893492913
2223.75,1024.29338230288
2224,1026.80907083756
2224.25,1030.99329076092
2224.5,1035.7730587783
2224.75,1040.07907504221
2225,1043.19337544043
2225.25,1045.03469771916
2225.5,1045.58894078959
2225.75,1044.84223293816
2226,1042.96899470054
2226.25,1040.67244094618
2226.5,1038.74792623521
2226.75,1037.99080512774
2227,1038.95667442756
2227.25,1041.0503719474
2227.5,1043.33190148779
2227.75,1044.86120240964
2228,1044.81890081953
2228.25,1043.3145589734
2228.5,1040.88901729171
2228.75,1038.08549167569
2229,1035.4424926737
2229.25,1033.43015443817
2229.5,1032.46699394795
2229.75,1032.97025796221
2230,1035.3337340758
2230.25,1039.29313569688
2230.5,1043.85263635048
2230.75,1047.97820564769
2231,1050.64772867593
2231.25,1051.60752486787
2231.5,1051.82681599243
2231.75,1052.38382981889
2232,1054.35598970511
2232.25,1058.21829043041
2232.5,1062.77410129132
2232.75,1066.53920947514
2233,1068.02940216914
2233.25,1066.11478899561
2233.5,1061.53849277335
2233.75,1055.66024616819
2234,1049.84015677022
2234.25,1045.36276145272
2234.5,1042.52692656903
2234.75,1040.94071784715
2235,1040.19795027172
2235.25,1039.89994787341
2235.5,1039.876825919
2235.75,1040.2238115814
2236,1041.05095468551
2236.25,1042.46558954797
2236.5,1044.3341214219
2236.75,1046.09603110997
2237,1047.14702373901
2237.25,1046.88321285008
2237.5,1045.06599130046
2237.75,1042.49378415379
2238,1040.14779877015
2238.25,1039.00924250966
2238.5,1039.81402038386
2238.75,1042.07815098874
2239,1044.93917250421
2239.25,1047.53450669708
2239.5,1049.09695677541
2239.75,1049.63210487435
2240,1049.52034938322
2240.25,1049.14455973684
2240.5,1048.87723429187
2240.75,1048.92248563841
2241,1049.34769929569
2241.25,1050.21630766492
2241.5,1051.58744997389
2241.75,1053.33611610889
2242,1055.08759079538
2242.25,1056.44937206469
2242.5,1057.02954979057
2242.75,1056.60119949111
2243,1055.32711028749
2243.25,1053.42632232509
2243.5,1051.11787574928
2243.75,1048.66899952791
2244,1046.56973375762
2244.25,1045.37447120363
2244.5,1045.63761090422
2244.75,1047.78377161656
2245,1051.09962912465
2245.25,1054.28237105548
2245.5,1056.02420572595
2245.75,1055.10569848641
2246,1051.83933370702
2246.25,1047.83434247225
2246.5,1044.74086851714
2246.75,1044.18603838235
2247,1046.47846908542
2247.25,1049.91824971947
2247.5,1052.63673803542
2247.75,1052.76786307138
2248,1049.356627283
2248.25,1043.69927834178
2248.5,1037.43369814861
2248.75,1032.19776860444
2249,1029.37306234085
2249.25,1029.15648463014
2249.5,1031.40290664948
2249.75,1035.96716647436
2250,1042.55629437048
2250.25,1049.86505081237
2250.5,1056.16405321073
2250.75,1059.72247595685
2251,1059.00769511172
2251.25,1054.71539006112
2251.5,1048.94366628199
2251.75,1043.81247173061
2252,1041.39056184485
2252.25,1042.12210168857
2252.5,1044.53087932048
2252.75,1047.02981363542
2253,1048.04064715362
2253.25,1046.88452762215
2253.5,1044.54549164323
2253.75,1042.18742152857
2254,1040.97403244751
2254.25,1041.59547137952
2254.5,1043.23188748581
2254.75,1044.76312674381
2255,1045.06903513097
2255.25,1043.35883757087
2255.5,1040.55920298333
2255.75,1038.15475790718
2256,1037.63042446479
2256.25,1040.23601821856
2256.5,1045.04777047461
2256.75,1049.96639992931
2257,1052.88109659379
2257.25,1051.81849859736
2257.5,1047.03334650683
2257.75,1040.58773821804
2258,1034.595913644
2258.25,1031.14545027573
2258.5,1031.06174104439
2258.75,1033.38654913456
2259,1037.02676107357
2259.25,1040.89092242008
2259.5,1044.10946876482
2259.75,1046.25564920948
2260,1046.95528602322
2260.25,1045.83431962423
2260.5,1042.80740348953
2260.75,1038.6985788488
2261,1034.51048487333
2261.25,1031.2457607344
2261.5,1029.74645510228
2261.75,1029.97580936378
2262,1031.59797816743
2262.25,1034.27686643561
2262.5,1037.63742859869
2262.75,1040.98959113982
2263,1043.49070893616
2263.25,1044.29713685898
2263.5,1042.65045264732
2263.75,1038.91785478347
2264,1034.26240494772
2264.25,1029.8639415595
2264.5,1026.88013106833
2264.75,1025.83636613155
2265,1026.54927183598
2265.25,1028.79793996449
2265.5,1032.35630603659
2265.75,1036.71195837841
2266,1040.9214053022
2266.25,1044.00552503203
2266.5,1044.98913334318
2266.75,1043.55058865292
2267,1040.74609189047
2267.25,1037.80643341701
2267.5,1035.96237864529
2267.75,1036.01617466617
2268,1037.25094041382
2268.25,1038.61331704307
2268.5,1039.04994570877
2268.75,1037.7490581285
2269,1035.22027830336
2269.25,1032.42272329015
2269.5,1030.31588380869
2269.75,1029.74166976425
2270,1030.48503033468
2270.25,1031.77212607104
2270.5,1032.8240465875
2270.75,1032.92407134131
2271,1032.21483659366
2271.25,1031.46589586433
2271.5,1031.46105036745
2271.75,1032.95119394195
2272,1035.88752207011
2272.25,1039.39698866778
2272.5,1042.5687302274
2272.75,1044.50722689216
2273,1045.08062865569
2273.25,1045.25839636591
2273.5,1046.09571313982
2273.75,1048.64518197189
2274,1053.28661475516
2274.25,1058.83167409831
2274.5,1063.86904318836
2274.75,1066.98740521234
2275,1067.22331552704
2275.25,1065.44566887032
2275.5,1062.99188930186
2275.75,1061.19940107579
2276,1061.2534022719
2276.25,1062.89516080328
2276.5,1065.06882613423
2276.75,1066.71017864416
2277,1066.78948515661
2277.25,1065.1476959011
2277.5,1062.54180594346
2277.75,1059.7723764159
2278,1057.63747246839
2278.25,1056.48178754136
2278.5,1055.67338222731
2278.75,1054.45341718252
2279,1052.06305306329
2279.25,1048.15317161047
2279.5,1044.11186378451
2279.75,1041.7875610879
2280,1043.02869820432
2280.25,1049.30470692483
2280.5,1059.02378867479
2280.75,1069.11323787081
2281,1076.4906862641
2281.25,1078.27042839415
2281.5,1074.54903812354
2281.75,1067.73928833507
2282,1060.31472497693
2282.25,1054.73556570291
2282.5,1052.29023499579
2282.75,1052.19671758673
2283,1053.46147510215
2283.25,1055.09101110309
2283.5,1056.31562630312
2283.75,1057.11233505062
2284,1057.61370037445
2284.25,1057.95228530346
2284.5,1058.23826844019
2284.75,1058.43642021562
2285,1058.45342563848
2285.25,1058.19581744427
2285.5,1057.59467248482
2285.75,1056.93591787476
2286,1056.77243774313
2286.25,1057.66363411294
2286.5,1060.15398204241
2286.75,1064.1192678628
2287,1068.51171553867
2287.25,1072.21597520521
2287.5,1074.11774607676
2287.75,1073.65675302579
2288,1071.735210196
2288.25,1069.49384884961
2288.5,1068.07340024885
2288.75,1068.48307388671
2289,1070.88860517003
2289.25,1075.12271206748
2289.5,1081.01729712469
2289.75,1088.3634894137
2290,1096.27149827227
2290.25,1103.28859537735
2290.5,1107.94514347487
2290.75,1108.77968215128
2291,1105.4624523046
2291.25,1099.94265507792
2291.5,1094.44300413347
2291.75,1091.18621313348
2292,1092.04570387902
2292.25,1096.32067878567
2292.5,1102.15940452232
2292.75,1107.70477933699
2293,1111.138821595
2293.25,1111.87870925782
2293.5,1110.79805228672
2293.75,1108.85421230532
2294,1107.00455093725
2294.25,1106.0279843979
2294.5,1105.98304045481
2294.75,1106.74648280022
2295,1108.1950751212
2295.25,1110.19292141525
2295.5,1112.38929064832
2295.75,1114.25402943387
2296,1115.25147934687
2296.25,1114.84635563862
2296.5,1112.73298076446
2296.75,1109.22555701384
2297,1104.74185434579
2297.25,1099.69964271935
2297.5,1094.5347013583
2297.75,1089.88742327829
2298,1086.52799216541
2298.25,1085.22865737253
2298.5,1086.75376888277
2298.75,1091.15108996103
2299,1097.18973175589
2299.25,1103.5065358292
2299.5,1108.73834374277
2299.75,1111.76398987026
2300,1112.63196611959
2300.25,1111.74368406341
2300.5,1109.50062861874
2300.75,1106.31123133893
2301,1102.74288781053
2301.25,1099.52150972334
2301.5,1097.37986581729
2301.75,1097.05058742604
2302,1098.75811130278
2302.25,1101.0730796783
2302.5,1102.23029309818
2302.75,1100.46455210801
2303,1094.27279262806
2303.25,1085.044682719
2303.5,1075.96529267844
2303.75,1070.24658716566
2304,1071.0723987818
2304.25,1079.16386621304
2304.5,1090.89671469857
2304.75,1102.20349417501
2305,1109.01675474435
2305.25,1108.47628918466
2305.5,1102.47636415175
2305.75,1094.08152699575
2306,1086.35632506681
2306.25,1082.21883850748
2306.5,1082.10421563471
2306.75,1084.37532915887
2307,1087.33155828679
2307.25,1089.27751690603
2307.5,1089.27072646226
2307.75,1087.90011001122
2308,1085.94058890777
2308.25,1084.16708450676
2308.5,1083.19860662475
2308.75,1082.75000640855
2309,1082.21100311482
2309.25,1080.97088895695
2309.5,1078.46162060283
2309.75,1074.92950470663
2310,1071.35201468496
2310.25,1068.73259119293
2310.5,1068.07034039243
2310.75,1069.65322017525
2311,1072.27412142609
2311.25,1074.53711755498
2311.5,1075.04628197192
2311.75,1072.79896913431
2312,1068.62431793232
2312.25,1063.88437001136
2312.5,1059.94122680648
2312.75,1058.065566358
2313,1058.39562885781
2313.25,1060.30456132655
2313.5,1063.15111622894
2313.75,1066.29816050853
2314,1069.25655494957
2314.25,1071.72276509359
2314.5,1073.40501426882
2314.75,1074.01217686475
2315,1073.52724026787
2315.25,1072.63103550468
2315.5,1072.11381777461
2315.75,1072.76584227711
2316,1075.20059506984
2316.25,1078.94164497253
2316.5,1083.0975429477
2316.75,1086.77602735375
2317,1089.12252343259
2317.25,1089.93138848368
2317.5,1089.54393200511
2317.75,1088.31856734002
2318,1086.61320423742
2318.25,1084.69527567696
2318.5,1082.63781448481
2318.75,1080.48866930077
2319,1078.29568876462
2319.25,1076.13697558325
2319.5,1074.27256073059
2319.75,1073.03015746546
2320,1072.737592568
2320.25,1073.69206868231
2320.5,1075.63627151185
2320.75,1077.83069834142
2321,1079.51977666025
2321.25,1079.95235506153
2321.5,1078.85568266424
2321.75,1076.85717065017
2322,1074.68372238991
2322.25,1073.06224125405
2322.5,1072.57878290332
2322.75,1073.147861142
2323,1074.48406920536
2323.25,1076.3019666899
2323.5,1078.30661795542
2323.75,1080.08558036404
2324,1081.14707400474
2324.25,1080.99782882597
2324.5,1079.15636379425
2324.75,1075.80805504082
2325,1072.1492776471
2325.25,1069.46078219596
2325.5,1069.02331405301
2325.75,1071.56980611908
2326,1075.77970070673
2326.25,1079.85136772111
2326.5,1081.9831770674
2326.75,1080.61191881443
2327,1076.2797007208
2327.25,1070.62557207081
2327.5,1065.29804072822
2327.75,1061.91327685442
2328,1060.95248007799
2328.25,1061.48950001342
2328.5,1062.51058132762
2328.75,1063.00326353116
2329,1062.40052648457
2329.25,1061.23018475871
2329.5,1060.18522517443
2329.75,1059.9586345526
2330,1061.06080014027
2330.25,1063.05497828919
2330.5,1065.19828145693
2330.75,1066.74766855951
2331,1067.02995184542
2331.25,1066.16338230074
2331.5,1064.76719921127
2331.75,1063.46857002652
2332,1062.8774223721
2332.25,1062.95590608031
2332.5,1062.83743026819
2332.75,1061.60128165276
2333,1058.32854509041
2333.25,1052.85193852486
2333.5,1046.91540244988
2333.75,1042.56216949875
2334,1041.83547230475
2334.25,1046.16234561859
2334.5,1053.81317888329
2334.75,1062.05026749627
2335,1068.13546509182
2335.25,1069.66892236339
2335.5,1067.19644322529
2335.75,1062.78104516632
2336,1058.49830002338
2336.25,1056.36200757695
2336.5,1056.77467691689
2336.75,1058.4139785446
2337,1059.87306830721
2337.25,1059.75205404753
2337.5,1057.52725104559
2337.75,1054.39586600923
2338,1051.7555264994
2338.25,1051.00385995809
2338.5,1052.96360606698
2338.75,1056.19863294904
2339,1058.71808143525
2339.25,1058.53109235659
2339.5,1054.10392909612
2339.75,1047.25994470443
2340,1041.31884294458
2340.25,1039.60720963712
2340.5,1045.19758415878
2340.75,1056.86997190006
2341,1069.82920233705
2341.25,1079.1710357073
2341.5,1080.09977413799
2341.75,1071.89293051302
2342,1059.03611721009
2342.25,1046.35477319214
2342.5,1038.67358301589
2342.75,1039.0898356973
2343,1045.2902254441
2343.25,1053.90494097933
2343.5,1061.56417102599
2343.75,1065.4989023567
2344,1065.94213585632
2344.25,1064.06261060108
2344.5,1061.02937132348
2344.75,1057.96648627607
2345,1055.49627799937
2345.25,1053.92711011188
2345.5,1053.56253460622
2345.75,1054.68824453746
2346,1057.02974111119
2346.25,1059.6540792058
2346.5,1061.59064285042
2346.75,1061.87246446014
2347,1060.12550362538
2347.25,1057.21935478752
2347.5,1054.18024775286
2347.75,1052.03441232768
2348,1051.55406489552
2348.25,1052.41346747073
2348.5,1053.99029439001
2348.75,1055.66221525449
2349,1056.84285390942
2349.25,1057.24241964931
2349.5,1056.71716814379
2349.75,1055.12437671958
2350,1052.33766884225
2350.25,1048.54140741673
2350.5,1044.19827345406
2350.75,1039.78078514698
2351,1035.76120876024
2351.25,1032.59589342275
2351.5,1030.71604448482
2351.75,1030.5506482423
2352,1032.52719222024
2352.25,1036.64638662506
2352.5,1041.89663737823
2352.75,1047.11955135693
2353,1051.15676487838
2353.25,1053.11797645191
2353.5,1053.03534922193
2353.75,1051.13932321675
2354,1047.66033846466
2354.25,1042.87959872693
2354.5,1037.40233168898
2354.75,1031.96114334238
2355,1027.28894366996
2355.25,1024.09846739009
2355.5,1022.86067878069
2355.75,1023.88705654601
2356,1027.48625931241
2356.25,1033.89096439117
2356.5,1041.96289669187
2356.75,1049.37423598954
2357,1053.75769147474
2357.25,1052.82593346762
2357.5,1046.85084467682
2357.75,1039.14194531083
2358,1033.18528358743
2358.25,1032.4546384873
2358.5,1038.34286210373
2358.75,1047.8326261735
2359,1057.34434265791
2359.25,1063.2991459779
2359.5,1063.38182135289
2359.75,1059.13872838858
2360,1052.85128896933
2360.25,1046.80092497947
2360.5,1042.92855994935
2360.75,1040.94762754119
2361,1039.67603862724
2361.25,1037.92926893802
2361.5,1034.66589444735
2361.75,1030.58379737773
2362,1027.54004983464
2362.25,1027.41277898882
2362.5,1031.98688648041
2362.75,1040.96720172294
2363,1052.01348987353
2363.25,1062.69929278507
2363.5,1070.6403318874
2363.75,1075.18766658124
2364,1078.00354610418
2364.25,1080.91054248914
2364.5,1085.73021207631
2364.75,1093.43511913155
2365,1102.6080078693
2365.25,1111.41418528324
2365.5,1118.01895836714
2365.75,1120.82038553603
2366,1120.06013626608
2366.25,1116.85709060451
2366.5,1112.33548205885
2366.75,1107.61622702338
2367,1103.56892356512
2367.25,1100.6401506841
2367.5,1099.23588377446
2367.75,1099.76209823028
2368,1102.35390086652
2368.25,1105.52322831325
2368.5,1107.18011015792
2368.75,1105.23358875819
2369,1097.68560612053
2369.25,1085.05058474224
2369.5,1070.583833135
2369.75,1057.67934900692
2370,1049.73090219448
2370.25,1048.79512575226
2370.5,1052.44065933687
2370.75,1057.29558754058
2371,1059.98799495566
2371.25,1057.71299470163
2371.5,1051.14805545233
2371.75,1042.2918031889
2372,1033.14538993069
2372.25,1025.60132564665
2372.5,1020.04125334416
2372.75,1015.73977261431
2373,1011.9460622934
2373.25,1007.93656754691
2373.5,1003.61854218792
2373.75,999.532101640934
2374,996.245038253702
2374.25,994.294870201219
2374.5,993.366944022023
2374.75,992.197636458134
2375,989.473620170378
2375.25,983.942773875252
2375.5,975.911414559438
2375.75,967.332922424191
2376,960.239625715061
2376.25,956.572604728332
2376.5,956.449424022734
2376.75,958.305056664829
2377,960.511469791028
2377.25,961.561792102808
2377.5,961.205041563496
2377.75,959.933454102609
2378,958.248961563952
2378.25,956.605082384002
2378.5,955.154441510334
2378.75,953.934242907407
2379,952.981453545976
2379.25,952.324448089688
2379.5,951.959511546692
2379.75,951.875439074805
2380,952.061062313354
2380.25,952.511971078985
2380.5,953.238380365445
2380.75,954.252415662794
2381,955.560941451451
2381.25,956.969801589578
2381.5,958.025714630899
2381.75,958.258281829146
2382,957.24590938448
2382.25,955.348938182788
2382.5,953.557214780713
2382.75,952.878454841401
2383,954.171422944915
2383.25,957.002678759915
2383.5,960.275218945177
2383.75,962.886609215108
2384,963.9536795842
2384.25,963.646857557346
2384.5,962.452643453322
2384.75,960.857555624283
2385,959.266266861728
2385.25,957.830818363967
2385.5,956.654660669697
2385.75,955.841890778043
2386,955.580505726514
2386.25,956.224595970907
2386.5,958.147781714674
2386.75,961.695661559839
2387,966.237861241043
2387.25,969.938126367068
2387.5,970.885553570548
2387.75,967.332714860723
2388,960.1929244315
2388.25,952.543401972038
2388.5,947.524142583896
2388.75,947.918881497482
2389,952.822003702414
2389.25,959.146149381065
2389.5,963.775556789457
2389.75,964.276682011886
2390,961.782905515604
2390.25,958.589477369507
2390.5,956.992160649395
2390.75,958.447073069947
2391,961.562438013388
2391.25,964.34325721901
2391.5,964.802012235772
2391.75,962.100278275224
2392,957.776379673428
2392.25,953.663107840043
2392.5,951.562340203001
2392.75,951.803934202015
2393,952.632615746227
2393.25,952.134894954815
2393.5,948.534152460599
2393.75,942.47304396853
2394,936.666860816169
2394.25,933.897916799107
2394.5,936.519162741233
2394.75,943.211160642108
2395,950.790644988003
2395.25,956.059742518579
2395.5,956.740272965197
2395.75,954.026329869549
2396,949.931317658032
2396.25,946.465186201116
2396.5,944.859586448257
2396.75,944.586563288973
2397,944.876450750774
2397.25,944.970153101197
2397.5,944.502288950206
2397.75,943.609189901641
2398,942.459756168816
2398.25,941.210650791044
2398.5,939.853876693823
2398.75,938.26349808895
2399,936.311013740202
2399.25,933.917507970915
2399.5,931.307980515045
2399.75,928.822518320982
2400,926.80137738037
2400.25,925.541324684322
2400.5,925.215573480773
2400.75,925.975543655164
2401,927.961722113067
2401.25,930.907574421771
2401.5,934.028013879614
2401.75,936.504303715104
2402,937.582193902961
2402.25,937.174530957936
2402.5,935.588332367283
2402.75,933.135734290309
2403,930.13766719109
2403.25,926.95576375432
2403.5,923.963423754579
2403.75,921.533258960034
2404,919.905640150761
2404.25,919.041492223377
2404.5,918.866234657072
2404.75,919.29061202587
2405,919.932955615087
2405.25,920.142244425006
2405.5,919.257404510595
2405.75,916.844360345618
2406,913.877070692403
2406.25,911.868624796664
2406.5,912.329928524686
2406.75,915.855478728767
2407,920.873793732007
2407.25,925.500541682959
2407.5,927.920158567874
2407.75,927.686968895083
2408,925.616941209436
2408.25,922.573117003744
2408.5,919.34599014055
2408.75,916.228668880372
2409,913.305653381172
2409.25,910.660843965108
2409.5,908.444350242867
2409.75,906.98369029888
2410,906.635784977316
2410.25,907.730751252715
2410.5,909.957227452539
2410.75,912.348175100508
2411,913.906911792731
2411.25,913.824347611058
2411.5,912.426025765756
2411.75,910.461895141544
2412,908.681656541692
2412.25,907.644870999134
2412.5,907.495859012591
2412.75,908.324123168306
2413,910.197361964157
2413.25,912.817400653123
2413.5,915.582667719086
2413.75,917.882420346447
2414,919.221353652974
2414.25,919.66442878209
2414.5,919.446340535063
2414.75,918.801976140341
2415,917.982653912714
2415.25,917.270427255628
2415.5,916.950721997228
2415.75,917.281358768525
2416,918.086350993852
2416.25,918.844824285142
2416.5,919.026376774828
2416.75,918.187321706694
2417,916.32563642294
2417.25,913.579557223782
2417.5,910.0896252531
2417.75,906.285863918983
2418,903.170217838375
2418.25,901.811716547579
2418.5,903.189839385681
2418.75,906.943056487859
2419,911.676977430712
2419.25,915.970611299221
2419.5,918.682390095027
2419.75,919.816210381513
2420,919.669449747183
2420.25,918.540579544017
2420.5,916.79635963261
2420.75,914.910962803177
2421,913.367987121502
2421.25,912.60955586438
2421.5,912.56879120534
2421.75,912.83720804791
2422,913.000003336993
2422.25,912.764317858789
2422.5,912.325240258839
2422.75,911.999889286299
2423,912.098890664056
2423.25,912.581228312444
2423.5,912.881604719362
2423.75,912.391965291418
2424,910.596311365983
2424.25,907.929246128773
2424.5,905.386291469467
2424.75,903.970175438423
2425,904.284597326558
2425.25,905.566854625678
2425.5,906.762008531878
2425.75,906.844396318042
2426,905.717384604218
2426.25,904.382490732444
2426.5,903.904629244004
2426.75,905.116611780298
2427,907.179182957224
2427.25,908.520283287469
2427.5,907.569329425247
2427.75,903.835875895306
2428,899.294103515579
2428.25,896.260318159818
2428.5,896.90466331865
2428.75,900.822549190174
2429,905.408222763326
2429.25,907.985058677388
2429.5,906.684576732801
2429.75,903.111773487138
2430,899.804659912573
2430.25,899.2690539354
2430.5,902.219833472963
2430.75,906.67428675354
2431,910.426574942314
2431.25,911.556346109595
2431.5,910.643928227641
2431.75,909.56399856208
2432,910.201383010544
2432.25,913.54698296124
2432.5,917.967273861265
2432.75,921.349570830881
2433,921.647306383562
2433.25,918.624975579539
2433.5,914.035838537302
2433.75,909.734910907573
2434,907.384410841527
2434.25,907.1072833533
2434.5,908.28912142268
2434.75,910.310889455635
2435,912.551585711532
2435.25,914.385009308725
2435.5,915.184109851955
2435.75,914.358617887534
2436,912.163445537133
2436.25,909.698253346444
2436.5,908.099396172463
2436.75,908.331912983123
2437,910.246283101983
2437.25,913.247139393101
2437.5,916.737528829063
2437.75,920.042488522941
2438,922.316972000055
2438.25,922.693521839136
2438.5,920.375082984513
2438.75,915.891152667813
2439,910.953050817221
2439.25,907.313432652566
2439.5,906.414485782042
2439.75,907.777272888517
2440,910.188909491448
2440.25,912.437914206543
2440.5,913.748443874246
2440.75,914.242911788077
2441,914.154611272536
2441.25,913.718219945433
2441.5,913.190833053958
2441.75,912.84771852647
2442,912.964667849053
2442.25,913.718657524336
2442.5,914.79032405235
2442.75,915.704801500686
2443,915.989683312014
2443.25,915.418762053339
2443.5,914.215615144033
2443.75,912.651746411083
2444,911.002248493906
2444.25,909.594169490758
2444.5,908.793679397514
2444.75,908.967905374327
2445,910.300572555351
2445.25,912.149186142558
2445.5,913.638693207277
2445.75,913.903378707234
2446,912.676297475491
2446.25,910.640965491882
2446.5,908.565330186748
2446.75,907.149024732158
2447,906.30264481939
2447.25,905.430148384714
2447.5,903.927173650075
2447.75,901.562171024967
2448,899.440505647644
2448.25,898.967107302643
2448.5,901.500449698803
2448.75,906.793863977758
2449,912.624818054868
2449.25,916.649174632419
2449.5,916.918180910143
2449.75,914.220171582901
2450,910.501406311906
2450.25,907.71050474434
2450.5,907.035852954362
2450.75,907.725571233673
2451,908.722708904621
2451.25,909.010273901441
2451.5,908.407346162076
2451.75,907.525423617668
2452,907.007224137721
2452.25,907.318326309229
2452.5,907.919890224769
2452.75,907.919483673245
2453,906.431502256745
2453.25,903.389576437311
2453.5,900.289884791417
2453.75,898.804214333451
2454,900.451669954613
2454.25,904.706948151445
2454.5,909.585401206459
2454.75,913.070916553879
2455,913.769639204802
2455.25,912.544852179387
2455.5,910.77146011687
2455.75,909.80697902272
2456,910.248786670912
2456.25,911.655167798429
2456.5,913.509512874991
2456.75,915.31784174156
2457,916.789379654926
2457.25,917.740689030088
2457.5,917.989361086176
2457.75,917.473821479648
2458,916.508030468054
2458.25,915.478689127522
2458.5,914.760493424031
2458.75,914.294696002984
2459,913.478008417239
2459.25,911.672554260345
2459.5,908.413959444745
2459.75,904.734222315329
2460,902.430028106004
2460.25,903.303295826537
2460.5,908.189921084784
2460.75,915.127951882576
2461,921.651829855952
2461.25,925.371495729975
2461.5,925.659868712623
2461.75,923.667695293822
2462,920.624190877864
2462.25,917.669272315393
2462.5,915.284590075374
2462.75,913.657423828965
2463,912.973575746472
2463.25,913.33690460816
2463.5,914.622124263951
2463.75,916.664201790938
2464,919.288129283192
2464.25,922.052076292164
2464.5,924.224794551043
2464.75,925.060532392164
2465,923.9784914848
2465.25,921.629310170656
2465.5,919.220421684906
2465.75,917.961619252163
2466,918.524041242486
2466.25,919.963648081056
2466.5,921.034933325795
2466.75,920.527114099306
2467,918.399969613065
2467.25,916.037584155011
2467.5,914.910127350957
2467.75,916.260818578468
2468,919.296666241691
2468.25,922.149858292916
2468.5,922.943193294884
2468.75,920.540626863922
2469,916.135076049085
2469.25,911.375735564778
2469.5,907.894066083387
2469.75,906.584999095056
2470,907.35850084062
2470.25,910.055796706029
2470.5,914.413199516051
2470.75,919.262966630507
2471,922.975680833574
2471.25,923.91900487816
2471.5,921.281752754616
2471.75,916.629240217967
2472,911.954215829404
2472.25,909.219274954154
2472.5,909.30030615099
2472.75,911.709089376734
2473,915.870870539341
2473.25,921.126401167062
2473.5,926.134978078003
2473.75,929.226649840358
2474,928.730186244814
2474.25,923.969757527208
2474.5,917.183616955475
2474.75,911.140489267065
2475,908.558866820891
2475.25,910.072604524269
2475.5,913.528690644923
2475.75,916.579713862139
2476,917.154375648885
2476.25,915.559699907401
2476.5,913.316826231146
2476.75,911.956348445555
2477,912.44776583626
2477.25,914.019061651754
2477.5,915.561343333824
2477.75,915.992325900416
2478,915.06863211522
2478.25,913.535398485886
2478.5,912.194543110408
2478.75,911.756131184558
2479,912.189733773112
2479.25,913.107274323091
2479.5,914.118490964425
2479.75,914.929386705519
2480,915.511760926535
2480.25,915.882899635919
2480.5,916.058981628081
2480.75,916.026625023182
2481,915.740415841069
2481.25,915.15333760316
2481.5,914.279968278417
2481.75,913.582510704042
2482,913.720860016843
2482.25,915.354681312868
2482.5,918.608391273605
2482.75,922.211613398762
2483,924.669647745514
2483.25,924.545516039462
2483.5,921.826223839199
2483.75,917.978460072199
2484,914.537780383026
2484.25,912.867459531198
2484.5,912.995707054117
2484.75,914.327283444396
2485,916.263381031788
2485.25,918.17319332415
2485.5,919.338610868214
2485.75,919.026772713086
2486,916.54362692644
2486.25,912.2516157048
2486.5,907.66964017017
2486.75,904.375454662146
2487,903.726281811317
2487.25,905.414366699753
2487.5,908.37174284656
2487.75,911.527601590217
2488,914.114879795498
2488.25,916.088762456797
2488.5,917.509459342736
2488.75,918.434675644725
2489,918.872635648474
2489.25,918.78621508575
2489.5,918.136613552363
2489.75,916.952031558197
2490,915.668674941188
2490.25,914.876327922185
2490.5,915.163125317891
2490.75,916.647776425742
2491,918.370165354438
2491.25,919.219198077314
2491.5,918.140167027019
2491.75,915.211924706881
2492,911.562948283214
2492.25,908.361283149352
2492.5,906.598315414281
2492.75,906.162810356209
2493,906.51891517741
2493.25,907.131735921499
2493.5,907.769507951523
2493.75,908.837360674848
2494,910.820802405868
2494.25,914.143816902524
2494.5,918.285848697045
2494.75,921.986787168965
2495,923.966764695697
2495.25,923.344303897401
2495.5,921.114694328577
2495.75,918.825366926633
2496,918.016698083694
2496.25,919.362732879319
2496.5,921.853067389264
2496.75,924.283499158084
2497,925.504142457953
2497.25,925.254543580012
2497.5,924.000410137472
2497.75,922.228690711168
2498,920.407769062964
2498.25,918.898491568555
2498.5,918.023076302126
2498.75,918.102665891995
2499,919.209478245886
2499.25,920.843963560073
2499.5,922.426603522838
2499.75,923.398300356363
2500,923.632833022251
2500.25,923.417351370961
2500.5,923.055522016663
2500.75,922.796581452271
2501,922.519096263801
2501.25,921.947105396027
2501.5,920.804565973101
2501.75,919.075936537421
2502,917.447470185479
2502.25,916.722407304068
2502.5,917.674623513416
2502.75,920.211853406478
2503,923.254244650546
2503.25,925.668159792394
2503.5,926.437793883988
2503.75,925.471076191071
2504,923.111592762428
2504.25,919.705539409112
2504.5,915.721556848951
2504.75,912.01666870622
2505,909.524724720747
2505.25,909.15471609035
2505.5,910.836581222864
2505.75,913.221051510421
2506,914.872620077309
2506.25,914.550848025019
2506.5,912.647772192044
2506.75,910.369067141495
2507,908.926029469673
2507.25,909.101804494899
2507.5,910.414184095459
2507.75,912.148328131436
2508,913.601881531221
2508.25,914.411500101181
2508.5,914.584435957819
2508.75,914.146759090966
2509,913.165828465176
2509.25,912.000908406146
2509.5,911.137086875072
2509.75,911.059385260621
2510,912.034139108122
2510.25,913.778061321312
2510.5,915.922885907642
2510.75,918.100244527678
2511,919.939561943151
2511.25,921.068134761112
2511.5,921.113172997085
2511.75,919.829132655599
2512,917.783607545388
2512.25,915.864182097969
2512.5,914.957598686097
2512.75,915.362409288879
2513,915.915905331125
2513.25,915.232306557632
2513.5,911.999041794055
2513.75,906.571715256892
2514,900.96546724154
2514.25,897.266919247271
2514.5,897.185331755052
2514.75,900.018999654136
2515,904.117613076843
2515.25,907.833731712305
2515.5,910.095615756392
2515.75,910.925263197845
2516,910.467001460665
2516.25,908.872434086646
2516.5,906.390061004772
2516.75,903.337286547881
2517,900.03298799329
2517.25,897.379047911901
2517.5,898.679860574133
2517.75,907.858600236627
2518,928.711111459274
2518.25,959.780811347828
2518.5,992.607701988111
2518.75,1018.24514543587
2519,1028.68753616528
2519.25,1025.17937977206
2519.5,1014.21786336904
2519.75,1002.36055048804
2520,995.800045034709
2520.25,995.719659671334
2520.5,999.665197198612
2520.75,1005.10069399794
2521,1009.6163989622
2521.25,1012.50842602764
2521.5,1014.29850408722
2521.75,1015.53522095446
2522,1016.72974252186
2522.25,1017.82924921426
2522.5,1018.34468738786
2522.75,1017.77566131823
2523,1015.6785709079
2523.25,1012.7279802888
2523.5,1010.62112289239
2523.75,1011.09288106386
2524,1015.78512191079
2524.25,1023.81873450209
2524.5,1031.56140725779
2524.75,1035.24125576036
2525,1031.19132025011
2525.25,1019.49992511484
2525.5,1004.95424484007
2525.75,992.638069095498
2526,987.600768982477
2526.25,991.693402244556
2526.5,1001.01726057371
2526.75,1011.07321948109
2527,1017.40132342028
2527.25,1018.01525276483
2527.5,1014.83557382542
2527.75,1010.12757816859
2528,1006.14719868839
2528.25,1004.14499704775
2528.5,1003.48380050149
2528.75,1003.31833184313
2529,1002.80630080754
2529.25,1001.52993364826
2529.5,999.932255930192
2529.75,998.560459170322
2530,997.958949341162
2530.25,998.220599041335
2530.5,998.49181206407
2530.75,997.799873464316
2531,995.177407440296
2531.25,990.448854142865
2531.5,985.061885680444
2531.75,980.663173040028
2532,978.891995696464
2532.25,980.460657071657
2532.5,984.263327601624
2532.75,988.982778929194
2533,993.309431251617
2533.25,996.402320833844
2533.5,998.15247357979
2533.75,998.514545451265
2534,997.452327179015
2534.25,995.378222074783
2534.5,993.348121375438
2534.75,992.467623135722
2535,993.819127753938
2535.25,997.403606506515
2535.5,1001.70345092626
2535.75,1005.08725364845
2536,1005.95279866497
2536.25,1003.84273748824
2536.5,999.792787439073
2536.75,994.939039810748
2537,990.408003880162
2537.25,986.890873818265
2537.5,984.474067207021
2537.75,983.199374604594
2538,983.108756221322
2538.25,984.250519023627
2538.5,986.681073705931
2538.75,990.457358600939
2539,995.609700977237
2539.25,1001.4766185756
2539.5,1006.65737709239
2539.75,1009.71512956862
2540,1009.2869965533
2540.25,1005.69074550135
2540.5,1000.9134222065
2540.75,997.013766224232
2541,995.987576269911
2541.25,998.09337233467
2541.5,1001.67440377592
2541.75,1004.97527452669
2542,1006.2975051823
2542.25,1005.39292234635
2542.5,1003.54674496173
2542.75,1002.11774206755
2543,1002.44072396266
2543.25,1005.16170406486
2543.5,1010.15138395639
2543.75,1017.23912751864
2544,1026.23909031667
2544.25,1036.50963080507
2544.5,1046.88524985912
2544.75,1056.17154524185
2545,1063.18107669391
2545.25,1067.07687757139
2545.5,1067.52971912936
2545.75,1064.25014853633
2546,1056.94950421992
2546.25,1046.0615131775
2546.5,1034.07600558728
2546.75,1023.84618631983
2547,1018.22526024567
2547.25,1019.48817246212
2547.5,1026.61275660073
2547.75,1037.41002461028
2548,1049.68963407527
2548.25,1061.2479953565
2548.5,1069.78693582294
2548.75,1072.96715645798
2549,1068.44918988894
2549.25,1054.23757542057
2549.5,1033.42726727802
2549.75,1013.00290982782
2550,1000.0475474226
2550.25,1001.53302747271
2550.5,1018.36486799463
2550.75,1042.37833031928
2551,1064.66605251723
2551.25,1076.42178770781
2551.5,1074.20566850747
2551.75,1062.51612629478
2552,1046.49194089146
2552.25,1031.27172271784
2552.5,1020.79214851677
2552.75,1014.90994812085
2553,1012.61696601693
2553.25,1012.90504669189
2553.5,1014.80650811074
2553.75,1017.55538907431
2554,1020.44844964253
2554.25,1022.78246971868
2554.5,1023.87920769806
2554.75,1023.20631719204
2555,1020.28426967652
2555.25,1014.63360958247
2555.5,1006.0378218791
2555.75,996.333658254517
2556,988.323016391888
2556.25,984.813395092951
2556.5,988.164750054318
2556.75,996.584379573101
2557,1006.02717321284
2557.25,1012.42571235946
2557.5,1012.31201330384
2557.75,1006.77853365088
2558,999.013834837009
2558.25,992.217534868954
2558.5,989.242739913016
2558.75,989.81362353619
2559,991.994106200901
2559.25,993.83284951872
2559.5,993.617310247921
2559.75,991.548351022545
2560,988.746218783454
2560.25,986.336998860769
2560.5,985.254372860822
2560.75,985.005798934889
2561,984.457834881177
2561.25,982.473979577685
2561.5,978.270626730764
2561.75,973.255886863989
2562,969.678049837632
2562.25,969.787122800683
2562.5,975.137118589473
2562.75,983.815376997863
2563,992.832003225658
2563.25,999.196845668115
2563.5,1000.81050465316
2563.75,998.667749810549
2564,994.434757991357
2564.25,989.777673716109
2564.5,986.082400069226
2564.75,983.77296993502
2565,983.067213238902
2565.25,984.182830707345
2565.5,987.11664856612
2565.75,991.192016554983
2566,995.604379522308
2566.25,999.549018696146
2566.5,1002.15440692578
2566.75,1002.37980924775
2567,999.158107369645
2567.25,991.425562937356
2567.5,979.4090602395
2567.75,966.566942252708
2568,956.85510686354
2568.25,954.220643323127
2568.5,960.400764711459
2568.75,972.022322613817
2569,984.99194484693
2569.25,995.259537849858
2569.5,1000.78238150806
2569.75,1002.33068975202
2570,1000.88483879088
2570.25,997.43295617367
2570.5,993.258708977598
2570.75,990.02636200011
2571,989.425284929966
2571.25,993.09304933293
2571.5,1000.73804333891
2571.75,1009.61037754558
2572,1016.80059326475
2572.25,1019.46069289663
2572.5,1016.61755134953
2572.75,1009.47182872763
2573,999.345839160546
2573.25,987.56678011255
2573.5,975.694120595359
2573.75,965.616196231467
2574,959.246280323088
2574.25,958.470415881533
2574.5,964.1122598692
2574.75,975.613184873947
2575,992.321960720309
2575.25,1013.4780530695
2575.5,1036.4541223088
2575.75,1057.05744156744
2576,1071.04685002484
2576.25,1074.43966862143
2576.5,1067.74176550768
2576.75,1055.26222382209
2577,1041.43036146163
2577.25,1030.6547694835
2577.5,1025.2212322608
2577.75,1023.48516990439
2578,1023.37617567234
2578.25,1022.82478713982
2578.5,1020.31363806498
2578.75,1015.80513927273
2579,1009.50702862556
2579.25,1001.62707355892
2579.5,992.780880059035
2579.75,985.016163395097
2580,980.694809388913
2580.25,982.178657666283
2580.5,990.68634457744
2580.75,1003.32545501748
2581,1016.27980478643
2581.25,1025.73448032428
2581.5,1029.25693528303
2581.75,1028.43244248441
2582,1025.57215252055
2582.25,1022.98721568519
2582.5,1022.2877278297
2582.75,1022.34260691577
2583,1021.35088368902
2583.25,1017.51158889507
2583.5,1009.63264349965
2583.75,999.662549583558
2584,990.559439342308
2584.25,985.281921837703
2584.5,986.129924286355
2584.75,991.216212978194
2585,997.013693176825
2585.25,999.991443751488
2585.5,997.482185357564
2585.75,991.38223727027
2586,985.089727734588
2586.25,982.003694699352
2586.5,984.760738728264
2586.75,991.968922309013
2587,1000.91066880493
2587.25,1008.86759914059
2587.5,1013.6681677788
2587.75,1015.46558040373
2588,1015.03071588786
2588.25,1013.13445797211
2588.5,1010.63006884443
2588.75,1008.76105479705
2589,1008.88636385855
2589.25,1012.36496153133
2589.5,1020.02516899931
2589.75,1029.75180734688
2590,1038.41488218975
2590.25,1042.88344969777
2590.5,1040.69967676077
2590.75,1033.79111874494
2591,1025.84184151078
2591.25,1020.54058703016
2591.5,1021.22573707014
2591.75,1027.1792821723
2592,1035.07402167125
2592.25,1041.53961905501
2592.5,1043.43450198896
2592.75,1041.21092483864
2593,1038.17774004497
2593.25,1037.72267792449
2593.5,1043.14011645068
2593.75,1054.41319300314
2594,1067.39896384627
2594.25,1077.69568808964
2594.5,1080.92502404471
2594.75,1075.38206824575
2595,1064.47131808198
2595.25,1052.17291356011
2595.5,1042.46699468688
2595.75,1038.49703115621
2596,1039.29880752917
2596.25,1042.64956268878
2596.5,1046.32620879316
2596.75,1048.29145590944
2597,1048.05223132851
2597.25,1045.88068796999
2597.5,1042.05446340732
2597.75,1036.87737183633
2598,1031.08482336836
2598.25,1025.76614844167
2598.5,1022.02112702097
2598.75,1020.91605040909
2599,1022.33017068269
2599.25,1024.66406052616
2599.5,1026.22559205283
2599.75,1025.34410932493
2600,1021.6499032379
2600.25,1016.79702819449
2600.5,1012.61448130719
2600.75,1010.92479748928
2601,1012.56676525146
2601.25,1016.34908607257
2601.5,1020.82962528296
2601.75,1024.56772362818
2602,1026.50977809628
2602.25,1026.5054418672
2602.5,1024.53298109798
2602.75,1020.57081787455
2603,1014.89096058895
2603.25,1008.66888621462
2603.5,1003.25329995025
2603.75,999.992906962362
2604,999.755843559264
2604.25,1001.51133023962
2604.5,1003.75962766156
2604.75,1005.00099651227
2605,1004.1633739779
2605.25,1001.86449766234
2605.5,999.139392591775
2605.75,997.023083792353
2606,996.289147125725
2606.25,996.614332634266
2606.5,997.38781023534
2606.75,997.998748748218
2607,997.981874133652
2607.25,997.460913801959
2607.5,996.708558396939
2607.75,995.997498560569
2608,995.456901633214
2608.25,994.648975155615
2608.5,992.995947966446
2608.75,989.920052374016
2609,985.291079745843
2609.25,980.66388605754
2609.5,977.989828023658
2609.75,979.220087228373
2610,985.350550438348
2610.25,994.185282496417
2610.5,1002.86251899362
2610.75,1008.52285460906
2611,1009.47523719779
2611.25,1007.08226705867
2611.5,1003.19924401236
2611.75,999.6808473746
2612,997.78071549259
2612.25,997.029362344714
2612.5,996.650446750361
2612.75,995.867992482397
2613,994.259332274328
2613.25,992.414632276281
2613.5,991.104411945704
2613.75,991.098374091176
2614,992.614122760806
2614.25,994.358470585517
2614.5,994.782140957376
2614.75,992.33873930582
2615,986.495493764016
2615.25,979.220941745727
2615.5,972.862645849471
2615.75,969.763412657773
2616,971.152228564712
2616.25,975.719052239699
2616.5,981.801775761883
2616.75,987.746326487263
2617,992.462358365004
2617.25,995.783768789375
2617.5,997.630165761794
2617.75,997.924549628884
2618,996.750207246433
2618.25,994.41675436516
2618.5,991.25090244487
2618.75,987.585158703114
2619,984.012212361526
2619.25,981.484421598206
2619.5,980.980494025733
2619.75,983.439670186439
2620,988.437158037733
2620.25,993.868883677764
2620.5,997.527400599551
2620.75,997.29936103789
2621,993.31423130336
2621.25,987.988814550483
2621.5,983.842918307771
2621.75,983.291837513678
2622,986.352577181127
2622.25,990.646903783122
2622.5,993.692681480042
2622.75,993.150833731339
2623,989.114480348115
2623.25,983.710384524254
2623.5,979.12785698727
2623.75,977.435437640246
2624,978.840041324236
2624.25,982.087085665814
2624.5,985.882714915201
2624.75,988.984983358152
2625,990.725966148692
2625.25,990.794561166724
2625.5,988.885034664898
2625.75,984.831360636557
2626,979.756827908601
2626.25,975.481010725944
2626.5,973.830279182246
2626.75,976.29434183871
2627,981.713739114359
2627.25,987.675571466833
2627.5,991.759464474481
2627.75,991.988194055666
2628,988.896915650168
2628.25,983.905108118387
2628.5,978.433233467025
2628.75,973.77170929536
2629,970.542323123681
2629.25,969.15257194269
2629.5,970.009854930567
2629.75,973.190036186269
2630,977.461287529654
2630.25,981.269405740824
2630.5,983.061148051202
2630.75,981.984219674073
2631,979.124603908887
2631.25,975.900515893734
2631.5,973.727707845985
2631.75,973.447914908033
2632,974.595698421557
2632.25,976.524574753384
2632.5,978.59239150388
2632.75,980.501123974134
2633,982.541227999615
2633.25,985.060815920384
2633.5,988.392901707657
2633.75,992.227036038634
2634,995.382639732283
2634.25,996.617403781824
2634.5,994.73407134756
2634.75,989.958765396426
2635,984.196509991094
2635.25,979.448922718428
2635.5,977.661663425719
2635.75,979.156029601691
2636,982.41599418543
2636.25,985.826777194496
2636.5,987.833845867833
2636.75,988.034905335716
2637,987.063432299771
2637.25,985.589774474564
2637.5,984.250788289802
2637.75,983.167733118257
2638,982.057428324403
2638.25,980.62584511915
2638.5,978.620515014399
2638.75,976.297116987702
2639,974.251446802993
2639.25,973.085546974874
2639.5,973.328436705736
2639.75,974.835951947399
2640,977.100695341698
2640.25,979.611734655133
2640.5,981.861287805514
2640.75,983.362022239569
2641,983.634769283223
2641.25,982.200381589249
2641.5,978.802641005979
2641.75,974.316694138446
2642,969.975720194523
2642.25,967.01303941492
2642.5,966.232862429009
2642.75,966.686344428433
2643,966.977028052329
2643.25,965.709623966917
2643.5,962.33602280124
2643.75,958.648762068044
2644,956.841215957697
2644.25,959.090743165908
2644.5,965.832712372604
2644.75,974.21983924657
2645,981.04134784155
2645.25,983.159041011178
2645.5,979.826472335065
2645.75,973.176164247348
2646,965.51171286071
2646.25,959.082558190459
2646.5,954.875144598159
2646.75,952.603174765065
2647,951.924246033651
2647.25,952.497692219498
2647.5,954.004378885754
2647.75,956.139729707097
2648,958.599442782977
2648.25,961.03077695887
2648.5,962.766718762927
2648.75,963.014854657477
2649,960.982444531676
2649.25,956.275978653965
2649.5,950.074530080035
2649.75,943.944325334377
2650,939.450329734088
2650.25,937.690688501748
2650.5,938.601071552817
2650.75,941.939227645223
2651,947.450855270782
2651.25,954.416403120532
2651.5,961.5137911664
2651.75,967.380856650733
2652,970.734300858526
2652.25,971.377257542155
2652.5,969.903768003232
2652.75,966.925758837032
2653,963.041119960806
2653.25,958.7235971252
2653.5,954.382168931471
2653.75,950.425252943694
2654,947.231451035502
2654.25,945.008557857774
2654.5,943.903650235353
2654.75,944.063641863297
2655,945.423399819584
2655.25,947.252054012571
2655.5,948.688424280355
2655.75,948.879999901167
2656,947.617277386652
2656.25,945.765310426768
2656.5,944.291332388541
2656.75,944.133254227734
2657,945.583121200126
2657.25,948.302586603116
2657.5,951.927076641669
2657.75,956.031984300662
2658,959.640060248297
2658.25,961.476205264604
2658.5,960.262432773655
2658.75,955.234372721248
2659,948.231112959959
2659.25,941.914666913761
2659.5,938.946919787507
2659.75,940.940088064802
2660,946.211934436095
2660.25,952.43558615733
2660.5,957.298423677275
2660.75,959.394092223368
2661,958.751129154051
2661.25,955.525099626709
2661.5,949.912988252835
2661.75,943.058170669089
2662,937.04695074318
2662.25,934.006359235147
2662.5,935.813266701598
2662.75,941.664136550392
2663,949.128458768652
2663.25,955.752854536949
2663.5,959.514488743209
2663.75,960.371160194848
2664,958.84985328544
2664.25,955.477732813478
2664.5,950.86794692192
2664.75,945.868141587453
2665,941.36556905592
2665.25,938.238605690029
2665.5,936.708452393938
2665.75,935.8987238943
2666,934.828745853331
2666.25,932.566948546676
2666.5,929.08630440968
2666.75,925.154648462903
2667,921.56686946942
2667.25,919.014661806914
2667.5,917.459344676348
2667.75,916.547104736021
2668,915.923161277445
2668.25,915.413999641833
2668.5,915.340338858762
2668.75,916.106350859803
2669,918.106721830708
2669.25,921.478197852982
2669.5,926.075342640105
2669.75,931.73837344009
2670,938.167938353852
2670.25,944.025194688679
2670.5,947.502252882338
2670.75,946.789156047119
2671,940.988846203749
2671.25,932.2059041781
2671.5,923.160922785852
2671.75,916.55978138631
2672,913.73343074848
2672.25,913.53676001467
2672.5,914.565532633562
2672.75,915.477793453771
2673,915.842913013541
2673.25,915.921419060772
2673.5,915.991028779532
2673.75,916.246663768349
2674,916.493345230852
2674.25,916.421426798828
2674.5,915.725982412689
2674.75,914.529195396022
2675,913.713971957837
2675.25,914.241728709942
2675.5,916.959478241641
2675.75,921.117063351411
2676,924.790943846348
2676.25,926.030467032835
2676.5,923.510545676578
2676.75,918.746876932338
2677,914.061129724334
2677.25,911.762893345611
2677.5,912.747058539685
2677.75,915.189242517493
2678,916.956546499545
2678.25,916.069770368028
2678.5,912.797571968628
2678.75,909.112834168625
2679,907.030792530916
2679.25,908.043420853313
2679.5,911.119308119863
2679.75,914.467370554823
2680,916.312096769415
2680.25,916.003178345887
2680.5,914.747748196413
2680.75,913.926746717523
2681,914.817523229235
2681.25,917.397467387617
2681.5,920.757479523818
2681.75,923.971380873397
2682,926.261960854229
2682.25,927.466259425296
2682.5,927.579614452383
2682.75,926.59789920214
2683,924.560519505284
2683.25,921.581898265495
2683.5,917.78388123501
2683.75,913.3072594493
2684,908.59273546113
2684.25,904.320589107174
2684.5,901.177787502116
2684.75,899.691331049148
2685,899.578842298969
2685.25,900.302560450375
2685.5,901.32729862132
2685.75,902.297410336917
2686,903.1472276559
2686.25,903.837445304476
2686.5,904.365210213866
2686.75,905.086152526713
2687,906.559541986651
2687.25,909.346716051244
2687.5,913.622362463487
2687.75,918.405550449833
2688,922.500386597912
2688.25,924.737005353616
2688.5,924.66615832104
2688.75,922.634295948252
2689,919.028959135457
2689.25,914.299603323397
2689.5,909.406666518925
2689.75,905.562311809069
2690,903.980074903408
2690.25,905.259663773583
2690.5,908.14488687761
2690.75,911.030160236973
2691,912.3516120327
2691.25,911.611183226988
2691.5,909.439341175799
2691.75,906.520820971886
2692,903.55617438275
2692.25,901.352175825698
2692.5,900.759331613377
2692.75,902.624575388638
2693,907.066756715632
2693.25,912.607904229754
2693.5,917.558204639401
2693.75,920.326145801647
2694,920.80193059981
2694.25,920.021957988014
2694.5,919.052434534054
2694.75,918.739055840269
2695,918.81258616332
2695.25,918.65223443331
2695.5,917.639739474287
2695.75,915.491509129721
2696,912.580768444699
2696.25,909.357170046577
2696.5,906.268851827447
2696.75,903.738799512975
2697,902.16928008042
2697.25,901.961942919342
2697.5,903.405556430213
2697.75,906.251746767542
2698,910.092540323882
2698.25,914.518994104939
2698.5,919.065936069181
2698.75,923.181253194338
2699,926.305378624947
2699.25,927.931787397158
2699.5,928.136904763334
2699.75,927.357862419711
2700,926.037148722431
2700.25,924.530117820653
2700.5,922.815636701252
2700.75,920.770911577791
2701,918.275251478292
2701.25,915.417943529521
2701.5,912.674032713557
2701.75,910.559955219839
2702,909.548364637906
2702.25,909.441881398525
2702.5,909.519596404551
2702.75,909.046678988879
2703,907.549294909668
2703.25,905.750983715071
2703.5,904.718447410515
2703.75,905.50442967925
2704,908.224501756241
2704.25,911.482301770821
2704.5,913.744220550479
2704.75,913.643610413412
2705,911.547139642701
2705.25,908.8484570592
2705.5,906.954623170005
2705.75,906.767138760697
2706,907.406485707964
2706.25,907.601152542538
2706.5,906.111512925894
2706.75,902.837900190834
2707,899.106334943728
2707.25,896.332766063327
2707.5,895.717022099207
2707.75,896.790378574292
2708,898.307424791838
2708.25,899.020625066481
2708.5,898.134574563793
2708.75,895.855631543981
2709,892.524621018101
2709.25,888.523464311456
2709.5,884.833435219834
2709.75,882.88935437858
2710,884.137217908985
2710.25,889.322685477082
2710.5,896.724989641024
2710.75,904.080684288382
2711,909.221147789331
2711.25,912.093106361666
2711.5,914.72281080944
2711.75,919.224171111847
2712,927.102513816823
2712.25,936.348079430014
2712.5,943.691889720675
2712.75,945.87317789778
2713,941.750550757239
2713.25,934.92995852204
2713.5,929.662612683876
2713.75,930.092041740768
2714,936.515545382466
2714.25,944.42226021257
2714.5,948.9982429167
2714.75,946.0106190655
2715,937.254025228303
2715.25,928.092145064307
2715.5,923.935303416788
2715.75,929.164581856966
2716,942.6390092378
2716.25,961.373580102519
2716.5,982.383098322368
2716.75,1002.89694165099
2717,1020.61436705557
2717.25,1033.296857867
2717.5,1038.73146773203
2717.75,1036.77121466622
2718,1030.82156282523
2718.25,1024.63850795274
2718.5,1021.9751325952
2718.75,1025.10091513293
2719,1032.39082505846
2719.25,1041.58849945337
2719.5,1050.43764159097
2719.75,1057.15504922916
2720,1061.56410649346
2720.25,1063.82891378411
2720.5,1064.11357150137
2720.75,1062.51743222851
2721,1058.73731315853
2721.25,1052.31557798932
2721.5,1042.79427284517
2721.75,1029.94758757115
2722,1017.03990458036
2722.25,1010.03089670246
2722.5,1014.9500636859
2722.75,1037.41582498221
2723,1070.73446988959
2723.25,1094.06628459014
2723.5,1085.79148238538
2723.75,1024.76450373116
2724,915.71061107874
2724.25,802.036291354266
2724.5,730.315003235251
2724.75,747.069614479321
2725,868.881867322088
2725.25,1031.93907250479
2725.5,1159.18262334387
2725.75,1202.34120071306
2726,1180.54059706777
2726.25,1122.53811483989
2726.5,1057.09105646128
2726.75,1011.46982785136
2727,991.95902998182
2727.25,989.310680238791
2727.5,993.911594340124
2727.75,996.369542997041
2728,993.141396229717
2728.25,986.993993066261
2728.5,981.007467707256
2728.75,978.164300191871
2729,979.057142010674
2729.25,981.806097643067
2729.5,984.417067709574
2729.75,984.982531307647
2730,983.051920383737
2730.25,979.385022290815
2730.5,974.778351143355
2730.75,969.989008762632
2731,965.25112926064
2731.25,960.427890067072
2731.5,955.37458708442
2731.75,949.99476224612
2732,944.627613382693
2732.25,939.843504792924
2732.5,936.214925405275
2732.75,934.146169508211
2733,933.193374976554
2733.25,932.645933884886
2733.5,931.794172502779
2733.75,930.218797190985
2734,928.187726455875
2734.25,926.068281801053
2734.5,924.226680518974
2734.75,922.996799240244
2735,922.675769477728
2735.25,923.558733137827
2735.5,925.819221046197
2735.75,928.576211676272
2736,930.40735603808
2736.25,929.885975452399
2736.5,926.250529946901
2736.75,920.995636909939
2737,916.093830244025
2737.25,913.495496971897
2737.5,913.839464281998
2737.75,915.741500493377
2738,917.644494552953
2738.25,918.122646800116
2738.5,917.209385218905
2738.75,915.848587928899
2739,914.997973790602
2739.25,915.374318207029
2739.5,916.751204878935
2739.75,918.671455691862
2740,920.677792067339
2740.25,922.307468886237
2740.5,923.089575784061
2740.75,922.552534802173
2741,920.316409074091
2741.25,917.06438171789
2741.5,914.164472858876
2741.75,912.996069631959
2742,914.515481696816
2742.25,917.878039267
2742.5,921.759938216392
2742.75,924.847193721242
2743,926.441744631883
2743.25,926.815783630277
2743.5,926.326813031383
2743.75,925.317996554003
2744,923.942453236852
2744.25,922.21860472845
2744.5,920.162016358746
2744.75,917.82436391418
2745,915.437073897974
2745.25,913.287394740124
2745.5,911.661989377942
2745.75,910.77261451836
2746,910.684482478289
2746.25,911.445818918076
2746.5,913.090641563694
2746.75,915.439840447755
2747,918.149965479123
2747.25,920.87332331087
2747.5,923.240051036389
2747.75,924.777663634096
2748,924.984003286123
2748.25,923.363362594649
2748.5,920.081309555321
2748.75,916.527942009429
2749,914.226051376027
2749.25,914.591933573028
2749.5,917.25309899501
2749.75,920.352785253507
2750,921.989302624021
2750.25,920.84138700033
2750.5,918.582926426098
2750.75,917.851119490876
2751,921.272524130459
2751.25,929.774301018095
2751.5,940.771500095794
2751.75,951.244458433888
2752,958.288411588693
2752.25,961.133567027561
2752.5,960.896169697025
2752.75,958.75733614004
2753,955.841819166968
2753.25,952.74518733387
2753.5,949.773254560521
2753.75,947.228873336011
2754,945.400888700013
2754.25,944.501342739075
2754.5,944.716090325611
2754.75,946.23084928781
2755,949.106440520151
2755.25,953.040678094368
2755.5,957.665794218476
2755.75,962.609714432096
2756,967.222847211698
2756.25,970.414081671663
2756.5,971.052966324934
2756.75,968.065933967384
2757,961.822133332424
2757.25,954.212284285941
2757.5,947.199776018034
2757.75,942.679539566839
2758,941.520647766282
2758.25,943.801686926126
2758.5,949.580864259585
2758.75,958.681345680501
2759,969.294734967442
2759.25,978.920713574857
2759.5,985.056461820637
2759.75,985.975926424539
2760,982.91748525803
2760.25,977.826587893336
2760.5,972.648545966014
2760.75,968.933312972833
2761,966.969053275015
2761.25,966.792752348493
2761.5,968.439910265006
2761.75,971.554633913203
2762,974.86684276245
2762.25,976.976156838913
2762.5,976.496103297344
2762.75,973.02071012264
2763,967.754315406481
2763.25,962.050928382046
2763.5,957.248862265998
2763.75,954.089584768611
2764,952.546868873377
2764.25,952.543941481178
2764.5,953.981265354047
2764.75,956.371107242975
2765,958.900529085319
2765.25,960.746550852153
2765.5,961.216820204443
2765.75,960.734182206054
2766,960.286600315126
2766.25,960.866443827792
2766.5,963.117214254821
2766.75,965.8622217177
2767,967.333083575946
2767.25,965.761318350107
2767.5,960.222159372106
2767.75,952.54676165981
2768,945.128070730496
2768.25,940.354600653734
2768.5,939.720107870511
2768.75,942.743548400595
2769,948.679978833488
2769.25,956.765613047572
2769.5,965.651196622148
2769.75,973.302501674115
2770,977.646402739334
2770.25,976.801368876878
2770.5,971.458191690325
2770.75,964.147263434805
2771,957.43884348229
2771.25,953.620293055896
2771.5,952.215537935131
2771.75,951.187010659591
2772,948.479473015713
2772.25,942.580982122946
2772.5,934.991274118092
2772.75,928.247750669718
2773,924.887949256527
2773.25,926.347734229789
2773.5,930.789307368175
2773.75,935.769583863463
2774,938.877619141042
2774.25,938.951909620126
2774.5,936.454013638176
2774.75,931.953960876381
2775,926.064764923589
2775.25,919.934511766758
2775.5,915.074075747018
2775.75,913.00121895039
2776,914.687685861803
2776.25,918.393179028085
2776.5,921.536964924383
2776.75,921.557415093453
2777,917.727418518101
2777.25,912.637784349784
2777.5,909.228427062921
2777.75,910.239777363622
2778,915.281889910207
2778.25,921.478392061776
2778.5,925.884362353234
2778.75,926.232190281555
2779,923.38271237263
2779.25,919.099403062824
2779.5,915.141121026891
2779.75,912.687087683563
2780,911.784981536628
2780.25,912.351660735021
2780.5,914.27917052642
2780.75,917.063935829831
2781,919.884879666979
2781.25,921.911973212158
2781.5,922.553969689358
2781.75,922.390925120129
2782,922.361465170668
2782.25,923.399593425111
2782.5,925.834633896133
2782.75,928.80263035918
2783,931.299850853176
2783.25,932.373553726215
2783.5,931.999489195142
2783.75,930.963577411081
2784,930.078926511998
2784.25,930.035579944112
2784.5,930.681635900727
2784.75,931.512742059566
2785,932.023522256164
2785.25,931.909351572918
2785.5,931.454731051848
2785.75,931.051675152309
2786,931.085450355831
2786.25,931.638124571731
2786.5,932.372475420983
2786.75,932.920546609231
2787,932.938412344203
2787.25,932.376584598007
2787.5,931.382951552897
2787.75,930.109040836594
2788,928.776277163604
2788.25,927.961480109453
2788.5,928.354143606887
2788.75,930.641013735217
2789,934.919253508552
2789.25,939.97185203443
2789.5,944.404177775937
2789.75,946.862602261238
2790,947.029563767936
2790.25,945.678027140811
2790.5,943.63286121493
2790.75,941.678650785273
2791,940.17880345155
2791.25,939.245821906514
2791.5,938.98887037569
2791.75,939.439203164206
2792,940.236814859536
2792.25,940.89914222029
2792.5,940.944156283858
2792.75,940.080112620733
2793,938.479384347233
2793.25,936.383771474815
2793.5,934.042054647316
2793.75,931.967383389128
2794,931.01233433687
2794.25,932.051770929382
2794.5,935.824693416444
2794.75,941.478051878011
2795,947.125632972257
2795.25,950.863730820544
2795.5,951.198230809072
2795.75,948.642233845196
2796,944.322719998984
2796.25,939.366592693717
2796.5,934.744571166271
2796.75,931.000244676822
2797,928.604848172313
2797.25,928.013549918139
2797.5,928.923069181451
2797.75,929.959575984421
2798,929.668420002926
2798.25,926.751152882669
2798.5,921.793430188957
2798.75,916.629674107382
2799,913.11666410252
2799.25,912.608610594374
2799.5,914.056303089668
2799.75,915.692895358364
2800,915.765627196275
2800.25,913.730019846086
2800.5,911.153797794258
2800.75,909.817557052986
2801,911.355920240773
2801.25,915.418916089068
2801.5,920.224883276527
2801.75,923.960477780793
2802,925.204036056213
2802.25,924.174490411415
2802.5,921.520253171839
2802.75,917.889258780619
2803,913.888710505458
2803.25,910.054621462636
2803.5,906.915831674633
2803.75,904.962695287533
2804,904.137673148226
2804.25,903.975319065996
2804.5,904.000464445597
2804.75,903.856806643701
2805,903.679891498506
2805.25,903.73246331101
2805.5,904.283190531037
2805.75,905.872976013607
2806,909.422743388554
2806.25,915.881652241614
2806.5,925.934787757948
2806.75,938.019840013993
2807,949.438609747925
2807.25,957.484510924455
2807.5,960.253870907291
2807.75,958.337834937806
2808,952.810690660478
2808.25,944.748961936503
2808.5,935.482382446903
2808.75,926.823379579852
2809,920.638592936159
2809.25,918.713709988995
2809.5,920.668645516763
2809.75,923.773928530379
2810,925.182337048591
2810.25,922.522134492483
2810.5,917.017699243321
2810.75,911.537846742282
2811,908.959142741253
2811.25,910.967142955452
2811.5,915.633612963155
2811.75,920.347476926053
2812,922.56838658217
2812.25,921.766367403455
2812.5,919.661317392656
2812.75,918.091952188328
2813,918.651738006824
2813.25,920.929006232941
2813.5,923.532068723703
2813.75,925.062919454469
2814,924.6166107171
2814.25,922.766522758626
2814.5,920.361935506125
2814.75,918.242198947779
2815,916.853568802302
2815.25,916.127530495199
2815.5,915.960748191763
2815.75,916.244109158899
2816,916.813035763795
2816.25,917.472034429374
2816.5,918.025280074981
2816.75,918.298741710188
2817,918.191908400601
2817.25,917.619756057507
2817.5,916.499700271095
2817.75,914.852974063874
2818,912.841107784561
2818.25,910.635575465591
2818.5,908.458435007064
2818.75,907.024013308305
2819,907.323974916698
2819.25,910.352843898462
2819.5,916.42416822386
2819.75,923.686835796746
2820,929.860591381636
2820.25,932.718821877308
2820.5,931.727080389627
2820.75,928.345366881279
2821,924.148291986879
2821.25,920.614808232394
2821.5,918.267093217274
2821.75,917.076572793598
2822,917.008066798611
2822.25,917.883090992554
2822.5,918.978617810933
2822.75,919.442296966489
2823,918.436812750459
2823.25,915.93224176105
2823.5,913.098515137262
2823.75,911.202973083879
2824,911.400564290583
2824.25,913.569971315121
2824.5,916.780635352105
2824.75,920.089135245828
2825,922.685205965719
2825.25,924.246612923097
2825.5,924.562899741652
2825.75,923.431795261251
2826,921.090402919644
2826.25,918.428664483605
2826.5,916.389509350434
2826.75,915.833980676536
2827,916.623186499742
2827.25,917.949562786866
2827.5,918.993293375986
2827.75,919.149454485655
2828,918.700898194358
2828.25,918.159701991197
2828.5,918.034594182921
2828.75,918.600918676531
2829,919.752289486179
2829.25,921.34703153137
2829.5,923.236046332436
2829.75,925.175475526898
2830,926.856051094178
2830.25,927.96720567246
2830.5,928.321688181892
2830.75,928.299791419449
2831,928.444977757481
2831.25,929.298119889716
2831.5,931.056079954953
2831.75,933.231460042138
2832,935.255944690059
2832.25,936.57456828645
2832.5,936.905739663434
2832.75,936.223748930881
2833,934.512732617429
2833.25,931.83590054428
2833.5,928.877138953126
2833.75,926.613380188754
2834,926.023259693127
2834.25,927.729007976462
2834.5,931.108340865411
2834.75,935.267496305146
2835,939.316382565863
2835.25,942.57284585087
2835.5,944.670165871726
2835.75,945.267969013785
2836,944.087207199771
2836.25,941.805982035869
2836.5,939.859970921204
2836.75,939.705576597217
2837,942.531174458674
2837.25,947.603286317523
2837.5,953.349624102157
2837.75,958.194446675878
2838,960.97488329567
2838.25,961.952300685371
2838.5,961.6949478651
2838.75,960.770391004797
2839,959.629151059711
2839.25,958.473059753511
2839.5,957.472148753732
2839.75,956.788698920723
2840,956.230592470427
2840.25,955.112028071989
2840.5,952.710633576598
2840.75,948.374094102502
2841,942.762855743063
2841.25,937.70299208349
2841.5,935.061076866417
2841.75,936.438993381088
2842,941.068824394864
2842.25,946.933898512468
2842.5,952.006340662143
2842.75,954.728453968528
2843,955.414337221241
2843.25,954.843819405638
2843.5,953.795913323
2843.75,952.861641136004
2844,952.204997053374
2844.25,951.930999727363
2844.5,952.139764502387
2844.75,952.712956900039
2845,953.231226025393
2845.25,953.253270419885
2845.5,952.375771644984
2845.75,950.838124692062
2846,949.415517860137
2846.25,948.899516276028
2846.5,949.976346407222
2846.75,952.438493424423
2847,955.627870189547
2847.25,958.88294325843
2847.5,961.622802236851
2847.75,963.628337799243
2848,964.781887163071
2848.25,964.966203984639
2848.5,964.357733823992
2848.75,963.942640965651
2849,964.845442797203
2849.25,968.179990288295
2849.5,973.95017677745
2849.75,980.095121596663
2850,984.328930933373
2850.25,984.414318395506
2850.5,980.028853264887
2850.75,973.352272402049
2851,966.733023903563
2851.25,962.471433352388
2851.5,961.506330573491
2851.75,963.256453666808
2852,967.06057825349
2852.25,972.231710848002
2852.5,977.70001977567
2852.75,982.102360904503
2853,984.068125348017
2853.25,982.436770329514
2853.5,978.031375545312
2853.75,972.766152504906
2854,968.566634731916
2854.25,967.08695910501
2854.5,967.908793248639
2854.75,969.658169409679
2855,970.956008283601
2855.25,970.705045917308
2855.5,969.251604473573
2855.75,967.402995820551
2856,965.966729109755
2856.25,965.620151063912
2856.5,966.570237425032
2856.75,968.917748112821
2857,972.762200383099
2857.25,977.802477324566
2857.5,982.764409598876
2857.75,986.228950557718
2858,986.790194324149
2858.25,984.224916815992
2858.5,980.415027269313
2858.75,977.459520779673
2859,977.430265367327
2859.25,980.778859173751
2859.5,985.449701842324
2859.75,989.172012473854
2860,989.733389788757
2860.25,986.877802798979
2860.5,982.722985627326
2860.75,979.529510868034
2861,979.487320651012
2861.25,982.869904231171
2861.5,987.856534577482
2861.75,992.520213796909
2862,995.019399854542
2862.25,995.083227696147
2862.5,993.81919562491
2862.75,992.381589276657
2863,991.869702877579
2863.25,992.4691028565
2863.5,993.612372493723
2863.75,994.709630362471
2864,995.19840172682
2864.25,994.916587886079
2864.5,994.005408891753
2864.75,992.613609827296
2865,990.895265019907
2865.25,989.076495197215
2865.5,987.435192975018
2865.75,986.250385985855
2866,985.787322236363
2866.25,986.145990922454
2866.5,987.317304448727
2866.75,989.290243571815
2867,992.004880452091
2867.25,994.920576677164
2867.5,997.223743714086
2867.75,998.097656417071
2868,996.866572027497
2868.25,994.064901038939
2868.5,990.843055896166
2868.75,988.356331903125
2869,987.610485252033
2869.25,988.361343174332
2869.5,989.742394350976
2869.75,990.882585470741
2870,991.099441367659
2870.25,991.059380449857
2870.5,992.016296998872
2870.75,995.22650902618
2871,1001.64175808464
2871.25,1010.26921149179
2871.5,1019.35142865648
2871.75,1027.12914182713
2872,1032.11280495839
2872.25,1034.4511889551
2872.5,1034.90829414333
2872.75,1034.24922031704
2873,1033.18289377304
2873.25,1031.92978566338
2873.5,1030.45906054306
2873.75,1028.73781189023
2874,1026.74307696334
2874.25,1024.59256624244
2874.5,1022.50827473669
2874.75,1020.71465849036
2875,1019.42777934983
2875.25,1018.67272969469
2875.5,1018.28479027016
2875.75,1018.09107919271
2876,1017.92461936521
2876.25,1017.82034016413
2876.5,1018.06049760875
2876.75,1018.94245393835
2877,1020.75860111042
2877.25,1023.53667700689
2877.5,1026.91242174579
2877.75,1030.48989790218
2878,1033.87264862624
2878.25,1036.6124284188
2878.5,1038.16587085153
2878.75,1037.97940607864
2879,1035.50022967907
2879.25,1030.59823798665
2879.5,1024.26673255518
2879.75,1017.68357248759
2880,1012.02661688676
2880.25,1008.17829954926
2880.5,1005.81951078617
2880.75,1004.32571146168
2881,1003.07236238861
2881.25,1001.48152508638
2881.5,999.194192294632
2881.75,995.915592586564
2882,991.350962964673
2882.25,985.442381707408
2882.5,979.285574211935
2882.75,974.327006892102
2883,972.013227731499
2883.25,973.341174818788
2883.5,977.342952823244
2883.75,982.51408161696
2884,987.350239993059
2884.25,990.733360792151
2884.5,992.753452904942
2884.75,993.73606812617
2885,994.006707040681
2885.25,993.860381053234
2885.5,993.510164081502
2885.75,993.155507081366
2886,992.995560341077
2886.25,993.113438367735
2886.5,993.301189709951
2886.75,993.305956143274
2887,992.876551203303
2887.25,992.18492859526
2887.5,992.383340491194
2887.75,994.762480690143
2888,1000.60582143522
2888.25,1009.91690834749
2888.5,1019.95802155629
2888.75,1027.63763874653
2889,1029.87495975736
2889.25,1025.402569508
2889.5,1016.7935955908
2889.75,1007.110410028
2890,999.414769299376
2890.25,995.921342047273
2890.5,996.318042967928
2890.75,999.823743015931
2891,1005.65713378602
2891.25,1012.79023614888
2891.5,1019.45933367437
2891.75,1023.76414392859
2892,1023.80474249671
2892.25,1018.60083101165
2892.5,1010.08093728955
2892.75,1000.74733609109
2893,993.10230217701
2893.25,989.010112179156
2893.5,987.647479556609
2893.75,987.483553021848
2894,986.987478438883
2894.25,985.125817056283
2894.5,982.791527949747
2894.75,981.343853483052
2895,982.141916186542
2895.25,985.964355812323
2895.5,991.665108835094
2895.75,997.699727053632
2896,1002.52439980775
2896.25,1004.97299464364
2896.5,1004.89361947642
2896.75,1002.30287788594
2897,997.217905630523
2897.25,990.026845313384
2897.5,982.137393037602
2897.75,975.130848551538
2898,970.58715205668
2898.25,969.281583702594
2898.5,969.828827443177
2898.75,970.48467882428
2899,969.513119747239
2899.25,966.16002887452
2899.5,961.573638444053
2899.75,957.120103352092
2900,954.146798364999
2900.25,953.127968529999
2900.5,953.313147265336
2900.75,953.860237880374
2901,953.970743506397
2901.25,953.644449855786
2901.5,953.58003740478
2901.75,954.499798661838
2902,957.042733360794
2902.25,961.085311570848
2902.5,966.094864340113
2902.75,971.534816120077
2903,976.753301007941
2903.25,980.502663817846
2903.5,981.343361194403
2903.75,977.83577365279
2904,969.442170961596
2904.25,958.951941189339
2904.5,949.921514279651
2904.75,945.905587197339
2905,948.887004535906
2905.25,956.378323616404
2905.5,965.102740839135
2905.75,971.807630235753
2906,974.715250657643
2906.25,974.347972813538
2906.5,971.427676643329
2906.75,966.705526634898
2907,961.790501993342
2907.25,959.26628746639
2907.5,961.769350177322
2907.75,971.708118687701
2908,987.718040429875
2908.25,1005.33373493852
2908.5,1019.99783804537
2908.75,1027.56683193559
2909,1027.95131148453
2909.25,1023.3578152339
2909.5,1016.01904913446
2909.75,1008.08758647944
2910,1000.62031174049
2910.25,993.880556303724
2910.5,988.113924537747
2910.75,983.537296387462
2911,979.88452610941
2911.25,976.488382248025
2911.5,972.66947465144
2911.75,967.833342716241
2912,962.528978076577
2912.25,958.124706022375
2912.5,956.006691594211
2912.75,957.288065279523
2913,960.650862816261
2913.25,963.501801125481
2913.5,963.236333452572
2913.75,958.10601101057
2914,950.729783273697
2914.25,945.115732010807
2914.5,945.272040675944
2914.75,953.292914061451
2915,965.00954430944
2915.25,974.974089719212
2915.5,977.781552567311
2915.75,971.71068818115
2916,961.503170972924
2916.25,952.555031159175
2916.5,950.170052195946
2916.75,955.481228679545
2917,963.838714094023
2917.25,970.167172635018
2917.5,969.696220968806
2917.75,962.696360535047
2918,953.578506012363
2918.25,946.876241197789
2918.5,946.637902939251
2918.75,951.747433288617
2919,957.970085810234
2919.25,961.027925690225
2919.5,957.747044579886
2919.75,950.792576136331
2920,944.752848721286
2920.25,944.217012034041
2920.5,952.104299560795
2920.75,965.806572495783
2921,981.573620534377
2921.25,995.666328645901
2921.5,1005.29848702932
2921.75,1009.355098931
2922,1006.89029660584
2922.25,996.988446540293
2922.5,980.743835233898
2922.75,962.484293543842
2923,946.830091534841
2923.25,938.359654624505
2923.5,938.784299004218
2923.75,945.153272198383
2924,954.08816941178
2924.25,962.309571435089
2924.5,968.315714843334
2924.75,972.142816273584
2925,973.877827408738
2925.25,973.707141580146
2925.5,972.763690274957
2925.75,972.704391078734
2926,975.191713043038
2926.25,981.464108588405
2926.5,989.88899285813
2926.75,997.64303443931
2927,1001.89906185418
2927.25,1000.53433428144
2927.5,994.973103200344
2927.75,987.753546821355
2928,981.414243188284
2928.25,978.050780328169
2928.5,977.473541084426
2928.75,978.758164573822
2929,980.97994235974
2929.25,983.374371181887
2929.5,985.83416235406
2929.75,988.420533607636
2930,991.194663372929
2930.25,994.062711923381
2930.5,996.424118697491
2930.75,997.57495232775
2931,996.81185014572
2931.25,994.116159397378
2931.5,991.482292044958
2931.75,991.272746821505
2932,995.848380297632
2932.25,1006.10234575074
2932.5,1018.7613305992
2932.75,1029.81772819077
2933,1035.26715227874
2933.25,1032.98120762902
2933.5,1025.85701413491
2933.75,1017.62437705971
2934,1012.01310166671
2934.25,1011.73899507161
2934.5,1015.40915331875
2934.75,1020.59014421175
2935,1024.84853547235
2935.25,1026.27850850467
2935.5,1025.4436938741
2935.75,1023.62959384694
2936,1022.12179926537
2936.25,1021.93086367497
2936.5,1022.31959365877
2936.75,1021.86653452478
2937,1019.14863813705
2937.25,1013.07937594957
2937.5,1005.40767448101
2937.75,999.303706824387
2938,997.948284424225
2938.25,1004.14038152646
2938.5,1016.56388717885
2938.75,1031.39386484481
2939,1044.76966268719
2939.25,1053.10731383863
2939.5,1055.76258803587
2939.75,1053.86422561404
2940,1048.5654274064
2940.25,1041.01648812611
2940.5,1032.30081044231
2940.75,1023.4348764779
2941,1015.4322565352
2941.25,1009.29018371138
2941.5,1004.92340597128
2941.75,1000.50722319188
2942,994.059867122898
2942.25,983.623243572633
2942.5,969.486235100817
2942.75,956.003627445516
2943,947.958278243276
2943.25,950.06188834418
2943.5,962.585070856591
2943.75,978.814178733459
2944,991.422857820998
2944.25,993.469879476519
2944.5,985.539065572028
2944.75,975.065790865818
2945,969.735484772899
2945.25,976.744034146581
2945.5,994.660951297097
2945.75,1014.67949209157
2946,1027.75531607585
2946.25,1025.68353875515
2946.5,1009.69554865389
2946.75,986.960979466257
2947,964.741923378994
2947.25,950.00531159822
2947.5,944.517967496111
2947.75,945.600733434442
2948,950.431277760323
2948.25,956.288436729047
2948.5,961.386461047997
2948.75,964.445536491982
2949,964.19081226085
2949.25,959.999506821212
2949.5,954.527131532078
2949.75,951.45719788932
2950,954.473087418803
2950.25,965.358431347084
2950.5,979.695468109374
2950.75,991.803119024575
2951,996.02969744169
2951.25,990.207463532209
2951.5,978.8963784807
2951.75,967.424007571219
2952,961.090813734498
2952.25,962.437914335416
2952.5,968.90651733336
2952.75,977.386501335515
2953,984.815677882919
2953.25,989.791373568905
2953.5,992.955637333137
2953.75,995.076546307572
2954,996.906653809789
2954.25,998.82795878378
2954.5,1000.84424306246
2954.75,1002.94223191559
2955,1005.11664103678
2955.25,1007.53909717562
2955.5,1010.55440429933
2955.75,1014.51460992487
2956,1019.73539101194
2956.25,1025.66444820596
2956.5,1030.86366349958
2956.75,1033.85497939731
2957,1033.20377891017
2957.25,1028.94546771521
2957.5,1022.90736306596
2957.75,1017.02539275447
2958,1013.22285871547
2958.25,1012.346466719
2958.5,1013.35911121763
2958.75,1015.03360007182
2959,1016.14646069607
2959.25,1016.0147670527
2959.5,1015.05798561356
2959.75,1013.82989979047
2960,1012.88384945454
2960.25,1012.62656634918
2960.5,1013.10705698811
2960.75,1014.32079331273
2961,1016.26320130265
2961.25,1018.88926297142
2961.5,1022.03937252571
2961.75,1025.53377076115
2962,1029.19268815861
2962.25,1032.7525664527
2962.5,1035.6632657092
2962.75,1037.31342702627
2963,1037.09169150205
2963.25,1034.68898359991
2963.5,1031.26035007348
2963.75,1028.40351247928
2964,1027.71628725279
2964.25,1030.51827329962
2964.5,1035.99444087581
2964.75,1042.34143898218
2965,1047.75053665692
2965.25,1050.5660317051
2965.5,1050.84970428844
2965.75,1049.74287775136
2966,1048.40362924195
2966.25,1047.95266250778
2966.5,1048.56666274476
2966.75,1049.42886274768
2967,1049.67522706615
2967.25,1048.44947936444
2967.5,1045.55576372921
2967.75,1041.95314991476
2968,1038.71715988492
2968.25,1036.92307521917
2968.5,1037.25091791015
2968.75,1039.18009471297
2969,1041.96289394599
2969.25,1044.85160392758
2969.5,1047.20200106283
2969.75,1048.85893887446
2970,1049.81160969594
2970.25,1050.04922684717
2970.5,1049.59595944675
2970.75,1048.76590725116
2971,1048.01659586967
2971.25,1047.80657213265
2971.5,1048.56251621495
2971.75,1050.1603296774
2972,1052.0105966359
2972.25,1053.50927925989
2972.5,1054.0617992615
2972.75,1053.50869606366
2973,1052.29813990966
2973.25,1050.92347395413
2973.5,1049.87761930708
2973.75,1049.4851689286
2974,1049.6460833113
2974.25,1050.19440157533
2974.5,1050.96416284083
2974.75,1051.80295668474
2975,1052.62011478761
2975.25,1053.34254450476
2975.5,1053.89715445418
2975.75,1054.26543765343
2976,1054.89978982038
2976.25,1056.49330941744
2976.5,1059.74103219784
2976.75,1065.27504666227
2977,1072.50154142568
2977.25,1079.71270794699
2977.5,1085.16023528028
2977.75,1087.10821597142
2978,1084.87431293485
2978.25,1079.61743650135
2978.5,1072.68199622236
2978.75,1065.4124016493
2979,1059.07007622553
2979.25,1054.51975784001
2979.5,1052.50779012755
2979.75,1053.78049596635
2980,1058.94438954757
2980.25,1067.06106648548
2980.5,1076.23227659828
2980.75,1084.54535030514
2981,1090.12851517317
2981.25,1092.24949337155
2981.5,1091.4383264424
2981.75,1088.29059875119
2982,1083.40206592677
2982.25,1077.54906326412
2982.5,1072.03087210091
2982.75,1068.24089189756
2983,1067.57252211445
2983.25,1071.13778971274
2983.5,1077.77769598848
2983.75,1085.23527628007
2984,1091.24641926691
2984.25,1093.63768516662
2984.5,1092.31276101919
2984.75,1089.24784975044
2985,1086.50890363562
2985.25,1086.1603856697
2985.5,1089.27181970499
2985.75,1094.19462324579
2986,1098.82028845443
2986.25,1101.04030749326
2986.5,1099.07620689589
2986.75,1093.71048467976
2987,1086.92293427354
2987.25,1080.70014146571
2987.5,1076.99946675277
2987.75,1076.50283488483
2988,1078.14991434923
2988.25,1080.75492786291
2988.5,1083.13219517167
2988.75,1084.45716351172
2989,1085.08101955557
2989.25,1085.59382321036
2989.5,1086.58563438323
2989.75,1088.54339145584
2990,1091.01640848743
2990.25,1093.05368756725
2990.5,1093.69954301983
2990.75,1092.02152269163
2991,1088.05195111478
2991.25,1083.11326425982
2991.5,1078.61792578831
2991.75,1075.97839717971
2992,1076.14220395121
2992.25,1078.28971277848
2992.5,1081.1815055361
2992.75,1083.57816409863
2993,1084.37075796248
2993.25,1083.73773185031
2993.5,1082.5906774663
2993.75,1081.84969028997
2994,1082.41597256213
2994.25,1084.34608399556
2994.5,1086.53100090362
2994.75,1087.77652379568
2995,1086.88851624851
2995.25,1083.2876913089
2995.5,1078.51809610892
2995.75,1074.58180809883
2996,1073.48090472885
2996.25,1076.95037943723
2996.5,1083.9788004662
2996.75,1091.93941507499
2997,1098.18478273431
2997.25,1100.12579705534
2997.5,1097.37355159273
2997.75,1092.35880713948
2998,1087.69694703951
2998.25,1086.0033545199
2998.5,1089.03805249914
2998.75,1095.1923566093
2999,1102.02838657899
2999.25,1107.10826213683
2999.5,1108.19855228325
2999.75,1105.49030094068
3000,1100.76170663968
3000.25,1095.81847222335
3000.5,1092.4605475073
3000.75,1091.62376091847
3001,1092.46674757432
3001.25,1093.92943273492
3001.5,1094.95174166037
3001.75,1094.65885757782
3002,1093.31885229242
3002.25,1091.63520841865
3002.5,1090.31226392191
3002.75,1090.03174111862
3003,1090.89519970273
3003.25,1092.38860405597
3003.5,1093.96820856527
3003.75,1095.09051716688
3004,1095.42667678584
3004.25,1095.25423034499
3004.5,1094.9570496043
3004.75,1094.91900632373
3005,1095.45112585929
3005.25,1096.20286924643
3005.5,1096.47102919531
3005.75,1095.54910490888
3006,1092.74966397716
3006.25,1088.35395141049
3006.5,1084.05164129688
3006.75,1081.64330740794
3007,1082.92952351523
3007.25,1088.96803733204
3007.5,1097.67455469912
3007.75,1106.13416210762
3008,1111.43194097496
3008.25,1110.9082838745
3008.5,1105.06550470294
3008.75,1096.5418947148
3009,1088.01591881636
3009.25,1082.16037620117
3009.5,1080.46853325954
3009.75,1081.81249137801
3010,1084.71131714164
3010.25,1087.68407713548
3010.5,1089.46038280345
3010.75,1090.02056394026
3011,1089.80497687438
3011.25,1089.25469058897
3011.5,1088.79725097855
3011.75,1088.57328933739
3012,1088.44931333045
3012.25,1088.28086739624
3012.5,1087.92369378823
3012.75,1087.30632351697
3013,1086.53835821048
3013.25,1085.75708142327
3013.5,1085.09977670988
3013.75,1084.63611084491
3014,1083.95103450492
3014.25,1082.4179862708
3014.5,1079.40952402145
3014.75,1074.3696684279
3015,1068.64725723001
3015.25,1065.65343857239
3015.5,1068.90238438685
3015.75,1081.89711143531
3016,1104.04090830878
3016.25,1103.1378164056
3016.5,1102.23472450243
3016.75,1101.33163259926
3017,1100.42854069608
3017.25,1099.52544879291
3017.5,1098.62235688974
3017.75,1097.71926498656
3018,1096.81617308339
3018.25,1095.91308118022
3018.5,1095.00998927704
3018.75,1094.10689737387
3019,1093.2038054707
3019.25,1092.30071356752
3019.5,1091.39762166435
3019.75,1090.49452976117
3020,1089.591437858
3020.25,1088.68834595483
3020.5,1087.78525405165
3020.75,1086.88216214848
3021,1085.97907024531
3021.25,1085.07597834213
3021.5,1084.17288643896
3021.75,1083.26979453579
3022,1082.36670263261
3022.25,1081.46361072944
3022.5,1080.56051882627
3022.75,1079.65742692309
3023,1078.75433501992
3023.25,1077.85124311675
3023.5,1076.94815121357
3023.75,1076.0450593104
3024,1075.14196740722
3024.25,1074.23887550405
3024.5,1073.33578360088
3024.75,1072.4326916977
3025,1071.52959979453
3025.25,1070.62650789136
3025.5,1069.72341598818
3025.75,1068.82032408501
3026,1066.63352654669
3026.25,1066.31458956225
3026.5,1068.97811565858
3026.75,1075.51357766098
3027,1085.11324087708
3027.25,1096.19542502669
3027.5,1107.17450597984
3027.75,1116.50158182635
3028,1123.41984795093
3028.25,1127.93647659187
3028.5,1130.08973581524
3028.75,1129.91793112232
3029,1127.61775241616
3029.25,1123.90626108885
3029.5,1119.60722798718
3029.75,1115.54442395791
3030,1112.51669704436
3030.25,1110.8566200769
3030.5,1110.48314690025
3030.75,1111.30088722891
3031,1113.21437649679
3031.25,1115.99622069335
3031.5,1119.0152705986
3031.75,1121.56340377448
3032,1122.93249778291
3032.25,1122.47217804654
3032.5,1120.27846694853
3032.75,1116.96716030587
3033,1113.164608326
3033.25,1109.49686900537
3033.5,1106.44981374148
3033.75,1104.14475148648
3034,1102.64448880984
3034.25,1102.011832281
3034.5,1102.29500867527
3034.75,1103.39485014328
3035,1105.12663386865
3035.25,1107.30458430794
3035.5,1109.74184620429
3035.75,1112.16668331245
3036,1114.16271539804
3036.25,1115.29945473813
3036.5,1115.14641360973
3036.75,1113.31166815841
3037,1109.6376796921
3037.25,1104.05497747902
3037.5,1096.49424877624
3037.75,1086.94223077188
3038,1077.53797403134
3038.25,1073.20115258506
3038.5,1073.0816413974
3038.75,1072.96213020975
3039,1072.84261902209
3039.25,1072.72310783444
3039.5,1072.60359664678
3039.75,1072.48408545912
3040,1072.36457427147
3040.25,1072.24506308381
3040.5,1072.12555189616
3040.75,1072.0060407085
3041,1071.88652952084
3041.25,1071.76701833319
3041.5,1071.64750714553
3041.75,1071.52799595787
3042,1071.40848477022
3042.25,1071.28897358256
3042.5,1071.16946239491
3042.75,1071.04995120725
3043,1070.93044001959
3043.25,1070.81092883194
3043.5,1070.69141764428
3043.75,1070.57190645663
3044,1070.45239526897
3044.25,1070.33288408131
3044.5,1070.21337289366
3044.75,1070.093861706
3045,1069.97435051835
3045.25,1069.85483933069
3045.5,1069.73532814303
3045.75,1069.61581695538
3046,1069.49630576772
3046.25,1069.37679458007
3046.5,1069.25728339241
3046.75,1069.13777220475
3047,1069.0182610171
3047.25,1068.89874982944
3047.5,1068.77923864179
3047.75,1068.65972745413
3048,1068.54021626647
3048.25,1068.42070507882
3048.5,1068.30119389116
3048.75,1068.18168270351
3049,1068.06217151585
3049.25,1067.94266032819
3049.5,1067.82314914054
3049.75,1067.70363795288
3050,1067.58412676522
3050.25,1067.46461557757
3050.5,1067.34510438991
3050.75,1067.22559320226
3051,1067.1060820146
3051.25,1066.98657082694
3051.5,1066.86705963929
3051.75,1066.74754845163
3052,1066.62803726398
3052.25,1066.50852607632
3052.5,1066.38901488866
3052.75,1066.26950370101
3053,1066.14999251335
3053.25,1066.0304813257
3053.5,1065.91097013804
3053.75,1065.79145895038
3054,1065.67194776273
3054.25,1065.55243657507
3054.5,1065.43292538742
3054.75,1065.31341419976
3055,1065.1939030121
3055.25,1065.07439182445
3055.5,1064.95488063679
3055.75,1064.83536944914
3056,1064.71585826148
3056.25,1064.59634707382
3056.5,1064.47683588617
3056.75,1064.35732469851
3057,1064.23781351086
3057.25,1064.1183023232
3057.5,1063.99879113554
3057.75,1063.87927994789
3058,1063.75976876023
3058.25,1063.64025757257
3058.5,1063.52074638492
3058.75,1063.40123519726
3059,1063.28172400961
3059.25,1063.16221282195
3059.5,1063.04270163429
3059.75,1062.92319044664
3060,1062.80367925898
3060.25,1062.68416807133
3060.5,1062.56465688367
3060.75,1062.44514569601
3061,1062.32563450836
3061.25,1062.2061233207
3061.5,1066.3894612706
3061.75,1070.59800508844
3062,1072.9485167099
3062.25,1071.7752696729
3062.5,1067.83422495958
3062.75,1063.39442280566
3063,1060.74799624463
3063.25,1062.1394773582
3063.5,1067.80846760043
3063.75,1075.29704624702
3064,1081.95733888811
3064.25,1085.14389082575
3064.5,1083.44405080973
3064.75,1078.68152675908
3065,1073.2047042746
3065.25,1069.36196895712
3065.5,1069.14307136091
3065.75,1071.91029234196
3066,1075.85723924899
3066.25,1079.1721962639
3066.5,1080.11355554906
3066.75,1078.36637536907
3067,1074.94620048758
3067.25,1070.91941834804
3067.5,1067.35187410605
3067.75,1065.20378228405
3068,1065.20410851801
3068.25,1068.05120375787
3068.5,1074.44341895357
3068.75,1084.58376978821
3069,1096.26471678644
3069.25,1106.54650220367
3069.5,1112.48920021907
3069.75,1111.44943650629
3070,1104.66232605945
3070.25,1096.08640794208
3070.5,1089.73666910543
3070.75,1089.62042491262
3071,1097.69888838821
3071.25,1111.14245354419
3071.5,1126.43679923559
3071.75,1140.06760431742
3072,1148.90263677016
3072.25,1152.40201661367
3072.5,1151.10297221327
3072.75,1145.54623886909
3073,1136.27676562766
3073.25,1124.30708876153
3073.5,1111.53597422796
3073.75,1099.96101961088
3074,1091.57982249424
3074.25,1088.18460509288
3074.5,1089.46893896264
3074.75,1093.89804837802
3075,1099.92165497843
3075.25,1105.99990796118
3075.5,1111.17737391972
3075.75,1115.38151922047
3076,1118.61313850057
3076.25,1120.87302639715
3076.5,1122.14528211958
3076.75,1122.33081133092
3077,1121.30465736809
3077.25,1118.94185540688
3077.5,1115.12289383799
3077.75,1109.89491408744
3078,1103.49845346898
3078.25,1096.18488824547
3078.5,1088.20559467981
3078.75,1079.90490146716
3079,1072.02788048091
3079.25,1065.42757689828
3079.5,1060.95703745787
3079.75,1059.39211001896
3080,1060.45275420334
3080.25,1063.09404521597
3080.5,1066.25396331188
3080.75,1068.87909646628
3081,1070.28670326684
3081.25,1070.29751364437
3081.5,1068.7682085539
3081.75,1065.55583945772
3082,1060.88654950806
3082.25,1056.04819915152
3082.5,1052.51839108442
3082.75,1051.77472800306
3083,1054.86468415336
3083.25,1060.09720354048
3083.5,1064.70718091015
3083.75,1065.92698327272
3084,1061.25844553489
3084.25,1051.67071547839
3084.5,1040.53986347896
3084.75,1031.29045124219
3085,1027.28956348187
3085.25,1029.3683490093
3085.5,1034.87779469544
3085.75,1040.91661456132
3086,1044.5978415451
3086.25,1044.50456290621
3086.5,1041.9436075821
3086.75,1038.51716423122
3087,1035.82713809301
3087.25,1034.99146884575
3087.5,1035.65258465414
3087.75,1037.17272096711
3088,1038.91411323355
3088.25,1040.39054649029
3088.5,1041.82612555601
3088.75,1043.65288708125
3089,1046.30289388974
3089.25,1050.09590370579
3089.5,1054.49801017496
3089.75,1058.58323409682
3090,1061.42353489369
3090.25,1062.15861462115
3090.5,1060.92868763809
3090.75,1058.63751002956
3091,1056.20809826593
3091.25,1054.55359173455
3091.5,1054.0784985434
3091.75,1054.44378884749
3092,1055.25144072006
3092.25,1056.1035755126
3092.5,1056.68631409677
3092.75,1056.91101160216
3093,1056.72638021034
3093.25,1056.08113210291
3093.5,1054.99644404925
3093.75,1053.87209500102
3094,1053.23110158719
3094.25,1053.59654708372
3094.5,1055.43473306809
3094.75,1058.59916387053
3095,1062.56934579081
3095.25,1066.81944465788
3095.5,1070.82562102053
3095.75,1074.11671201191
3096,1076.27831000645
3096.25,1076.89881925232
3096.5,1075.56862854862
3096.75,1072.32432387651
3097,1068.21082593463
3097.25,1064.411497349
3097.5,1062.10970074562
3097.75,1062.24101549553
3098,1064.36540953362
3098.25,1067.56821010172
3098.5,1070.93429732299
3098.75,1073.60214969597
3099,1075.38879544438
3099.25,1076.57690123529
3099.5,1077.45824806922
3099.75,1078.32613817394
3100,1079.55210801255
3100.25,1081.62200049581
3100.5,1085.03072094648
3100.75,1090.27313893031
3101,1097.35205619516
3101.25,1104.54256448496
3101.5,1109.74077424688
3101.75,1110.84279592802
3102,1106.01791555021
3102.25,1096.42392807967
3102.5,1085.06139628298
3102.75,1074.95798109743
3103,1069.1284090793
3103.25,1068.91812829622
3103.5,1072.37297670414
3103.75,1077.15152035267
3104,1080.91232529141
3104.25,1081.9182250248
3104.5,1081.12809799565
3104.75,1080.25244388942
3105,1081.00179491345
3105.25,1084.82186018031
3105.5,1089.75706528244
3105.75,1091.49381762654
3106,1085.67117217538
3106.25,1085.80708879602
3106.5,1085.94300541665
3106.75,1086.07892203728
3107,1086.21483865792
3107.25,1086.35075527855
3107.5,1086.48667189918
3107.75,1086.62258851982
3108,1086.75850514045
3108.25,1086.89442176108
3108.5,1087.03033838172
3108.75,1087.16625500235
3109,1087.30217162298
3109.25,1087.43808824361
3109.5,1087.57400486425
3109.75,1087.70992148488
3110,1087.84583810551
3110.25,1087.98175472615
3110.5,1088.11767134678
3110.75,1088.25358796741
3111,1088.38950458805
3111.25,1088.52542120868
3111.5,1088.66133782931
3111.75,1088.79725444995
3112,1088.93317107058
3112.25,1089.06908769121
3112.5,1089.20500431185
3112.75,1089.34092093248
3113,1089.47683755311
3113.25,1089.61275417374
3113.5,1089.74867079438
3113.75,1089.88458741501
3114,1090.02050403564
3114.25,1090.15642065628
3114.5,1090.29233727691
3114.75,1090.42825389754
3115,1090.56417051818
3115.25,1090.70008713881
3115.5,1090.83600375944
3115.75,1090.97192038008
3116,1091.10783700071
