1531,1104.5711043754
1531.25,1093.82827342484
1531.5,1084.92624856973
1531.75,1080.40935224599
1532,1081.22774329809
1532.25,1085.24543564523
1532.5,1089.97325066322
1532.75,1092.92200972783
1533,1092.14825588817
1533.25,1088.42561777492
1533.5,1083.37169936524
1533.75,1078.60436817685
1534,1075.67156099446
1534.25,1074.86462061562
1534.5,1075.387331039
1534.75,1076.40757391194
1535,1077.09736633446
1535.25,1077.14221607085
1535.5,1077.23203129816
1535.75,1078.17312005192
1536,1080.77179036767
1536.25,1085.58831479421
1536.5,1092.00246720888
1536.75,1099.04039101444
1537,1105.7281638685
1537.25,1111.1185531623
1537.5,1114.64006449431
1537.75,1115.99882421988
1538,1114.90745979437
1538.25,1111.08012671054
1538.5,1104.63399118789
1538.75,1096.62772313983
1539,1088.25421433785
1539.25,1080.70635655344
1539.5,1075.09717100869
1539.75,1071.81038951935
1540,1070.83926657789
1540.25,1072.1733550259
1540.5,1075.7804075491
1540.75,1080.87203813349
1541,1085.72740957913
1541.25,1088.56813573335
1541.5,1087.6172406745
1541.75,1082.14507903116
1542,1074.32490419005
1542.25,1066.82878408083
1542.5,1062.32878663315
1542.75,1063.13333253167
1543,1068.60742773127
1543.25,1076.68961890844
1543.5,1085.30907899756
1543.75,1092.4610027849
1544,1097.50049276678
1544.25,1101.05988352101
1544.5,1103.82097595737
1544.75,1106.46445590991
1545,1109.30142786168
1545.25,1111.74076301035
1545.5,1113.05623600934
1545.75,1112.52162151206
1546,1109.52113590278
1546.25,1104.41908099373
1546.5,1098.09249431337
1546.75,1091.42289852693
1547,1085.28828519784
1547.25,1080.28503567037
1547.5,1076.52736361205
1547.75,1074.08216674874
1548,1073.01634280628
1548.25,1073.32087957031
1548.5,1074.63215912375
1548.75,1076.48310192386
1549,1078.40661617082
1549.25,1079.97904631227
1549.5,1081.30090122133
1549.75,1082.82021533024
1550,1084.99125034314
1550.25,1088.2602825019
1550.5,1092.61832888169
1550.75,1097.36414745882
1551,1101.73848528203
1551.25,1104.98208940006
1551.5,1106.58244552917
1551.75,1107.03617060562
1552,1107.09783251641
1552.25,1107.52199925103
1552.5,1109.00648863058
1552.75,1111.30078415986
1553,1113.37003516914
1553.25,1114.15581197635
1553.5,1112.6006776613
1553.75,1108.17171802706
1554,1101.72072406582
1554.25,1094.32533503657
1554.5,1087.06319019828
1554.75,1080.97020288162
1555,1076.634264724
1555.25,1074.37089027695
1555.5,1074.49174786693
1555.75,1077.29629058809
1556,1082.42700107297
1556.25,1088.5494786554
1556.5,1094.2499510918
1556.75,1098.11469040904
1557,1099.28449480716
1557.25,1098.83877719114
1557.5,1098.28034392056
1557.75,1099.11200135501
1558,1102.69228751404
1558.25,1108.61709252766
1558.5,1115.30313898304
1558.75,1121.14552175874
1559,1124.54619763441
1559.25,1124.71204416918
1559.5,1122.39975235385
1559.75,1118.54221227224
1560,1114.07231400818
1560.25,1109.85538262551
1560.5,1106.18265476331
1560.75,1103.05559450894
1561,1100.47343954056
1561.25,1098.43517688623
1561.5,1096.92120886531
1561.75,1095.88088341386
1562,1095.26059591861
1562.25,1095.00674176634
1562.5,1095.04836200438
1562.75,1095.2232804292
1563,1095.33945598431
1563.25,1095.20483044854
1563.5,1094.63658352469
1563.75,1093.6376169305
1564,1092.38280694528
1564.25,1091.05351318304
1564.5,1089.83105592184
1564.75,1088.87904798391
1565,1088.3155218114
1565.25,1088.25127623357
1565.5,1088.79711007971
1565.75,1090.05712146514
1566,1092.08420342674
1566.25,1094.90762337829
1566.5,1098.55652202911
1566.75,1103.04385555744
1567,1107.86268276276
1567.25,1111.88788191914
1567.5,1113.95830521777
1567.75,1112.91281679478
1568,1108.08364641027
1568.25,1100.60793071371
1568.5,1092.03543720147
1568.75,1083.91593336994
1569,1077.72978111379
1569.25,1073.82204870304
1569.5,1071.611549529
1569.75,1070.49004260415
1570,1069.85205007527
1570.25,1069.41370136562
1570.5,1069.5090016391
1570.75,1070.54201524464
1571,1072.91680653118
1571.25,1076.83469538143
1571.5,1081.62027963094
1571.75,1086.3612296531
1572,1090.14521197717
1572.25,1092.12440798719
1572.5,1092.16047171279
1572.75,1090.55425113291
1573,1087.61312489004
1573.25,1083.64977683633
1573.5,1079.33289038536
1573.75,1075.90578373578
1574,1074.66397480753
1574.25,1076.90298152055
1574.5,1083.29422274622
1574.75,1091.84445499141
1575,1099.8494054223
1575.25,1104.60479435823
1575.5,1103.66886672846
1575.75,1097.61137708045
1576,1088.92600484244
1576.25,1080.13765261682
1576.5,1073.76138463669
1576.75,1071.12678099547
1577,1071.26369738774
1577.25,1072.93813701165
1577.5,1074.91610306533
1577.75,1076.17242098119
1578,1076.65113491778
1578.25,1076.57727667477
1578.5,1076.17590754731
1578.75,1075.67013506795
1579,1075.25897506391
1579.25,1075.1252193237
1579.5,1075.45135692476
1579.75,1076.4161629524
1580,1077.99553937741
1580.25,1079.86190785485
1580.5,1081.66282587542
1580.75,1083.04586258719
1581,1083.82790239338
1581.25,1084.42175234425
1581.5,1085.37125657841
1581.75,1087.22025923442
1582,1090.41092006891
1582.25,1094.37439591161
1582.5,1097.96258316957
1582.75,1100.02053078163
1583,1099.41183673815
1583.25,1095.93280580683
1583.5,1090.73035267504
1583.75,1085.05712954749
1584,1080.1657886289
1584.25,1077.03525975876
1584.5,1075.40602274712
1584.75,1074.66847025675
1585,1074.21297351315
1585.25,1073.4694413335
1585.5,1072.37672020096
1585.75,1071.2270452916
1586,1070.31977622079
1586.25,1069.95193479352
1586.5,1070.2896788641
1586.75,1071.30155761147
1587,1072.93971857477
1587.25,1075.15629385657
1587.5,1077.83000089163
1587.75,1080.59643219261
1588,1083.04091931042
1588.25,1084.74879379596
1588.5,1085.41655828711
1588.75,1085.66660096633
1589,1086.58092056439
1589.25,1089.24483188251
1589.5,1094.69625239361
1589.75,1102.36147627729
1590,1109.69783511023
1590.25,1114.04289556049
1590.5,1112.73439508081
1590.75,1104.28769523366
1591,1091.20900841134
1591.25,1076.84913330646
1591.5,1064.55886861167
1591.75,1057.50013564897
1592,1056.04773584078
1592.25,1058.45073606953
1592.5,1062.90465324247
1592.75,1067.61741190315
1593,1071.41791105612
1593.25,1074.03256759087
1593.5,1075.25787790103
1593.75,1074.89048913407
1594,1072.95285987014
1594.25,1070.14696848361
1594.5,1067.30209367888
1594.75,1065.24751416036
1595,1064.74401587787
1595.25,1066.03922205318
1595.5,1069.14800348476
1595.75,1074.0840728136
1596,1080.83567980299
1596.25,1088.8933368678
1596.5,1097.29425172488
1596.75,1105.05908010847
1597,1111.21008478876
1597.25,1115.01442606425
1597.5,1116.24477541192
1597.75,1114.73628446052
1598,1110.32410483879
1598.25,1102.98403368336
1598.5,1093.77236657283
1598.75,1084.2462203813
1599,1075.96545123088
1599.25,1070.47266343415
1599.5,1068.40235895221
1599.75,1069.05002366431
1600,1071.60361385643
1600.25,1075.25109207684
1600.5,1079.20898361101
1600.75,1082.7881397247
1601,1085.31885608989
1601.25,1086.13142837855
1601.5,1084.7133353611
1601.75,1081.85708346384
1602,1079.0013105113
1602.25,1077.58926988892
1602.5,1079.02970583658
1602.75,1083.53776581745
1603,1089.85861340602
1603.25,1096.64687281278
1603.5,1102.55752828771
1603.75,1106.6291853704
1604,1109.01274724539
1604.25,1110.05956152376
1604.5,1110.12097581661
1604.75,1109.51399899461
1605,1108.20171417857
1605.25,1105.93866827306
1605.5,1102.47672298201
1605.75,1097.57200542292
1606,1091.44663036861
1606.25,1085.20194851618
1606.5,1080.03682167531
1606.75,1077.15011165571
1607,1077.4414158288
1607.25,1080.00582845434
1607.5,1083.26540842659
1607.75,1085.64106595851
1608,1085.63731330494
1608.25,1083.25220704961
1608.5,1079.77181111443
1608.75,1076.52440138517
1609,1074.83556413621
1609.25,1075.54363328371
1609.5,1078.43797650692
1609.75,1083.17176100351
1610,1089.39815397115
1610.25,1096.66809278919
1610.5,1104.00081146145
1610.75,1110.24322673046
1611,1114.24216641131
1611.25,1114.91711603424
1611.5,1112.50651836153
1611.75,1108.39751576762
1612,1104.01565278287
1612.25,1100.78616872463
1612.5,1099.64033380206
1612.75,1100.01131836494
1613,1101.04935988943
1613.25,1101.90469585172
1613.5,1101.79711377353
1613.75,1100.69247944383
1614,1099.00991869645
1614.25,1097.17494470166
1614.5,1095.6101353938
1614.75,1094.47214257726
1615,1093.4432992154
1615.25,1092.15689745755
1615.5,1090.24622945304
1615.75,1087.4885630732
1616,1084.44644508407
1616.25,1081.94883238477
1616.5,1080.82489803461
1616.75,1081.86073719114
1617,1085.00592020321
1617.25,1089.45115933392
1617.5,1094.35966853778
1617.75,1098.89590583288
1618,1102.44801340174
1618.25,1104.88483318973
1618.5,1106.13749412178
1618.75,1106.13712512283
1619,1104.89152148493
1619.25,1102.93755746121
1619.5,1101.03531215205
1619.75,1099.94565122432
1620,1100.40925756716
1620.25,1102.37085342211
1620.5,1104.73456247226
1620.75,1106.33429376706
1621,1106.00395635594
1621.25,1103.00907262068
1621.5,1098.35380272204
1621.75,1093.48003384501
1622,1089.82965318019
1622.25,1088.76375967148
1622.5,1090.29932941548
1622.75,1093.34475299044
1623,1096.77528897746
1623.25,1099.4686712382
1623.5,1100.72535055611
1623.75,1100.74314020426
1624,1099.83448097461
1624.25,1098.31181365915
1624.5,1096.50562023038
1624.75,1094.87072859195
1625,1093.91436578266
1625.25,1094.14394242984
1625.5,1096.05073401479
1625.75,1099.59704449247
1626,1104.11002332596
1626.25,1108.87922520964
1626.5,1113.19421938706
1626.75,1116.47884180031
1627,1118.61929597191
1627.25,1119.60123852138
1627.5,1119.41032606827
1627.75,1118.04368328143
1628,1115.67130482569
1628.25,1112.59691563961
1628.5,1109.12771869334
1628.75,1105.57088258692
1629,1102.20710454325
1629.25,1099.24335529669
1629.5,1096.87387172989
1629.75,1095.2928907255
1630,1094.67385345794
1630.25,1094.97422988346
1630.5,1096.02349170132
1630.75,1097.64943336608
1631,1099.67888641438
1631.25,1101.8741606994
1631.5,1103.89347226563
1631.75,1105.38558775589
1632,1105.99927381301
1632.25,1105.49698783661
1632.5,1104.21552459024
1632.75,1102.67262380876
1633,1101.38609276395
1633.25,1100.86931150675
1633.5,1101.53313049077
1633.75,1103.68547819897
1634,1107.62977741846
1634.25,1113.66914425737
1634.5,1121.63304672262
1634.75,1129.92119548042
1635,1136.664585562
1635.25,1139.99421199854
1635.5,1138.22024152549
1635.75,1131.92789240755
1636,1123.26688652223
1636.25,1114.41773246528
1636.5,1107.56060263582
1636.75,1104.12461441021
1637,1103.19147762987
1637.25,1103.38555020129
1637.5,1103.33119003094
1637.75,1101.76465209308
1638,1098.80054559228
1638.25,1095.48100583345
1638.5,1092.86544068056
1638.75,1092.00866065388
1639,1093.34296245862
1639.25,1096.05425712969
1639.5,1099.17989667014
1639.75,1101.757233083
1640,1103.02255063848
1640.25,1103.38817770949
1640.5,1103.69705272223
1640.75,1104.79276005416
1641,1107.49043401094
1641.25,1111.82182204304
1641.5,1116.95609146043
1641.75,1122.01807478382
1642,1126.13261708176
1642.25,1128.65865166361
1642.5,1129.78779506922
1642.75,1129.89673061042
1643,1129.36214159908
1643.25,1128.53878203741
1643.5,1127.35166545758
1643.75,1125.33384401498
1644,1122.00401643538
1644.25,1116.88088405587
1644.5,1109.86530177661
1644.75,1102.30059655056
1645,1095.87037842843
1645.25,1092.25825746095
1645.5,1093.04337890845
1645.75,1097.89623954256
1646,1104.81847166001
1646.25,1111.75547068905
1646.5,1116.65624766466
1646.75,1118.42532121947
1647,1118.20034444273
1647.25,1117.43747329364
1647.5,1117.5928637314
1647.75,1119.97817638651
1648,1124.51117882779
1648.25,1130.32977227534
1648.5,1136.56330696484
1648.75,1142.34320735125
1649,1147.05778854281
1649.25,1150.59749629471
1649.5,1152.91091861344
1649.75,1153.9466435055
1650,1153.66422736974
1650.25,1152.14314244602
1650.5,1149.53676739053
1650.75,1145.99956616841
1651,1141.68602956795
1651.25,1136.85518523066
1651.5,1132.10753723942
1651.75,1128.11320243097
1652,1125.54229764207
1652.25,1125.03135645236
1652.5,1126.44418859754
1652.75,1128.87170830205
1653,1131.37121219981
1653.25,1132.99999692471
1653.5,1132.97932836261
1653.75,1131.18635628968
1654,1127.66220317533
1654.25,1122.44799148899
1654.5,1115.61417113335
1654.75,1108.01870888483
1655,1101.37549601466
1655.25,1097.44146251667
1655.5,1097.97353838469
1655.75,1104.01516031722
1656,1113.68786790038
1656.25,1124.36534326248
1656.5,1133.4212681798
1656.75,1138.38362721567
1657,1139.08704193287
1657.25,1137.1406682756
1657.5,1134.19924476677
1657.75,1131.91743014877
1658,1131.42388262699
1658.25,1132.06935957782
1658.5,1132.82935874635
1658.75,1132.67937787768
1659,1130.64031504802
1659.25,1126.65015608326
1659.5,1121.49846201732
1659.75,1116.00706914058
1660,1110.99781374342
1660.25,1107.16794723721
1660.5,1104.71710819821
1660.75,1103.72071339926
1661,1104.25417961321
1661.25,1106.36672506585
1661.5,1109.63926506576
1661.75,1113.24871577207
1662,1116.35874356718
1662.25,1118.13372948939
1662.5,1118.14650788725
1662.75,1117.06102865205
1663,1115.72148491747
1663.25,1114.97206981722
1663.5,1115.59689457096
1663.75,1117.67668228069
1664,1120.83600247361
1664.25,1124.69171561888
1664.5,1128.86029019704
1664.75,1132.8799669909
1665,1136.11678535194
1665.25,1137.91384227237
1665.5,1137.61423474442
1665.75,1134.67767126609
1666,1129.79813659394
1666.25,1124.41185604857
1666.5,1119.96520861976
1666.75,1117.90301825186
1667,1118.91027097104
1667.25,1121.69021303049
1667.5,1124.62707391317
1667.75,1126.10508310202
1668,1124.67238290567
1668.25,1120.7390952875
1668.5,1115.89627821485
1668.75,1111.75377789536
1669,1109.91917556267
1669.25,1111.26103555961
1669.5,1114.84902491247
1669.75,1119.48431373983
1670,1123.96807216029
1670.25,1127.21624538232
1670.5,1129.21615101414
1670.75,1130.53902217719
1671,1131.76196878556
1671.25,1133.46028069733
1671.5,1135.93608041852
1671.75,1138.92979099381
1672,1142.11272602903
1672.25,1145.15619912999
1672.5,1147.74500727969
1672.75,1149.70442739855
1673,1150.94319943042
1673.25,1151.37116505271
1673.5,1150.89814703391
1673.75,1149.41617400607
1674,1146.76643919409
1674.25,1142.78111639499
1674.5,1137.2923794058
1674.75,1130.16361657753
1675,1121.94495983351
1675.25,1113.85639060729
1675.5,1107.1457254168
1675.75,1103.06078077992
1676,1102.46314775985
1676.25,1104.54228108471
1676.5,1108.03521607235
1676.75,1111.67898036726
1677,1114.26504808655
1677.25,1115.53723783118
1677.5,1116.0499618487
1677.75,1116.38349767032
1678,1117.11804326738
1678.25,1118.75194389468
1678.5,1121.54718738369
1678.75,1125.72335130926
1679,1131.50001324627
1679.25,1139.02269924168
1679.5,1147.49375532795
1679.75,1155.46550211209
1680,1161.47739834616
1680.25,1164.06944005302
1680.5,1162.39048524739
1680.75,1157.36732686589
1681,1150.24954533743
1681.25,1142.28672109095
1681.5,1134.7095385419
1681.75,1128.1922048307
1682,1122.77492397357
1682.25,1118.46341607222
1682.5,1115.26340122835
1682.75,1113.1648828348
1683,1112.07236714944
1683.25,1111.86142815869
1683.5,1112.40761690839
1683.75,1113.58822584481
1684,1115.33514691798
1684.25,1117.64443425532
1684.5,1120.51581154885
1684.75,1123.94900249061
1685,1127.86557009652
1685.25,1131.86129935447
1685.5,1135.44711011552
1685.75,1138.13392202046
1686,1139.4647782466
1686.25,1139.75609685427
1686.5,1140.11735696425
1686.75,1141.69409924923
1687,1145.63186438189
1687.25,1152.6162311505
1687.5,1161.09198775212
1687.75,1168.82256112342
1688,1173.57121940922
1688.25,1173.13387880295
1688.5,1167.04307230433
1688.75,1157.40251672675
1689,1146.52359037616
1689.25,1136.71767155848
1689.5,1130.14176898058
1689.75,1127.07753256169
1690,1126.55719118921
1690.25,1127.59030069041
1690.5,1129.18667432224
1690.75,1130.57060525273
1691,1131.56987305619
1691.25,1132.11762373833
1691.5,1132.14700330485
1691.75,1131.61598604963
1692,1130.84999141169
1692.25,1130.45523682224
1692.5,1131.04504470647
1692.75,1133.23263169991
1693,1137.31851473055
1693.25,1142.60277789019
1693.5,1148.18585226695
1693.75,1153.16816894896
1694,1156.68674524817
1694.25,1158.57191148866
1694.5,1159.27379567923
1694.75,1159.26435105479
1695,1159.01553085022
1695.25,1158.85850125935
1695.5,1158.4144408486
1695.75,1157.08122439613
1696,1154.25664503827
1696.25,1149.34637075439
1696.5,1142.43404293354
1696.75,1134.79326396951
1697,1127.81818139645
1697.25,1122.90294274852
1697.5,1121.29314425237
1697.75,1122.60709535334
1698,1125.45868976079
1698.25,1128.44700919769
1698.5,1130.17467822156
1698.75,1130.04260929576
1699,1129.25656137523
1699.25,1129.27022640546
1699.5,1131.53729633194
1699.75,1137.32665042061
1700,1145.82510760283
1700.25,1154.90708772369
1700.5,1162.42648313608
1700.75,1166.2392521401
1701,1165.23958191429
1701.25,1161.04141695862
1701.5,1155.69861324163
1701.75,1151.26502673187
1702,1149.72405382924
1702.25,1151.27140281051
1702.5,1154.21700547776
1702.75,1156.78069884528
1703,1157.18231992734
1703.25,1154.02666493911
1703.5,1148.13488496983
1703.75,1141.1197062414
1704,1134.59484198168
1704.25,1130.16694811245
1704.5,1128.60291638901
1704.75,1129.04625790241
1705,1130.45501931406
1705.25,1131.78724728535
1705.5,1132.09135028313
1705.75,1131.2633675457
1706,1129.66312878849
1706.25,1127.65519276507
1706.5,1125.60429053162
1706.75,1123.91174750696
1707,1123.06056850237
1707.25,1123.54481513054
1707.5,1125.85854900415
1707.75,1130.41391793849
1708,1136.76530138615
1708.25,1143.95547124442
1708.5,1151.02036781773
1708.75,1156.99704521203
1709,1161.19907156405
1709.25,1163.57807772004
1709.5,1164.17540016163
1709.75,1163.03237537045
1710,1160.20854383434
1710.25,1156.07867706982
1710.5,1151.28418039117
1710.75,1146.47485818212
1711,1142.30051482642
1711.25,1139.31276971601
1711.5,1137.55771729166
1711.75,1136.91921689511
1712,1137.28105270889
1712.25,1138.52396060146
1712.5,1140.36400746438
1712.75,1142.27198759045
1713,1143.69871965921
1713.25,1144.09502235019
1713.5,1143.00334660366
1713.75,1140.65134526195
1714,1137.57693220595
1714.25,1134.31955363306
1714.5,1131.41842925987
1714.75,1129.37525046768
1715,1128.61262078007
1715.25,1129.54312706169
1715.5,1132.57935617718
1715.75,1138.06129083084
1716,1145.55942860309
1716.25,1154.18106970203
1716.5,1163.0271593704
1716.75,1171.19874353339
1717,1177.83702643872
1717.25,1182.1845185289
1717.5,1183.49945751909
1717.75,1181.04008112449
1718,1174.11705518392
1718.25,1163.38991171406
1718.5,1150.95163972815
1718.75,1138.96459415033
1719,1129.5911299047
1719.25,1124.71559651202
1719.5,1123.91833176592
1719.75,1125.64065653053
1720,1128.31580226182
1720.25,1130.38216637657
1720.5,1130.88588686327
1720.75,1130.04421067547
1721,1128.20766069026
1721.25,1125.72675978473
1721.5,1122.94377139536
1721.75,1120.12482778335
1722,1117.49498724186
1722.25,1115.2789084946
1722.5,1113.70193405775
1722.75,1113.08798341844
1723,1113.96159901111
1723.25,1116.87170739273
1723.5,1122.36723512024
1723.75,1130.791727281
1724,1140.85403828616
1724.25,1150.48201422823
1724.5,1157.59865429025
1724.75,1160.14272580007
1725,1157.4815292918
1725.25,1151.53035181428
1725.5,1144.46792007826
1725.75,1138.47296079451
1726,1135.5638171888
1726.25,1135.71141543131
1726.5,1137.47335884198
1726.75,1139.37917268445
1727,1139.95867688403
1727.25,1138.21397687455
1727.5,1134.57813504464
1727.75,1129.75419553029
1728,1124.44520246746
1728.25,1119.35079584428
1728.5,1115.10336600981
1728.75,1112.27367178639
1729,1111.43019415228
1729.25,1113.14138996989
1729.5,1117.68345498946
1729.75,1124.31242865168
1730,1132.06189706953
1730.25,1139.96544635597
1730.5,1147.09134684865
1730.75,1153.04024911769
1731,1157.82959523881
1731.25,1161.48795871393
1731.5,1164.04391260889
1731.75,1165.48036866758
1732,1165.60908620926
1732.25,1164.20173100502
1732.5,1161.02996882593
1732.75,1155.87625325238
1733,1149.04153876093
1733.25,1141.56404699005
1733.5,1134.53824726708
1733.75,1129.05860891932
1734,1126.0933021812
1734.25,1125.44990904859
1734.5,1126.31140446123
1734.75,1127.85473781228
1735,1129.25887065468
1735.25,1130.03058674432
1735.5,1130.36467790432
1735.75,1130.54265213155
1736,1130.84601742286
1736.25,1131.52575559307
1736.5,1132.52424135622
1736.75,1133.60471792558
1737,1134.5282243191
1737.25,1135.05632731708
1737.5,1135.09287067255
1737.75,1134.87554601208
1738,1134.68987445967
1738.25,1134.82137713931
1738.5,1135.54559087555
1738.75,1137.0110272303
1739,1139.27872366153
1739.25,1142.40799026373
1739.5,1146.45788742418
1739.75,1151.17570422033
1740,1155.38843406973
1740.25,1157.75408918487
1740.5,1156.9306817782
1740.75,1151.65580388269
1741,1142.34890848009
1741.25,1131.03273873402
1741.5,1119.7938921988
1741.75,1110.71896642871
1742,1105.53839592683
1742.25,1104.04690510411
1742.5,1105.38474854823
1742.75,1108.69166608241
1743,1113.10666112701
1743.25,1117.74797924046
1743.5,1121.71073360004
1743.75,1124.08882432927
1744,1123.97615295641
1744.25,1120.93966961791
1744.5,1116.35754164801
1744.75,1112.04135558471
1745,1109.80269796598
1745.25,1111.37352593033
1745.5,1116.80537705474
1745.75,1124.54923749883
1746,1132.99244952622
1746.25,1140.52250339919
1746.5,1145.90678607068
1746.75,1149.11424937766
1747,1150.35083207062
1747.25,1149.82247290006
1747.5,1147.74027978623
1747.75,1144.42436499385
1748,1140.29862006341
1748.25,1135.79105990088
1748.5,1131.32969941227
1748.75,1127.32104562796
1749,1124.06310315972
1749.25,1121.81973889718
1749.5,1120.85480719596
1749.75,1121.42204007591
1750,1123.37931340055
1750.25,1126.06890802271
1750.5,1128.79850917715
1750.75,1130.87580209865
1751,1131.73008112896
1751.25,1131.41889271213
1751.5,1130.2020673588
1751.75,1128.33953278853
1752,1126.09425198271
1752.25,1123.8535905333
1752.5,1122.17032475189
1752.75,1121.60867709843
1753,1122.73287003287
1753.25,1125.94165575684
1753.5,1130.69167700924
1753.75,1136.1066282682
1754,1141.30982173106
1754.25,1145.43505724718
1754.5,1148.04555492421
1754.75,1149.27526365583
1755,1149.29760060895
1755.25,1148.28598295049
1755.5,1146.43289993475
1755.75,1144.06502733785
1756,1141.56663380066
1756.25,1139.32220924969
1756.5,1137.71405640099
1756.75,1136.7743594503
1757,1135.80367763681
1757.25,1134.01082501261
1757.5,1130.60461562977
1757.75,1124.92635951063
1758,1117.83054804568
1758.25,1111.13521001434
1758.5,1106.67387171806
1758.75,1106.27738502883
1759,1110.69270119878
1759.25,1117.92500323661
1759.5,1125.55256014517
1759.75,1131.15364092736
1760,1132.61632517945
1760.25,1130.69605398363
1760.5,1127.70035167989
1760.75,1125.95200950946
1761,1127.76697188562
1761.25,1134.07776219066
1761.5,1142.76310317226
1761.75,1151.29355355137
1762,1157.13967204892
1762.25,1158.01280768789
1762.5,1154.14616089922
1762.75,1147.27724515864
1763,1139.16366840808
1763.25,1131.56294528341
1763.5,1125.80383305421
1763.75,1121.79844460491
1764,1119.16671578072
1764.25,1117.52858242683
1764.5,1116.51583249588
1764.75,1115.99169989161
1765,1116.03007683092
1765.25,1116.7125385645
1765.5,1118.12062486306
1765.75,1120.19936578025
1766,1122.44828350343
1766.25,1124.27616509051
1766.5,1125.09179759942
1766.75,1124.36038411728
1767,1122.40403361828
1767.25,1120.21108788235
1767.5,1118.78741122493
1767.75,1119.13862104738
1768,1121.90708181025
1768.25,1126.64405878418
1768.5,1132.69680383161
1768.75,1139.41256881497
1769,1146.13822201658
1769.25,1152.2153312562
1769.5,1156.98159754229
1769.75,1159.77463400265
1770,1159.93209246884
1770.25,1157.10383357285
1770.5,1152.00715414865
1770.75,1145.58728624442
1771,1138.78946190832
1771.25,1132.54820205238
1771.5,1127.41093104693
1771.75,1123.43854345161
1772,1120.66100962256
1772.25,1119.10829991594
1772.5,1118.78364910616
1772.75,1119.53302366141
1773,1121.1450747794
1773.25,1123.40837053333
1773.5,1126.1071592532
1773.75,1128.85445580102
1774,1131.03890651297
1774.25,1132.03396705076
1774.5,1131.21309307611
1774.75,1128.23209035549
1775,1124.28893431101
1775.25,1121.10549288615
1775.5,1120.40406430803
1775.75,1123.87223759609
1776,1131.60410119698
1776.25,1141.47022289353
1776.5,1151.17605661555
1776.75,1158.42705629288
1777,1161.31264900789
1777.25,1160.09688607753
1777.5,1155.80850434589
1777.75,1149.4770840786
1778,1142.13096487429
1778.25,1134.64693641686
1778.5,1127.60668406137
1778.75,1121.55787958901
1779,1117.04819478094
1779.25,1114.57390656834
1779.5,1114.04762556387
1779.75,1115.01185377849
1780,1117.00320817442
1780.25,1119.55872251525
1780.5,1122.29424256421
1780.75,1124.99698069276
1781,1127.47665848167
1781.25,1129.54299751172
1781.5,1131.0067954698
1781.75,1131.68875710777
1782,1131.41492702035
1782.25,1130.01140157885
1782.5,1127.30663948338
1782.75,1123.55406082849
1783,1119.92043961607
1783.25,1117.69091440933
1783.5,1118.15062377151
1783.75,1122.39448161993
1784,1129.56356245087
1784.25,1137.65079959408
1784.5,1144.6344610411
1784.75,1148.49951415881
1785,1148.27900972187
1785.25,1145.18370121191
1785.5,1140.6956005003
1785.75,1136.29671945838
1786,1133.37000471485
1786.25,1131.99686032322
1786.5,1131.34184562795
1786.75,1130.55036734769
1787,1128.76808171507
1787.25,1125.53641500245
1787.5,1121.59467153257
1787.75,1117.90791772449
1788,1115.44121999726
1788.25,1115.09940472697
1788.5,1116.80158066082
1788.75,1119.66245447566
1789,1122.7732262641
1789.25,1125.22562800973
1789.5,1126.56302885783
1789.75,1127.60265510327
1790,1129.38471328547
1790.25,1132.94940994386
1790.5,1139.23745820414
1790.75,1147.80174300051
1791,1157.17615312748
1791.25,1165.87106425104
1791.5,1172.39700885745
1791.75,1175.67743113574
1792,1175.94452308285
1792.25,1173.68916417139
1792.5,1169.40223387396
1792.75,1163.57468513183
1793,1156.70050113535
1793.25,1149.27770529953
1793.5,1141.80460175713
1793.75,1134.77949464095
1794,1128.68818606561
1794.25,1123.89857276664
1794.5,1120.71376073068
1794.75,1119.43618587999
1795,1120.36652510058
1795.25,1123.40388936039
1795.5,1127.53694692641
1795.75,1131.62889879745
1796,1134.54294597234
1796.25,1135.27204671608
1796.5,1134.08355599746
1796.75,1131.96801194655
1797,1129.92424775367
1797.25,1128.9496197694
1797.5,1129.59672575124
1797.75,1131.35173007047
1798,1133.54426829216
1798.25,1135.50397598138
1798.5,1136.63776763748
1798.75,1137.27798969922
1799,1138.36714909546
1799.25,1140.85852754486
1799.5,1145.70462074198
1799.75,1153.13806307276
1800,1161.3417864918
1800.25,1168.13633169069
1800.5,1171.34223936105
1800.75,1168.90083176321
1801,1161.12626558423
1801.25,1150.50014698644
1801.5,1139.58368113807
1801.75,1130.93807320734
1802,1126.6711660119
1802.25,1126.03701363093
1802.5,1127.18205324699
1802.75,1128.25027580466
1803,1127.40877253862
1803.25,1124.23566174589
1803.5,1120.51065673212
1803.75,1118.20456059656
1804,1119.28817643846
1804.25,1125.31820887467
1804.5,1134.97041827392
1804.75,1145.6963581206
1805,1154.94310681406
1805.25,1160.18758373359
1805.5,1160.62595661063
1805.75,1158.07906918866
1806,1154.58891450118
1806.25,1152.19748558173
1806.5,1152.74272225286
1806.75,1155.97873036388
1807,1160.44053246749
1807.25,1164.6477880019
1807.5,1167.12046172006
1807.75,1166.84227788201
1808,1164.19451042612
1808.25,1159.82063603763
1808.5,1154.36413140175
1808.75,1148.47053623154
1809,1142.85403435396
1809.25,1138.31181798353
1809.5,1135.6460477694
1809.75,1135.6588843607
1810,1138.90767191617
1810.25,1144.2701960795
1810.5,1149.91940694139
1810.75,1154.0258371892
1811,1154.77372906828
1811.25,1151.60835624971
1811.5,1146.23486917155
1811.75,1140.59346810927
1812,1136.62435333835
1812.25,1136.12323382284
1812.5,1139.16181609788
1812.75,1144.67814828595
1813,1151.59039912034
1813.25,1158.81693799327
1813.5,1165.45564762006
1813.75,1171.11406776813
1814,1175.48957099711
1814.25,1178.27952986667
1814.5,1179.19628071484
1814.75,1178.3241881945
1815,1176.13581548661
1815.25,1173.12192542852
1815.5,1169.77328085761
1815.75,1166.53252725059
1816,1163.4474541422
1816.25,1160.37226333714
1816.5,1157.15982523283
1816.75,1153.66309462918
1817,1149.87641495268
1817.25,1146.22438891958
1817.5,1143.2131652128
1817.75,1141.34889251527
1818,1141.11373485416
1818.25,1142.37052117968
1818.5,1144.32262983916
1818.75,1146.14142151101
1819,1146.99825687365
1819.25,1146.33339056463
1819.5,1144.98914494998
1819.75,1144.26334281515
1820,1145.45404825831
1820.25,1149.84410599044
1820.5,1157.73950327028
1820.75,1167.89429214754
1821,1178.92450628225
1821.25,1189.44617933447
1821.5,1198.13917009946
1821.75,1204.27312424846
1822,1207.43653142137
1822.25,1207.22100421785
1822.5,1203.21815523756
1822.75,1195.3340767631
1823,1184.87516980627
1823.25,1173.53744937405
1823.5,1163.01694645627
1823.75,1155.00816393302
1824,1150.55065937923
1824.25,1149.01165587867
1824.5,1149.49529811562
1824.75,1151.1057307744
1825,1152.96362678296
1825.25,1154.52345771572
1825.5,1155.54960939361
1825.75,1155.81821074583
1826,1155.1053907016
1826.25,1153.31450277201
1826.5,1150.99535774696
1826.75,1148.90258921539
1827,1147.79091260345
1827.25,1148.40697091507
1827.5,1150.8759638836
1827.75,1154.27146311456
1828,1157.56539481395
1828.25,1159.72968518776
1828.5,1159.87827454882
1828.75,1158.54743456613
1829,1157.09303452092
1829.25,1156.88080518301
1829.5,1159.27628334075
1829.75,1164.91817057183
1830,1172.07762430501
1830.25,1178.54455204179
1830.5,1182.1088612837
1830.75,1180.62413175409
1831,1173.99862545538
1831.25,1164.58907985311
1831.5,1154.89542313043
1831.75,1147.41758347047
1832,1144.39388627128
1832.25,1145.40828242699
1832.5,1148.4996070877
1832.75,1151.68751730412
1833,1152.99270428969
1833.25,1151.25331475666
1833.5,1147.5919965799
1833.75,1143.52739998645
1834,1140.57817520338
1834.25,1140.20692706232
1834.5,1142.64081150838
1834.75,1146.90059694124
1835,1151.95681966576
1835.25,1156.78001598682
1835.5,1160.57537084893
1835.75,1163.64140519724
1836,1166.59483216751
1836.25,1170.05240084864
1836.5,1174.62117321287
1836.75,1180.27321838511
1837,1185.96413944422
1837.25,1190.55822333163
1837.5,1192.91975698876
1837.75,1192.00916788303
1838,1188.0704874185
1838.25,1182.2621720799
1838.5,1175.76231077075
1838.75,1169.74899239459
1839,1165.23918045183
1839.25,1162.25647432801
1839.5,1160.44625533029
1839.75,1159.45316464982
1840,1158.92203102905
1840.25,1158.54863415695
1840.5,1158.14849159327
1840.75,1157.55430496395
1841,1156.59877589496
1841.25,1155.13748252193
1841.5,1153.45450309949
1841.75,1152.21429913385
1842,1152.09454244709
1842.25,1153.7729048613
1842.5,1157.73682538985
1842.75,1163.51057730047
1843,1170.3143254931
1843.25,1177.36811831723
1843.5,1183.89406819362
1843.75,1189.26674135607
1844,1193.1151154862
1844.25,1195.0923155236
1844.5,1194.85146640788
1844.75,1192.09802032721
1845,1187.3933150741
1845.25,1181.99695537072
1845.5,1177.18893951088
1845.75,1174.2492657884
1846,1174.21271534974
1846.25,1176.31319377653
1846.5,1178.98190082902
1846.75,1180.64634435277
1847,1179.73472135031
1847.25,1175.45415124143
1847.5,1169.28559659728
1847.75,1163.12271045468
1848,1158.85914585043
1848.25,1158.35058708395
1848.5,1161.84826505467
1848.75,1167.44167524251
1849,1173.06777332696
1849.25,1176.66351498753
1849.5,1176.44537109912
1849.75,1173.02862325676
1850,1168.24941735787
1850.25,1163.95357096415
1850.5,1161.98685187158
1850.75,1163.62134836414
1851,1168.13145582645
1851.25,1174.35700534319
1851.5,1181.13782799897
1851.75,1187.32166615751
1852,1192.06674643478
1852.25,1194.93633067306
1852.5,1195.5209221125
1852.75,1193.41102399321
1853,1188.28557188883
1853.25,1180.88266948488
1853.5,1172.63883896639
1853.75,1165.00293968015
1854,1159.42383097293
1854.25,1157.0285579202
1854.5,1157.15263389763
1854.75,1158.51179991131
1855,1159.82119990613
1855.25,1159.80265085062
1855.5,1157.94935534313
1855.75,1155.23365306156
1856,1152.79520392341
1856.25,1151.77366784621
1856.5,1153.20987432878
1856.75,1156.74884467322
1857,1161.00202689518
1857.25,1164.55654188699
1857.5,1165.99951070804
1857.75,1164.45521780426
1858,1161.15308069261
1858.25,1157.83813952711
1858.5,1156.2554344618
1858.75,1158.12395574949
1859,1163.70224074682
1859.25,1171.04219625604
1859.5,1178.01242851649
1859.75,1182.48154376753
1860,1182.54959648575
1860.25,1178.58487724695
1860.5,1172.24064824556
1860.75,1165.18483170863
1861,1159.08534986321
1861.25,1155.27709267279
1861.5,1153.69342691674
1861.75,1153.89909577077
1862,1155.45884071137
1862.25,1157.93502541263
1862.5,1160.76057922392
1862.75,1163.17506891068
1863,1164.40224847834
1863.25,1163.66587193233
1863.5,1160.31145535716
1863.75,1154.86048094451
1864,1148.4929781979
1864.25,1142.3962188353
1864.5,1137.75740841075
1864.75,1135.50043063816
1865,1135.68772719434
1865.25,1138.20586011742
1865.5,1142.94139144553
1865.75,1149.75254594546
1866,1157.89063877217
1866.25,1166.0239922685
1866.5,1172.79737728989
1866.75,1176.85556469178
1867,1177.2573117582
1867.25,1175.0962765142
1867.5,1172.09030961735
1867.75,1169.95742640149
1868,1170.40943674894
1868.25,1174.16584774007
1868.5,1179.87313618738
1868.75,1185.91790142238
1869,1190.68674277658
1869.25,1192.64826188859
1869.5,1191.82017129554
1869.75,1189.60243177915
1870,1187.44349795175
1870.25,1186.79182442566
1870.5,1188.83019072728
1870.75,1192.61745810192
1871,1196.19393521664
1871.25,1197.59351308824
1871.5,1194.85010017223
1871.75,1186.87537955144
1872,1175.81106497362
1872.25,1164.54165309381
1872.5,1155.95164056707
1872.75,1152.91224812391
1873,1156.65473241372
1873.25,1165.20707469013
1873.5,1176.22666450022
1873.75,1187.37089139113
1874,1196.39702642088
1874.25,1202.36283561518
1874.5,1205.2364156161
1874.75,1205.00458608195
1875,1201.65416667103
1875.25,1195.32712061079
1875.5,1187.07954888492
1875.75,1178.30122620767
1876,1170.38241675369
1876.25,1164.71326009133
1876.5,1162.20523189512
1876.75,1162.2078367181
1877,1163.75249457915
1877.25,1165.87062549714
1877.5,1167.60511189365
1877.75,1168.42342295717
1878,1168.3327229776
1878.25,1167.37507640999
1878.5,1165.59254770941
1878.75,1163.07041226912
1879,1160.28239765703
1879.25,1157.90760462258
1879.5,1156.62699791152
1879.75,1157.12139784849
1880,1159.72218243222
1880.25,1163.66098235208
1880.5,1167.95363175586
1880.75,1171.61596479132
1881,1173.68922011311
1881.25,1173.95318610092
1881.5,1173.02365467358
1881.75,1171.56140692992
1882,1170.22722396877
1882.25,1169.61440990159
1882.5,1169.74929349032
1882.75,1170.37466812321
1883,1171.23122326291
1883.25,1172.05966297565
1883.5,1172.63571776003
1883.75,1172.84526900955
1884,1172.59579568895
1884.25,1171.79477676296
1884.5,1170.3563931335
1884.75,1168.46684100529
1885,1166.67246119944
1885.25,1165.54435867429
1885.5,1165.65363838821
1885.75,1167.4836814132
1886,1170.63974993546
1886.25,1174.22131561236
1886.5,1177.3217722732
1886.75,1179.03453542615
1887,1178.72539845262
1887.25,1176.71251938485
1887.5,1173.52208267801
1887.75,1169.68027278724
1888,1165.72450613425
1888.25,1162.88748314285
1888.5,1163.49206279994
1888.75,1169.95635373098
1889,1184.69846456136
1889.25,1209.71960282898
1889.5,1242.07552141865
1889.75,1275.58372034421
1890,1304.0055475952
1890.25,1321.10235116107
1890.5,1321.94276888949
1890.75,1308.81471871717
1891,1286.48450197299
1891.25,1259.72065476084
1891.5,1233.29171318451
1891.75,1211.76045877819
1892,1196.67463849782
1892.25,1187.29315532917
1892.5,1182.81786186501
1892.75,1182.45061069811
1893,1185.34783754567
1893.25,1190.21218200815
1893.5,1195.485272134
1893.75,1199.60561331663
1894,1201.01171094946
1894.25,1198.66710155066
1894.5,1193.78233813396
1894.75,1188.16898349138
1895,1183.63860684324
1895.25,1181.99964982551
1895.5,1184.10615175614
1895.75,1188.51794327159
1896,1193.45717133852
1896.25,1197.14598292361
1896.5,1197.8830980858
1896.75,1196.27488684929
1897,1195.58724763852
1897.25,1199.23347229213
1897.5,1210.62685264877
1897.75,1232.74103707893
1898,1263.19123076348
1898.25,1296.01426312849
1898.5,1325.18162883814
1898.75,1344.6648225566
1899,1349.24439517129
1899.25,1339.96028885924
1899.5,1320.77134439128
1899.75,1295.65278395682
1900,1268.57982974532
1900.25,1243.47534745521
1900.5,1222.20157041147
1900.75,1203.92918384944
1901,1187.64750457179
1901.25,1172.3458493812
1901.5,1157.03378738104
1901.75,1141.57740291393
1902,1126.99720388373
1902.25,1114.39520116639
1902.5,1104.87340563791
1902.75,1099.38267582912
1903,1097.48606662544
1903.25,1098.000248715
1903.5,1099.73470897804
1903.75,1101.50129191413
1904,1102.26536840727
1904.25,1101.23748738113
1904.5,1097.65015439841
1904.75,1090.73587502182
1905,1080.03635713801
1905.25,1066.67536110707
1905.5,1052.28128997661
1905.75,1038.48276495747
1906,1026.83328050056
1906.25,1017.55341840254
1906.5,1009.71916890774
1906.75,1002.36933386453
1907,994.561920212464
1907.25,985.997025087949
1907.5,977.152967719742
1907.75,968.554814753308
1908,960.713389716373
1908.25,953.683885278145
1908.5,946.980818592994
1908.75,940.087298454472
1909,932.523812350899
1909.25,924.420571167697
1909.5,916.404358728274
1909.75,909.116408112482
1910,903.085821195962
1910.25,898.089850635265
1910.5,893.596660568548
1910.75,889.074738301208
1911,884.267259561115
1911.25,879.532534015529
1911.5,875.312455588949
1911.75,872.000502105193
1912,869.366220443459
1912.25,866.745574413059
1912.5,863.466448315421
1912.75,859.202007223181
1913,854.531558967115
1913.25,850.181264330639
1913.5,846.81183171245
1913.75,844.376290513792
1914,842.395159462646
1914.25,840.386079473091
1914.5,838.143711468507
1914.75,835.943927484259
1915,834.110706747743
1915.25,832.839160413299
1915.5,831.682283871149
1915.75,829.993469192828
1916,827.187420909584
1916.25,823.630533996928
1916.5,820.439247735324
1916.75,818.741400066773
1917,818.811508379967
1917.25,819.376780725323
1917.5,819.001092028392
1917.75,816.717140618401
1918,813.437557870258
1918.25,810.546121146054
1918.5,809.274556498373
1918.75,809.406030848335
1919,809.921262414716
1919.25,809.820115091251
1919.5,808.791621483772
1919.75,807.244682972735
1920,805.620421343849
1920.25,804.154287974491
1920.5,802.674923427371
1920.75,800.963183843727
1921,798.882367477089
1921.25,796.606893244659
1921.5,794.384559082951
1921.75,792.436927500002
1922,790.801014157577
1922.25,789.434642125147
1922.5,788.285761038015
1922.75,787.179361262538
1923,785.855162756986
1923.25,784.062297777289
1923.5,781.826654528428
1923.75,779.462986765015
1924,777.29545409669
1924.25,775.417109950216
1924.5,773.572508219802
1924.75,771.478777149214
1925,769.064399821113
1925.25,766.689580235911
1925.5,764.766848748255
1925.75,763.52178057072
1926,762.690640915018
1926.25,761.930674172308
1926.5,760.999511137593
1926.75,759.967587279691
1927,758.966088220317
1927.25,758.028655741794
1927.5,756.838503890718
1927.75,755.000182820541
1928,752.354297911588
1928.25,749.685901202008
1928.5,748.016212845495
1928.75,748.038624975519
1929,749.054007179094
1929.25,749.993554034498
1929.5,750.01791547057
1929.75,749.239136860975
1930,748.015807718623
1930.25,746.660971751058
1930.5,745.298856610428
1930.75,744.00476823667
1931,742.843015827904
1931.25,741.833409354279
1931.5,740.984504185984
1931.75,740.284458599663
1932,739.644635893399
1932.25,738.958338164298
1932.5,738.177229471766
1932.75,737.450284090493
1933,736.968067972102
1933.25,736.83697446183
1933.5,736.91350860264
1933.75,737.008188438596
1934,737.004963971469
1934.25,736.975294609115
1934.5,737.019690146699
1934.75,737.148691240694
1935,737.174567548486
1935.25,736.885207218503
1935.5,736.303455913031
1935.75,735.900466786326
1936,736.192969340265
1936.25,737.348488353739
1936.5,738.956045096625
1936.75,740.553451961696
1937,741.832395299558
1937.25,742.704050852952
1937.5,743.100435445846
1937.75,743.105666608806
1938,742.999059298837
1938.25,743.063305969582
1938.5,743.276452108272
1938.75,743.253320931332
1939,742.604661852888
1939.25,741.420172547091
1939.5,740.320191623882
1939.75,739.928628939533
1940,740.287513282351
1940.25,740.839712426521
1940.5,741.022566407605
1940.75,740.715269373708
1941,740.206843238777
1941.25,739.794400290175
1941.5,739.647174823337
1941.75,739.826459267873
1942,740.368234334369
1942.25,740.986742806928
1942.5,741.151755203864
1942.75,740.402847355057
1943,739.235253111549
1943.25,738.797389002433
1943.5,740.118703435834
1943.75,742.775705208011
1944,745.442925081705
1944.25,746.92604661532
1944.5,747.400246815632
1944.75,747.795504712342
1945,748.945152997855
1945.25,750.745392746717
1945.5,752.598062293963
1945.75,753.982797781084
1946,755.096999825599
1946.25,756.508440755692
1946.5,758.71062322275
1946.75,761.494398742108
1947,764.275984938236
1947.25,766.580883245731
1947.5,769.061758098803
1947.75,773.019697864806
1948,779.485224835619
1948.25,786.041552219044
1948.5,787.94296359244
1948.75,780.999920985277
1949,772.078903470458
1949.25,777.763848156502
1949.5,814.087972453079
1949.75,863.898722596761
1950,863.932211559115
1950.25,863.96570052147
1950.5,863.999189483825
1950.75,864.03267844618
1951,864.066167408535
1951.25,864.09965637089
1951.5,864.133145333245
1951.75,864.1666342956
1952,864.200123257955
1952.25,864.23361222031
1952.5,864.267101182665
1952.75,864.300590145019
1953,864.334079107374
1953.25,864.367568069729
1953.5,864.401057032084
1953.75,864.434545994439
1954,864.468034956794
1954.25,864.501523919149
1954.5,864.535012881504
1954.75,864.568501843859
1955,864.601990806214
1955.25,864.635479768569
1955.5,864.668968730923
1955.75,864.702457693278
1956,864.735946655633
1956.25,864.769435617988
1956.5,864.802924580343
1956.75,864.836413542698
1957,864.869902505053
1957.25,864.903391467408
1957.5,864.936880429763
1957.75,864.970369392118
1958,865.003858354473
1958.25,865.037347316827
1958.5,865.070836279182
1958.75,865.104325241537
1959,865.137814203892
1959.25,865.171303166247
1959.5,865.204792128602
1959.75,865.238281090957
1960,865.271770053312
1960.25,865.305259015667
1960.5,865.338747978022
1960.75,865.372236940377
1961,865.405725902731
1961.25,865.439214865086
1961.5,865.472703827441
1961.75,865.506192789796
1962,865.539681752151
1962.25,865.573170714506
1962.5,865.606659676861
1962.75,865.640148639216
1963,865.673637601571
1963.25,865.707126563926
1963.5,865.740615526281
1963.75,865.774104488635
1964,865.80759345099
1964.25,865.841082413345
1964.5,865.8745713757
1964.75,865.908060338055
1965,865.94154930041
1965.25,865.975038262765
1965.5,866.00852722512
1965.75,866.042016187475
1966,866.07550514983
1966.25,866.108994112185
1966.5,866.142483074539
1966.75,866.175972036894
1967,866.209460999249
1967.25,866.242949961604
1967.5,866.276438923959
1967.75,866.309927886314
1968,866.343416848669
1968.25,866.376905811024
1968.5,866.410394773379
1968.75,866.443883735734
1969,866.477372698089
1969.25,866.510861660443
1969.5,866.544350622798
1969.75,866.577839585153
1970,866.611328547508
1970.25,866.644817509863
1970.5,866.678306472218
1970.75,866.711795434573
1971,866.745284396928
1971.25,866.778773359283
1971.5,866.812262321638
1971.75,866.845751283993
1972,866.879240246347
1972.25,866.912729208702
1972.5,866.946218171057
1972.75,866.979707133412
1973,867.013196095767
1973.25,867.046685058122
1973.5,867.080174020477
1973.75,867.113662982832
1974,867.147151945187
1974.25,867.180640907542
1974.5,867.214129869897
1974.75,867.247618832251
1975,867.281107794606
1975.25,867.314596756961
1975.5,867.348085719316
1975.75,867.381574681671
1976,867.415063644026
1976.25,867.448552606381
1976.5,867.482041568736
1976.75,867.515530531091
1977,867.549019493446
1977.25,867.582508455801
1977.5,867.615997418155
1977.75,867.64948638051
1978,867.682975342865
1978.25,867.71646430522
1978.5,867.749953267575
1978.75,867.78344222993
1979,867.816931192285
1979.25,867.85042015464
1979.5,867.883909116995
1979.75,867.91739807935
1980,867.950887041705
1980.25,867.984376004059
1980.5,868.017864966414
1980.75,868.051353928769
1981,868.084842891124
1981.25,868.118331853479
1981.5,868.151820815834
1981.75,868.185309778189
1982,868.218798740544
1982.25,868.252287702899
1982.5,868.285776665254
1982.75,868.319265627609
1983,868.352754589963
1983.25,868.386243552318
1983.5,868.419732514673
1983.75,868.453221477028
1984,868.486710439383
1984.25,868.520199401738
1984.5,868.553688364093
1984.75,868.587177326448
1985,868.620666288803
1985.25,868.654155251157
1985.5,868.687644213512
1985.75,868.721133175867
1986,868.754622138222
1986.25,868.788111100577
1986.5,868.821600062932
1986.75,868.855089025287
1987,868.888577987642
1987.25,868.922066949997
1987.5,868.955555912352
1987.75,868.989044874707
1988,869.022533837061
1988.25,869.056022799416
1988.5,869.089511761771
1988.75,869.123000724126
1989,869.156489686481
1989.25,869.189978648836
1989.5,869.223467611191
1989.75,869.256956573546
1990,869.290445535901
1990.25,869.323934498256
1990.5,869.357423460611
1990.75,869.390912422965
1991,869.42440138532
1991.25,869.457890347675
1991.5,869.49137931003
1991.75,869.524868272385
1992,869.55835723474
1992.25,869.591846197095
1992.5,869.62533515945
1992.75,869.658824121805
1993,869.69231308416
1993.25,869.725802046515
1993.5,869.759291008869
1993.75,869.792779971224
1994,869.826268933579
1994.25,869.859757895934
1994.5,869.893246858289
1994.75,869.926735820644
1995,869.960224782999
1995.25,869.993713745354
1995.5,870.027202707709
1995.75,870.060691670064
1996,870.094180632419
1996.25,870.127669594773
1996.5,870.161158557128
1996.75,870.194647519483
1997,870.228136481838
1997.25,870.261625444193
1997.5,870.295114406548
1997.75,870.328603368903
1998,870.362092331258
1998.25,870.395581293613
1998.5,870.429070255968
1998.75,870.462559218323
1999,870.496048180677
1999.25,870.529537143032
1999.5,870.563026105387
1999.75,870.596515067742
2000,870.630004030097
2000.25,870.663492992452
2000.5,870.696981954807
2000.75,870.730470917162
2001,870.763959879517
2001.25,870.797448841872
2001.5,870.830937804227
2001.75,870.864426766581
2002,870.897915728936
2002.25,870.931404691291
2002.5,870.964893653646
2002.75,870.998382616001
2003,871.031871578356
2003.25,871.065360540711
2003.5,871.098849503066
2003.75,871.132338465421
2004,871.165827427776
2004.25,871.199316390131
2004.5,871.232805352485
2004.75,871.26629431484
2005,871.299783277195
2005.25,871.33327223955
2005.5,871.366761201905
2005.75,871.40025016426
2006,871.433739126615
2006.25,871.46722808897
2006.5,871.500717051325
2006.75,871.53420601368
2007,871.567694976035
2007.25,871.601183938389
2007.5,871.634672900744
2007.75,871.668161863099
2008,871.701650825454
2008.25,871.735139787809
2008.5,871.768628750164
2008.75,871.802117712519
2009,871.835606674874
2009.25,871.869095637229
2009.5,871.902584599584
2009.75,871.936073561939
2010,871.969562524293
2010.25,872.003051486648
2010.5,872.036540449003
2010.75,872.070029411358
2011,872.103518373713
2011.25,872.137007336068
2011.5,872.170496298423
2011.75,872.203985260778
2012,872.237474223133
2012.25,872.270963185488
2012.5,872.304452147843
2012.75,872.337941110197
2013,872.371430072552
2013.25,872.404919034907
2013.5,872.438407997262
2013.75,872.471896959617
2014,872.505385921972
2014.25,872.538874884327
2014.5,872.572363846682
2014.75,872.605852809037
2015,872.639341771392
2015.25,872.672830733747
2015.5,872.706319696101
2015.75,872.739808658456
2016,872.773297620811
2016.25,872.806786583166
2016.5,872.840275545521
2016.75,872.873764507876
2017,872.907253470231
2017.25,872.940742432586
2017.5,872.974231394941
2017.75,873.007720357296
2018,873.041209319651
2018.25,873.074698282005
2018.5,873.10818724436
2018.75,873.141676206715
2019,873.17516516907
2019.25,873.208654131425
2019.5,873.24214309378
2019.75,873.275632056135
2020,873.30912101849
2020.25,873.342609980845
2020.5,873.3760989432
2020.75,873.409587905555
2021,873.443076867909
2021.25,873.476565830264
2021.5,873.510054792619
2021.75,873.543543754974
2022,873.577032717329
2022.25,873.610521679684
2022.5,873.644010642039
2022.75,873.677499604394
2023,873.710988566749
2023.25,873.744477529104
2023.5,873.777966491459
2023.75,873.811455453813
2024,873.844944416168
2024.25,873.878433378523
2024.5,873.911922340878
2024.75,873.945411303233
2025,873.978900265588
2025.25,874.012389227943
2025.5,874.045878190298
2025.75,874.079367152653
2026,874.112856115008
2026.25,874.146345077363
2026.5,874.179834039717
2026.75,874.213323002072
2027,874.246811964427
2027.25,874.280300926782
2027.5,874.313789889137
2027.75,874.347278851492
2028,874.380767813847
2028.25,874.414256776202
2028.5,874.447745738557
2028.75,874.481234700912
2029,874.514723663267
2029.25,874.548212625621
2029.5,874.581701587976
2029.75,874.615190550331
2030,874.648679512686
2030.25,874.682168475041
2030.5,874.715657437396
2030.75,874.749146399751
2031,874.782635362106
2031.25,874.816124324461
2031.5,874.849613286816
2031.75,874.883102249171
2032,874.916591211525
2032.25,874.95008017388
2032.5,874.983569136235
2032.75,875.01705809859
2033,875.050547060945
2033.25,875.0840360233
2033.5,875.117524985655
2033.75,875.15101394801
2034,875.184502910365
2034.25,875.21799187272
2034.5,875.251480835075
2034.75,875.284969797429
2035,875.318458759784
2035.25,875.351947722139
2035.5,875.385436684494
2035.75,875.418925646849
2036,875.452414609204
2036.25,875.485903571559
2036.5,875.519392533914
2036.75,875.552881496269
2037,875.586370458624
2037.25,875.619859420979
2037.5,875.653348383333
2037.75,875.686837345688
2038,875.720326308043
2038.25,875.753815270398
2038.5,875.787304232753
2038.75,875.820793195108
2039,875.854282157463
2039.25,875.887771119818
2039.5,875.921260082173
2039.75,875.954749044528
2040,875.988238006883
2040.25,876.021726969237
2040.5,876.055215931592
2040.75,876.088704893947
2041,876.122193856302
2041.25,876.155682818657
2041.5,876.189171781012
2041.75,876.222660743367
2042,876.256149705722
2042.25,876.289638668077
2042.5,876.323127630432
2042.75,876.356616592787
2043,876.390105555141
2043.25,876.423594517496
2043.5,876.457083479851
2043.75,876.490572442206
2044,876.524061404561
2044.25,876.557550366916
2044.5,876.591039329271
2044.75,876.624528291626
2045,876.658017253981
2045.25,876.691506216336
2045.5,876.724995178691
2045.75,876.758484141045
2046,876.7919731034
2046.25,876.825462065755
2046.5,876.85895102811
2046.75,876.892439990465
2047,876.92592895282
2047.25,876.959417915175
2047.5,876.99290687753
2047.75,877.026395839885
2048,877.05988480224
2048.25,877.093373764595
2048.5,877.126862726949
2048.75,877.160351689304
2049,877.193840651659
2049.25,877.227329614014
2049.5,877.260818576369
2049.75,877.294307538724
2050,877.327796501079
2050.25,877.361285463434
2050.5,877.394774425789
2050.75,877.428263388143
2051,877.461752350498
2051.25,877.495241312853
2051.5,877.528730275208
2051.75,877.562219237563
2052,877.595708199918
2052.25,877.629197162273
2052.5,877.662686124628
2052.75,877.696175086983
2053,877.729664049338
2053.25,877.763153011693
2053.5,877.796641974047
2053.75,877.830130936402
2054,877.863619898757
2054.25,877.897108861112
2054.5,877.930597823467
2054.75,877.964086785822
2055,877.997575748177
2055.25,878.031064710532
2055.5,878.064553672887
2055.75,878.098042635242
2056,878.131531597597
2056.25,878.165020559951
2056.5,878.198509522306
2056.75,878.231998484661
2057,878.265487447016
2057.25,878.298976409371
2057.5,878.332465371726
2057.75,878.365954334081
2058,878.399443296436
2058.25,878.432932258791
2058.5,878.466421221146
2058.75,878.499910183501
2059,878.533399145855
2059.25,878.56688810821
2059.5,878.600377070565
2059.75,878.63386603292
2060,878.667354995275
2060.25,878.70084395763
2060.5,878.734332919985
2060.75,878.76782188234
2061,878.801310844695
2061.25,878.83479980705
2061.5,878.868288769405
2061.75,878.901777731759
2062,878.935266694114
2062.25,878.968755656469
2062.5,879.002244618824
2062.75,879.035733581179
2063,879.069222543534
2063.25,879.102711505889
2063.5,879.136200468244
2063.75,879.169689430599
2064,879.203178392954
2064.25,879.236667355309
2064.5,879.270156317663
2064.75,879.303645280018
2065,879.337134242373
2065.25,879.370623204728
2065.5,879.404112167083
2065.75,879.437601129438
2066,879.471090091793
2066.25,879.504579054148
2066.5,879.538068016503
2066.75,879.571556978858
2067,879.605045941213
2067.25,879.638534903567
2067.5,879.672023865922
2067.75,879.705512828277
2068,879.739001790632
2068.25,879.772490752987
2068.5,879.805979715342
2068.75,879.839468677697
2069,879.872957640052
2069.25,879.906446602407
2069.5,879.939935564762
2069.75,879.973424527117
2070,880.006913489471
2070.25,880.040402451826
2070.5,880.073891414181
2070.75,880.107380376536
2071,880.140869338891
2071.25,880.174358301246
2071.5,880.207847263601
2071.75,880.241336225956
2072,880.274825188311
2072.25,880.308314150666
2072.5,880.341803113021
2072.75,880.375292075375
2073,880.40878103773
2073.25,880.442270000085
2073.5,880.47575896244
2073.75,880.509247924795
2074,880.54273688715
2074.25,880.576225849505
2074.5,880.60971481186
2074.75,880.643203774215
2075,880.67669273657
2075.25,880.710181698925
2075.5,880.743670661279
2075.75,880.777159623634
2076,880.810648585989
2076.25,880.844137548344
2076.5,880.877626510699
2076.75,880.911115473054
2077,880.944604435409
2077.25,880.978093397764
2077.5,881.011582360119
2077.75,881.045071322474
2078,881.078560284829
2078.25,881.112049247183
2078.5,881.145538209538
2078.75,881.179027171893
2079,881.212516134248
2079.25,881.246005096603
2079.5,881.279494058958
2079.75,881.312983021313
2080,881.346471983668
2080.25,881.379960946023
2080.5,881.413449908378
2080.75,881.446938870733
2081,881.480427833087
2081.25,881.513916795442
2081.5,881.547405757797
2081.75,881.580894720152
2082,881.614383682507
2082.25,881.647872644862
2082.5,881.681361607217
2082.75,881.714850569572
2083,881.748339531927
2083.25,881.781828494282
2083.5,881.815317456637
2083.75,881.848806418991
2084,881.882295381346
2084.25,881.915784343701
2084.5,881.949273306056
2084.75,881.982762268411
2085,882.016251230766
2085.25,882.049740193121
2085.5,882.083229155476
2085.75,882.116718117831
2086,882.150207080186
2086.25,882.183696042541
2086.5,882.217185004895
2086.75,882.25067396725
2087,882.284162929605
2087.25,882.31765189196
2087.5,882.351140854315
2087.75,882.38462981667
2088,882.418118779025
2088.25,882.45160774138
2088.5,882.485096703735
2088.75,882.51858566609
2089,882.552074628445
2089.25,882.585563590799
2089.5,882.619052553154
2089.75,882.652541515509
2090,882.686030477864
2090.25,882.719519440219
2090.5,882.753008402574
2090.75,882.786497364929
2091,882.819986327284
2091.25,882.853475289639
2091.5,882.886964251994
2091.75,882.920453214349
2092,882.953942176703
2092.25,882.987431139058
2092.5,883.020920101413
2092.75,883.054409063768
2093,883.087898026123
2093.25,883.121386988478
2093.5,883.154875950833
2093.75,883.188364913188
2094,883.221853875543
2094.25,883.255342837898
2094.5,883.288831800253
2094.75,883.322320762607
2095,883.355809724962
2095.25,883.389298687317
2095.5,883.422787649672
2095.75,883.456276612027
2096,883.489765574382
2096.25,883.523254536737
2096.5,883.556743499092
2096.75,883.590232461447
2097,883.623721423802
2097.25,883.657210386157
2097.5,883.690699348511
2097.75,883.724188310866
2098,883.757677273221
2098.25,883.791166235576
2098.5,883.824655197931
2098.75,883.858144160286
2099,883.891633122641
2099.25,883.925122084996
2099.5,883.958611047351
2099.75,883.992100009706
2100,884.025588972061
2100.25,884.059077934415
2100.5,884.09256689677
2100.75,884.126055859125
2101,884.15954482148
2101.25,884.193033783835
2101.5,884.22652274619
2101.75,884.260011708545
2102,884.2935006709
2102.25,884.326989633255
2102.5,884.36047859561
2102.75,884.393967557965
2103,884.427456520319
2103.25,884.460945482674
2103.5,884.494434445029
2103.75,884.527923407384
2104,884.561412369739
2104.25,884.594901332094
2104.5,884.628390294449
2104.75,884.661879256804
2105,884.695368219159
2105.25,884.728857181514
2105.5,884.762346143869
2105.75,884.795835106223
2106,884.829324068578
2106.25,884.862813030933
2106.5,884.896301993288
2106.75,884.929790955643
2107,884.963279917998
2107.25,884.996768880353
2107.5,885.030257842708
2107.75,885.063746805063
2108,885.097235767418
2108.25,885.130724729773
2108.5,885.164213692127
2108.75,885.197702654482
2109,885.231191616837
2109.25,885.264680579192
2109.5,885.298169541547
2109.75,885.331658503902
2110,885.365147466257
2110.25,885.398636428612
2110.5,885.432125390967
2110.75,885.465614353322
2111,885.499103315677
2111.25,885.532592278031
2111.5,885.566081240386
2111.75,885.599570202741
2112,885.633059165096
2112.25,885.666548127451
2112.5,885.700037089806
2112.75,885.733526052161
2113,885.767015014516
2113.25,885.800503976871
2113.5,885.833992939226
2113.75,885.867481901581
2114,885.900970863935
2114.25,885.93445982629
2114.5,885.967948788645
2114.75,886.001437751
2115,886.034926713355
2115.25,886.06841567571
2115.5,886.101904638065
2115.75,886.13539360042
2116,886.168882562775
2116.25,886.202371525129
2116.5,886.235860487484
2116.75,886.269349449839
2117,886.302838412194
2117.25,886.336327374549
2117.5,886.369816336904
2117.75,886.403305299259
2118,886.436794261614
2118.25,886.470283223969
2118.5,886.503772186324
2118.75,886.537261148679
2119,886.570750111033
2119.25,886.604239073388
2119.5,886.637728035743
2119.75,886.671216998098
2120,886.704705960453
2120.25,886.738194922808
2120.5,886.771683885163
2120.75,886.805172847518
2121,886.838661809873
2121.25,886.872150772228
2121.5,886.905639734583
2121.75,886.939128696937
2122,886.972617659292
2122.25,887.006106621647
2122.5,887.039595584002
2122.75,887.073084546357
2123,887.106573508712
2123.25,887.140062471067
2123.5,887.173551433422
2123.75,887.207040395777
2124,887.240529358132
2124.25,887.274018320487
2124.5,887.307507282841
2124.75,887.340996245196
2125,887.374485207551
2125.25,887.407974169906
2125.5,887.441463132261
2125.75,887.474952094616
2126,887.508441056971
2126.25,887.541930019326
2126.5,887.575418981681
2126.75,887.608907944036
2127,887.642396906391
2127.25,887.675885868745
2127.5,887.7093748311
2127.75,887.742863793455
2128,887.77635275581
2128.25,887.809841718165
2128.5,887.84333068052
2128.75,887.876819642875
2129,887.91030860523
2129.25,887.943797567585
2129.5,887.97728652994
2129.75,888.010775492295
2130,888.044264454649
2130.25,888.077753417004
2130.5,888.111242379359
2130.75,888.144731341714
2131,888.178220304069
2131.25,888.211709266424
2131.5,888.245198228779
2131.75,888.278687191134
2132,888.312176153489
2132.25,888.345665115844
2132.5,888.379154078199
2132.75,888.412643040553
2133,888.446132002908
2133.25,888.479620965263
2133.5,888.513109927618
2133.75,888.546598889973
2134,888.580087852328
2134.25,888.613576814683
2134.5,888.647065777038
2134.75,888.680554739393
2135,888.714043701748
2135.25,888.747532664103
2135.5,888.781021626457
2135.75,888.814510588812
2136,888.847999551167
2136.25,888.881488513522
2136.5,888.914977475877
2136.75,888.948466438232
2137,888.981955400587
2137.25,889.015444362942
2137.5,889.048933325297
2137.75,889.082422287652
2138,889.115911250007
2138.25,889.149400212361
2138.5,889.182889174716
2138.75,889.216378137071
2139,889.249867099426
2139.25,889.283356061781
2139.5,889.316845024136
2139.75,889.350333986491
2140,889.383822948846
2140.25,889.417311911201
2140.5,889.450800873556
2140.75,889.484289835911
2141,889.517778798265
2141.25,889.55126776062
2141.5,889.584756722975
2141.75,889.61824568533
2142,889.651734647685
2142.25,889.68522361004
2142.5,889.718712572395
2142.75,889.75220153475
2143,889.785690497105
2143.25,889.81917945946
2143.5,889.852668421815
2143.75,889.886157384169
2144,889.919646346524
2144.25,889.953135308879
2144.5,889.986624271234
2144.75,890.020113233589
2145,890.053602195944
2145.25,890.087091158299
2145.5,890.120580120654
2145.75,890.154069083009
2146,890.187558045364
2146.25,890.221047007719
2146.5,890.254535970073
2146.75,890.288024932428
2147,921.015649311265
2147.25,959.284516852283
2147.5,997.954651174764
2147.75,1030.62190131304
2148,1054.67431829837
2148.25,1068.71810154464
2148.5,1071.3600207559
2148.75,1061.40685021156
2149,1038.70849556148
2149.25,1003.45383636296
2149.5,1002.77951987574
2149.75,1002.10520338853
2150,1001.43088690131
2150.25,1000.7565704141
2150.5,1000.08225392688
2150.75,999.407937439665
2151,998.733620952449
2151.25,998.059304465234
2151.5,997.384987978018
2151.75,996.710671490803
2152,996.036355003587
2152.25,995.362038516372
2152.5,994.687722029156
2152.75,994.013405541941
2153,993.339089054725
2153.25,992.66477256751
2153.5,991.990456080294
2153.75,991.316139593079
2154,990.641823105863
2154.25,989.967506618648
2154.5,989.293190131432
2154.75,988.618873644217
2155,987.944557157001
2155.25,987.270240669786
2155.5,986.59592418257
2155.75,985.921607695355
2156,985.247291208139
2156.25,984.572974720924
2156.5,983.898658233708
2156.75,983.224341746493
2157,982.550025259277
2157.25,981.875708772062
2157.5,981.201392284846
2157.75,980.527075797631
2158,979.852759310415
2158.25,979.1784428232
2158.5,978.504126335984
2158.75,977.829809848769
2159,977.155493361553
2159.25,976.481176874338
2159.5,975.806860387122
2159.75,975.132543899907
2160,974.458227412691
2160.25,973.783910925476
2160.5,973.10959443826
2160.75,972.435277951045
2161,971.760961463829
2161.25,971.086644976614
2161.5,970.412328489398
2161.75,969.738012002183
2162,969.063695514967
2162.25,968.389379027752
2162.5,967.715062540536
2162.75,967.040746053321
2163,966.366429566105
2163.25,965.69211307889
2163.5,965.017796591674
2163.75,964.343480104459
2164,963.669163617243
2164.25,962.994847130028
2164.5,962.320530642812
2164.75,961.646214155597
2165,960.971897668381
2165.25,960.297581181166
2165.5,959.62326469395
2165.75,958.948948206735
2166,958.274631719519
2166.25,957.600315232304
2166.5,956.925998745088
2166.75,956.251682257873
2167,955.577365770657
2167.25,954.903049283442
2167.5,954.228732796226
2167.75,953.554416309011
2168,952.880099821795
2168.25,952.20578333458
2168.5,951.531466847364
2168.75,950.857150360149
2169,950.182833872933
2169.25,949.508517385718
2169.5,948.834200898502
2169.75,948.159884411287
2170,947.485567924071
2170.25,946.811251436856
2170.5,946.13693494964
2170.75,945.462618462425
2171,944.788301975209
2171.25,944.113985487994
2171.5,943.439669000778
2171.75,942.765352513563
2172,942.091036026347
2172.25,941.416719539132
2172.5,940.742403051916
2172.75,940.068086564701
2173,939.393770077485
2173.25,938.71945359027
2173.5,938.045137103054
2173.75,937.370820615839
2174,936.696504128623
2174.25,936.022187641408
2174.5,935.347871154192
2174.75,934.673554666977
2175,933.999238179761
2175.25,933.324921692546
2175.5,932.65060520533
2175.75,931.976288718115
2176,931.301972230899
2176.25,930.627655743684
2176.5,929.953339256468
2176.75,929.279022769253
2177,928.604706282037
2177.25,927.930389794822
2177.5,927.256073307606
2177.75,926.581756820391
2178,925.907440333175
2178.25,925.23312384596
2178.5,924.558807358745
2178.75,923.884490871529
2179,923.210174384314
2179.25,922.535857897098
2179.5,921.861541409883
2179.75,921.187224922667
2180,920.512908435451
2180.25,919.838591948236
2180.5,919.16427546102
2180.75,918.489958973805
2181,917.815642486589
2181.25,917.141325999374
2181.5,916.467009512158
2181.75,915.792693024943
2182,915.118376537728
2182.25,914.444060050512
2182.5,913.769743563297
2182.75,913.095427076081
2183,912.421110588866
2183.25,911.74679410165
2183.5,911.072477614435
2183.75,910.398161127219
2184,909.723844640004
2184.25,909.049528152788
2184.5,908.375211665573
2184.75,907.700895178357
2185,907.026578691142
2185.25,906.352262203926
2185.5,905.677945716711
2185.75,905.003629229495
2186,904.32931274228
2186.25,903.654996255064
2186.5,902.980679767849
2186.75,902.306363280633
2187,901.632046793418
2187.25,900.957730306202
2187.5,900.283413818987
2187.75,899.609097331771
2188,898.934780844556
2188.25,898.26046435734
2188.5,897.586147870125
2188.75,896.911831382909
2189,896.237514895694
2189.25,895.563198408478
2189.5,894.888881921263
2189.75,894.214565434047
2190,893.540248946832
2190.25,892.865932459616
2190.5,892.191615972401
2190.75,1036.23718659822
2191,1054.99462090522
2191.25,988.265510071249
2191.5,891.706822093704
2191.75,820.938017284112
2192,809.473449686696
2192.25,831.509847946954
2192.5,851.397486925884
2192.75,839.090075778021
2193,802.527045414961
2193.25,803.357140493642
2193.5,804.187235572322
2193.75,805.017330651003
2194,805.847425729684
2194.25,806.677520808364
2194.5,807.507615887045
2194.75,808.337710965726
2195,809.167806044407
2195.25,809.997901123087
2195.5,810.827996201768
2195.75,811.658091280449
2196,812.488186359129
2196.25,813.31828143781
2196.5,814.148376516491
2196.75,814.978471595172
2197,815.808566673852
2197.25,816.638661752533
2197.5,817.468756831214
2197.75,818.298851909894
2198,819.128946988575
2198.25,819.959042067256
2198.5,820.789137145936
2198.75,821.619232224617
2199,822.449327303298
2199.25,823.279422381979
2199.5,824.109517460659
2199.75,824.93961253934
2200,825.769707618021
2200.25,826.599802696701
2200.5,827.429897775382
2200.75,828.259992854063
2201,829.090087932743
2201.25,829.920183011424
2201.5,830.750278090105
2201.75,831.580373168786
2202,832.410468247466
2202.25,833.240563326147
2202.5,834.070658404828
2202.75,834.900753483508
2203,835.730848562189
2203.25,836.56094364087
2203.5,837.391038719551
2203.75,838.221133798231
2204,839.051228876912
2204.25,839.881323955593
2204.5,840.711419034273
2204.75,841.541514112954
2205,842.371609191635
2205.25,843.201704270316
2205.5,844.031799348996
2205.75,844.861894427677
2206,845.691989506358
2206.25,846.522084585038
2206.5,847.352179663719
2206.75,848.1822747424
2207,849.01236982108
2207.25,849.842464899761
2207.5,850.672559978442
2207.75,851.502655057123
2208,852.332750135803
2208.25,853.162845214484
2208.5,853.992940293165
2208.75,854.823035371845
2209,855.653130450526
2209.25,856.483225529207
2209.5,857.313320607888
2209.75,858.143415686568
2210,858.973510765249
2210.25,859.80360584393
2210.5,860.63370092261
2210.75,861.463796001291
2211,862.293891079972
2211.25,863.123986158653
2211.5,863.954081237333
2211.75,864.784176316014
2212,865.614271394695
2212.25,866.444366473375
2212.5,867.274461552056
2212.75,868.104556630737
2213,868.934651709417
2213.25,869.764746788098
2213.5,870.594841866779
2213.75,871.42493694546
2214,872.25503202414
2214.25,873.085127102821
2214.5,873.915222181502
2214.75,874.745317260182
2215,875.575412338863
2215.25,876.405507417544
2215.5,877.235602496224
2215.75,878.065697574905
2216,878.895792653586
2216.25,879.725887732267
2216.5,880.555982810947
2216.75,881.386077889628
2217,882.216172968309
2217.25,883.046268046989
2217.5,883.87636312567
2217.75,884.706458204351
2218,885.536553283032
2218.25,886.366648361712
2218.5,887.196743440393
2218.75,888.026838519074
2219,888.856933597754
2219.25,889.687028676435
2219.5,890.517123755116
2219.75,891.347218833797
2220,892.177313912477
2220.25,893.007408991158
2220.5,893.837504069839
2220.75,894.667599148519
2221,895.4976942272
2221.25,896.327789305881
2221.5,897.157884384562
2221.75,897.987979463242
2222,898.818074541923
2222.25,899.648169620604
2222.5,900.478264699284
2222.75,901.308359777965
2223,902.138454856646
2223.25,902.968549935326
2223.5,903.798645014007
2223.75,904.628740092688
2224,905.458835171369
2224.25,906.288930250049
2224.5,907.11902532873
2224.75,907.949120407411
2225,908.779215486091
2225.25,909.609310564772
2225.5,910.439405643453
2225.75,911.269500722134
2226,912.099595800814
2226.25,912.929690879495
2226.5,913.759785958176
2226.75,914.589881036856
2227,922.14504087088
2227.25,930.920692533104
2227.5,940.226050467958
2227.75,949.205305812564
2228,954.470575813283
2228.25,950.652136424926
2228.5,932.327361861122
2228.75,897.508472180532
2229,868.194730962058
2229.25,876.612574058777
2229.5,876.754938813546
2229.75,876.897303568314
2230,877.039668323083
2230.25,877.182033077852
2230.5,877.324397832621
2230.75,877.466762587389
2231,877.609127342158
2231.25,877.751492096927
2231.5,877.893856851696
2231.75,878.036221606464
2232,878.178586361233
2232.25,878.320951116002
2232.5,878.463315870771
2232.75,878.60568062554
2233,878.748045380308
2233.25,878.890410135077
2233.5,879.032774889846
2233.75,879.175139644615
2234,879.317504399383
2234.25,879.459869154152
2234.5,879.602233908921
2234.75,879.74459866369
2235,879.886963418458
2235.25,880.029328173227
2235.5,880.171692927996
2235.75,880.314057682765
2236,880.456422437534
2236.25,880.598787192302
2236.5,880.741151947071
2236.75,880.88351670184
2237,881.025881456609
2237.25,881.168246211377
2237.5,881.310610966146
2237.75,881.452975720915
2238,881.595340475684
2238.25,881.737705230452
2238.5,881.880069985221
2238.75,882.02243473999
2239,882.164799494759
2239.25,882.307164249528
2239.5,882.449529004296
2239.75,882.591893759065
2240,882.734258513834
2240.25,882.876623268603
2240.5,883.018988023371
2240.75,883.16135277814
2241,883.303717532909
2241.25,883.446082287678
2241.5,883.588447042446
2241.75,883.730811797215
2242,883.873176551984
2242.25,884.015541306753
2242.5,884.157906061521
2242.75,884.30027081629
2243,884.442635571059
2243.25,884.585000325828
2243.5,884.727365080597
2243.75,884.869729835365
2244,885.012094590134
2244.25,885.154459344903
2244.5,885.296824099672
2244.75,885.43918885444
2245,885.581553609209
2245.25,885.723918363978
2245.5,885.866283118747
2245.75,886.008647873515
2246,886.151012628284
2246.25,886.293377383053
2246.5,886.435742137822
2246.75,886.578106892591
2247,886.720471647359
2247.25,886.862836402128
2247.5,887.005201156897
2247.75,887.147565911666
2248,887.289930666434
2248.25,887.432295421203
2248.5,887.574660175972
2248.75,887.717024930741
2249,887.859389685509
2249.25,888.001754440278
2249.5,888.144119195047
2249.75,888.286483949816
2250,888.428848704585
2250.25,888.571213459353
2250.5,888.713578214122
2250.75,888.855942968891
2251,888.99830772366
2251.25,889.140672478428
2251.5,889.283037233197
2251.75,889.425401987966
2252,889.567766742735
2252.25,889.710131497503
2252.5,889.852496252272
2252.75,889.994861007041
2253,890.13722576181
2253.25,890.279590516579
2253.5,890.421955271347
2253.75,890.564320026116
2254,890.706684780885
2254.25,890.849049535654
2254.5,890.991414290422
2254.75,891.133779045191
2255,891.27614379996
2255.25,891.418508554729
2255.5,891.560873309497
2255.75,891.703238064266
2256,891.845602819035
2256.25,891.987967573804
2256.5,892.130332328573
2256.75,892.272697083341
2257,892.41506183811
2257.25,892.557426592879
2257.5,892.699791347648
2257.75,892.842156102416
2258,892.984520857185
2258.25,893.126885611954
2258.5,893.269250366723
2258.75,893.411615121491
2259,893.55397987626
2259.25,893.696344631029
2259.5,893.838709385798
2259.75,893.981074140567
2260,894.123438895335
2260.25,894.265803650104
2260.5,894.408168404873
2260.75,894.550533159642
2261,894.69289791441
2261.25,894.835262669179
2261.5,894.977627423948
2261.75,895.119992178717
2262,895.262356933485
2262.25,895.404721688254
2262.5,895.547086443023
2262.75,895.689451197792
2263,895.83181595256
2263.25,895.974180707329
2263.5,896.116545462098
2263.75,896.258910216867
2264,896.401274971636
2264.25,896.543639726404
2264.5,896.686004481173
2264.75,896.828369235942
2265,896.970733990711
2265.25,897.113098745479
2265.5,897.255463500248
2265.75,897.397828255017
2266,897.540193009786
2266.25,897.682557764554
2266.5,897.824922519323
2266.75,897.967287274092
2267,898.109652028861
2267.25,898.25201678363
2267.5,898.394381538398
2267.75,898.536746293167
2268,898.679111047936
2268.25,898.821475802705
2268.5,898.963840557473
2268.75,899.106205312242
2269,899.248570067011
2269.25,899.39093482178
2269.5,899.533299576548
2269.75,899.675664331317
2270,899.818029086086
2270.25,899.960393840855
2270.5,900.102758595624
2270.75,900.245123350392
2271,900.387488105161
2271.25,900.52985285993
2271.5,900.672217614699
2271.75,900.814582369467
2272,900.956947124236
2272.25,901.099311879005
2272.5,901.241676633774
2272.75,901.384041388542
2273,901.526406143311
2273.25,901.66877089808
2273.5,901.811135652849
2273.75,901.953500407618
2274,902.095865162386
2274.25,902.238229917155
2274.5,902.380594671924
2274.75,902.522959426693
2275,902.665324181461
2275.25,902.80768893623
2275.5,902.950053690999
2275.75,903.092418445768
2276,903.234783200536
2276.25,903.377147955305
2276.5,903.519512710074
2276.75,903.661877464843
2277,903.804242219612
2277.25,903.94660697438
2277.5,904.088971729149
2277.75,904.231336483918
2278,904.373701238687
2278.25,904.516065993455
2278.5,904.658430748224
2278.75,898.876665715182
2279,895.53570266816
2279.25,892.97272636422
2279.5,887.917650018749
2279.75,877.11808077875
2280,862.060819587105
2280.25,854.530109292268
2280.5,867.661660753107
2280.75,910.986555832156
2281,955.427086254699
2281.25,944.194113968803
2281.5,932.961141682906
2281.75,921.72816939701
2282,910.495197111113
2282.25,899.262224825216
2282.5,888.02925253932
2282.75,876.796280253423
2283,865.563307967527
2283.25,854.33033568163
2283.5,843.097363395734
2283.75,831.864391109837
2284,820.63141882394
2284.25,809.398446538044
2284.5,798.165474252147
2284.75,786.932501966251
2285,775.699529680354
2285.25,764.466557394457
2285.5,753.233585108561
2285.75,742.000612822664
2286,730.767640536768
2286.25,719.534668250871
2286.5,708.301695964974
2286.75,697.068723679078
2287,685.835751393181
2287.25,674.602779107285
2287.5,663.369806821388
2287.75,652.136834535492
2288,640.903862249595
2288.25,629.670889963698
2288.5,618.437917677802
2288.75,607.204945391905
2289,595.971973106009
2289.25,584.739000820112
2289.5,573.506028534215
2289.75,562.273056248319
2290,551.040083962422
2290.25,539.807111676526
2290.5,528.574139390629
2290.75,517.341167104732
2291,506.108194818836
2291.25,494.875222532939
2291.5,483.642250247043
2291.75,472.409277961146
2292,461.17630567525
2292.25,449.943333389353
2292.5,438.710361103456
2292.75,427.47738881756
2293,416.244416531663
2293.25,405.011444245767
2293.5,278.876773336626
2293.75,434.717746949853
2294,775.616538554702
2294.25,984.925133539478
2294.5,1044.9672867709
2294.75,1002.85599726285
2295,906.384581843829
2295.25,805.657954087262
2295.5,751.271538127252
2295.75,793.82010953462
2296,794.916217091751
2296.25,796.012324648882
2296.5,797.108432206013
2296.75,798.204539763144
2297,799.300647320275
2297.25,800.396754877406
2297.5,801.492862434537
2297.75,802.588969991668
2298,803.685077548799
2298.25,804.78118510593
2298.5,805.877292663061
2298.75,806.973400220192
2299,808.069507777323
2299.25,809.165615334455
2299.5,810.261722891585
2299.75,811.357830448717
2300,812.453938005847
2300.25,813.550045562979
2300.5,814.64615312011
2300.75,815.742260677241
2301,816.838368234372
2301.25,817.934475791503
2301.5,819.030583348634
2301.75,820.126690905765
2302,821.222798462896
2302.25,822.318906020027
2302.5,823.415013577158
2302.75,824.511121134289
2303,825.60722869142
2303.25,826.703336248551
2303.5,827.799443805682
2303.75,828.895551362813
2304,829.991658919944
2304.25,831.087766477075
2304.5,832.183874034206
2304.75,833.279981591337
2305,834.376089148468
2305.25,835.472196705599
2305.5,836.56830426273
2305.75,837.664411819861
2306,838.760519376992
2306.25,839.856626934123
2306.5,840.952734491254
2306.75,842.048842048385
2307,843.144949605516
2307.25,844.241057162647
2307.5,846.984460661213
2307.75,846.11298347384
2308,841.882177849188
2308.25,838.137393329367
2308.5,838.979901997523
2308.75,847.22895166005
2309,860.506867612105
2309.25,875.119307868547
2309.5,887.534584013555
2309.75,896.310270738564
2310,901.452472181533
2310.25,902.996761906458
2310.5,901.284981615993
2310.75,897.51827016733
2311,893.047343905605
2311.25,889.180549704779
2311.5,886.286288623676
2311.75,883.811819944169
2312,881.165794766048
2312.25,878.001468327446
2312.5,875.13051326649
2312.75,873.707190009424
2313,874.857973890029
2313.25,878.744201609707
2313.5,884.337242945902
2313.75,890.535046281184
2314,896.223263497416
2314.25,900.225706154948
2314.5,901.346788129779
2314.75,898.422451017217
2315,891.862651284643
2315.25,884.349889704719
2315.5,878.743841874195
2315.75,877.573888478999
2316,880.589186525691
2316.25,886.146492211638
2316.5,892.595089332073
2316.75,898.643891855155
2317,903.703862656568
2317.25,907.267129357104
2317.5,908.91351006449
2317.75,909.180001094382
2318,909.192815942574
2318.25,910.086714331273
2318.5,912.370051359946
2318.75,914.408197852498
2319,914.108636684474
2319.25,909.441388395542
2319.5,900.63947157288
2319.75,890.781878597094
2320,883.128658339433
2320.25,880.551024732627
2320.5,882.6936448844
2320.75,887.604435439567
2321,893.324587250581
2321.25,898.542941195481
2321.5,903.25395925234
2321.75,907.609002874513
2322,911.695122109408
2322.25,914.856762956943
2322.5,915.961643139271
2322.75,913.869667242764
2323,908.283032593402
2323.25,901.959653796922
2323.5,898.350179400735
2323.75,900.846913783422
2324,910.226888463671
2324.25,923.654107622544
2324.5,938.028123960621
2324.75,950.468822608172
2325,959.829196232862
2325.25,965.781975805591
2325.5,968.004775826334
2325.75,966.559528124286
2326,962.96994581125
2326.25,959.107233321062
2326.5,956.840543651429
2326.75,957.034558367573
2327,957.933331509526
2327.25,957.358903961946
2327.5,953.161286828031
2327.75,945.085373374258
2328,935.944986436427
2328.25,928.833979590341
2328.5,926.722359089069
2328.75,929.691092329362
2329,934.909398630435
2329.25,939.418108057326
2329.5,940.579771594806
2329.75,938.21994630376
2330,933.302395277664
2330.25,926.797025005793
2330.5,919.566832283363
2330.75,912.082931884448
2331,904.726671254805
2331.25,897.878186046211
2331.5,891.838124911518
2331.75,886.779866851355
2332,882.865353676075
2332.25,880.219820895347
2332.5,878.616447661027
2332.75,877.632340077031
2333,876.842782152252
2333.25,875.891567281191
2333.5,874.578231104686
2333.75,872.723837309164
2334,870.175461379424
2334.25,867.062902136372
2334.5,863.689437734216
2334.75,860.360381275988
2335,857.275761724913
2335.25,854.399024220397
2335.5,851.661340404508
2335.75,849.040011057997
2336,846.909150754252
2336.25,845.845223790454
2336.5,846.409555198519
2336.75,848.266516329162
2337,849.749121208982
2337.25,849.082478525019
2337.5,845.134265425986
2337.75,839.621685875187
2338,835.051560732318
2338.25,833.798526056567
2338.5,836.000528195614
2338.75,839.931181320261
2339,843.810869882635
2339.25,846.394501402194
2339.5,847.522595902566
2339.75,847.167297049447
2340,845.372059598965
2340.25,842.614070983974
2340.5,839.53359958334
2340.75,836.76440159646
2341,834.762689619086
2341.25,833.794614786151
2341.5,834.116823704999
2341.75,835.837794096048
2342,838.653012892661
2342.25,842.186577667554
2342.5,845.986472802819
2342.75,849.012184038527
2343,849.948912027475
2343.25,847.527588386043
2343.5,842.172627497974
2343.75,836.428469418066
2344,832.97347726067
2344.25,833.750062796473
2344.5,837.912630257853
2344.75,843.955490859417
2345,850.399688190339
2345.25,856.055998510959
2345.5,859.912597531119
2345.75,860.973925318187
2346,859.285898164894
2346.25,856.64910702945
2346.5,855.032773513271
2346.75,856.039024161428
2347,859.0127757529
2347.25,862.441631078911
2347.5,864.849924860505
2347.75,865.964308619646
2348,866.923674753996
2348.25,868.947624717876
2348.5,872.693468350215
2348.75,876.447674351483
2349,877.871954760034
2349.25,874.75309292045
2349.5,867.668591548525
2349.75,859.939717899551
2350,855.003421931146
2350.25,855.420077384234
2350.5,860.228659396268
2350.75,867.584003790129
2351,875.673413207488
2351.25,883.213614794176
2351.5,889.352419390513
2351.75,893.250391436134
2352,894.400401077058
2352.25,893.298190088734
2352.5,890.62794025802
2352.75,887.099541563477
2353,883.955472438957
2353.25,882.940096188113
2353.5,885.817336801283
2353.75,893.603500033136
2354,904.011245567226
2354.25,913.840999204439
2354.5,919.956032288352
2354.75,921.363199861179
2355,919.69149072202
2355.25,916.729699382568
2355.5,914.080393243501
2355.75,911.730421032049
2356,908.836884898737
2356.25,904.550362371228
2356.5,898.542925058262
2356.75,892.096342720991
2357,886.801993133895
2357.25,884.206640496071
2357.5,884.653072472829
2357.75,887.172120111247
2358,890.728354911734
2358.25,894.409533788271
2358.5,897.916928277273
2358.75,901.142435743344
2359,903.968663725862
2359.25,905.821313621948
2359.5,905.472005459901
2359.75,901.641976667861
2360,893.414537270574
2360.25,883.010945135435
2360.5,874.262494546268
2360.75,871.009254272901
2361,875.187797163727
2361.25,883.860057606765
2361.5,893.318678117762
2361.75,900.091758771504
2362,903.437234283957
2362.25,904.370734730142
2362.5,903.936944095471
2362.75,902.995686693765
2363,901.830192626631
2363.25,900.611589199312
2363.5,899.49846848136
2363.75,898.31190709636
2364,896.505631119793
2364.25,893.514850946689
2364.5,889.021860554682
2364.75,884.185143091622
2365,880.709048644193
2365.25,880.2851278945
2365.5,883.508665109266
2365.75,889.094844278873
2366,895.573959736554
2366.25,901.493020292098
2366.5,905.532664893176
2366.75,906.437619645176
2367,902.958134028183
2367.25,895.119304162938
2367.5,885.889812408329
2367.75,878.652475531968
2368,876.618800839086
2368.25,880.128011209592
2368.5,887.138720646268
2368.75,895.537700885441
2369,903.415205119267
2369.25,909.533906170387
2369.5,912.795182199526
2369.75,912.164920487692
2370,908.21048686745
2370.25,903.169020943002
2370.5,899.355837950618
2370.75,898.839757770692
2371,902.044316427902
2371.25,908.719432961816
2371.5,918.599485805779
2371.75,929.534072607534
2372,935.569681143724
2372.25,930.295266103166
2372.5,931.00357458168
2372.75,931.711883060195
2373,932.420191538709
2373.25,933.128500017224
2373.5,933.836808495739
2373.75,934.545116974253
2374,935.253425452768
2374.25,935.961733931283
2374.5,936.670042409797
2374.75,937.378350888312
2375,938.086659366826
2375.25,938.794967845341
2375.5,939.503276323856
2375.75,940.21158480237
2376,940.919893280885
2376.25,941.6282017594
2376.5,942.336510237914
2376.75,943.044818716429
2377,943.753127194943
2377.25,944.461435673458
2377.5,945.169744151973
2377.75,945.878052630487
2378,946.586361109002
2378.25,947.294669587517
2378.5,948.002978066031
2378.75,948.711286544546
2379,949.41959502306
2379.25,950.127903501575
2379.5,950.83621198009
2379.75,951.544520458604
2380,952.252828937119
2380.25,952.961137415634
2380.5,953.669445894148
2380.75,954.377754372663
2381,955.086062851177
2381.25,955.794371329692
2381.5,956.502679808207
2381.75,957.210988286721
2382,957.919296765236
2382.25,958.627605243751
2382.5,959.335913722265
2382.75,960.04422220078
2383,960.752530679294
2383.25,961.460839157809
2383.5,962.169147636324
2383.75,962.877456114838
2384,963.585764593353
2384.25,964.294073071868
2384.5,965.002381550382
2384.75,965.710690028897
2385,966.418998507411
2385.25,967.127306985926
2385.5,967.835615464441
2385.75,968.543923942955
2386,969.25223242147
2386.25,969.960540899984
2386.5,970.668849378499
2386.75,971.377157857014
2387,971.594462166995
2387.25,968.650179967912
2387.5,961.402577425111
2387.75,951.323567312715
2388,941.388802843827
2388.25,934.591943784183
2388.5,933.411617570035
2388.75,936.987551305656
2389,943.128142882346
2389.25,949.638704571534
2389.5,954.747204091991
2389.75,957.917747985457
2390,958.839236516879
2390.25,957.210329104412
2390.5,953.429910333872
2390.75,949.053855316763
2391,945.746436603722
2391.25,945.122346955288
2391.5,947.526117576683
2391.75,951.955510212578
2392,957.343368761179
2392.25,962.703048071195
2392.5,967.886017742485
2392.75,973.241371139713
2393,979.124757711792
2393.25,985.713456101786
2393.5,992.099393111352
2393.75,996.966250919412
2394,998.996974118394
2394.25,997.254899008341
2394.5,992.61602053636
2394.75,986.495677650062
2395,980.30929924836
2395.25,975.318769413647
2395.5,972.063227180757
2395.75,970.869351065224
2396,972.063785689748
2396.25,975.659168220579
2396.5,980.505957207012
2396.75,985.185800436206
2397,988.280886370669
2397.25,988.674571843386
2397.5,986.051658905125
2397.75,980.228797442377
2398,971.025765615163
2398.25,959.060289836361
2398.5,946.801649042982
2398.75,936.981073121301
2399,932.303584933327
2399.25,933.346645919996
2399.5,937.023623944303
2399.75,939.885609783959
2400,938.679989096609
2400.25,933.580746876908
2400.5,927.674800083774
2400.75,924.141776890846
2401,925.583406334031
2401.25,930.361174985996
2401.5,934.948063212364
2401.75,935.809714940435
2402,930.891145996533
2402.25,922.452639844525
2402.5,913.537043695653
2402.75,907.151796555919
2403,904.56457990021
2403.25,904.54708548468
2403.5,905.678146424543
2403.75,906.597940273983
2404,906.524671898517
2404.25,904.993958578033
2404.5,901.545114399069
2404.75,896.240212493881
2405,890.683216593531
2405.25,886.760975625179
2405.5,886.274749951866
2405.75,889.006314549503
2406,892.689242135451
2406.25,894.965773129661
2406.5,894.035269214309
2406.75,890.681703619408
2407,886.43801798511
2407.25,882.823314022667
2407.5,880.708824629849
2407.75,880.056575588787
2408,880.760518203873
2408.25,882.590332906859
2408.5,884.493298603603
2408.75,885.082580790201
2409,882.987172910039
2409.25,878.028146748097
2409.5,871.98906422039
2409.75,866.836468673155
2410,864.304600664407
2410.25,864.265457289066
2410.5,865.69588423396
2410.75,867.56864794552
2411,868.971000943213
2411.25,869.178607084146
2411.5,867.4846896943
2411.75,863.43678826953
2412,858.222462275355
2412.25,853.680057653502
2412.5,851.620587090312
2412.75,852.543424749566
2413,855.128422657705
2413.25,857.921458013765
2413.5,859.698484999033
2413.75,860.251115074327
2414,859.651130351076
2414.25,857.986788274215
2414.5,855.66908622813
2414.75,853.403419095845
2415,851.905804835414
2415.25,851.676070398169
2415.5,852.570313239641
2415.75,854.325354893295
2416,856.636486015384
2416.25,858.75701083477
2416.5,859.673334441782
2416.75,858.37799411816
2417,854.834510697472
2417.25,850.784939958816
2417.5,848.161465849746
2417.75,848.561803062284
2418,851.375001087319
2418.25,855.094564252763
2418.5,858.230886799107
2418.75,859.886929698563
2419,859.852360438971
2419.25,857.955248334262
2419.5,854.332518916231
2419.75,850.300073312596
2420,847.455083392941
2420.25,847.319446891572
2420.5,850.212473213874
2420.75,855.487092345442
2421,862.467298583675
2421.25,870.115808452104
2421.5,876.57953698644
2421.75,879.893489979427
2422,878.403032928614
2422.25,873.13882490407
2422.5,866.50741874771
2422.75,860.922099798027
2423,858.148120402907
2423.25,858.627571902539
2423.5,862.64110375023
2423.75,870.174732741632
2424,878.920811992413
2424.25,885.49639355114
2424.5,886.55347493315
2424.75,881.309114032493
2425,873.013625392391
2425.25,865.271068496353
2425.5,861.281177638658
2425.75,861.056189733311
2426,863.097811393487
2426.25,865.900431838502
2426.5,868.070743099979
2426.75,868.393860151187
2427,865.670766534148
2427.25,859.306497519076
2427.5,852.353636707388
2427.75,849.227036727079
2428,854.175919413979
2428.25,865.079398989335
2428.5,871.632986014657
2428.75,862.994364307521
2429,833.866872050971
2429.25,801.11757444253
2429.5,787.149749842149
2429.75,812.818469582233
2430,870.316391953383
2430.25,926.572190051369
2430.5,948.172134456848
2430.75,925.170761656323
2431,880.065855880308
2431.25,837.732141320672
2431.5,821.597261056964
2431.75,832.777356030659
2432,854.869782026198
2432.25,871.093472828792
2432.5,872.809138428444
2432.75,865.767990084994
2433,857.192045186519
2433.25,853.40877080745
2433.5,854.395329239729
2433.75,857.381666196358
2434,859.617675421525
2434.25,859.639942230284
2434.5,857.707195559806
2434.75,854.198501968174
2435,849.705489626399
2435.25,845.79978291984
2435.5,844.335245000152
2435.75,847.033459954716
2436,853.040537712238
2436.25,859.162842433809
2436.5,862.125415323742
2436.75,860.12322379316
2437,855.05682163303
2437.25,849.401602557355
2437.5,845.450975194525
2437.75,843.676969832599
2438,843.502649215181
2438.25,844.335997622066
2438.5,845.417136878675
2438.75,845.714348762216
2439,844.171113849388
2439.25,840.201477018144
2439.5,835.4668071217
2439.75,832.29860753874
2440,832.878931632769
2440.25,836.810512194174
2440.5,841.520018305655
2440.75,844.374323523826
2441,843.897517252389
2441.25,840.942111489511
2441.5,836.639792165253
2441.75,832.117347317754
2442,828.47171790689
2442.25,826.788602681799
2442.5,828.095346043476
2442.75,832.18047446971
2443,837.648282065501
2443.25,843.056987988892
2443.5,847.216841094575
2443.75,849.485909932377
2444,849.294191464382
2444.25,846.312745928374
2444.5,841.775194066919
2444.75,837.538118199818
2445,835.420062631579
2445.25,836.043384715861
2445.5,838.651175725485
2445.75,842.409956579981
2446,846.398564388378
2446.25,849.436448805769
2446.5,850.295324166102
2446.75,847.978340663548
2447,843.617283042715
2447.25,839.490363025826
2447.5,837.865605574104
2447.75,839.737423087258
2448,844.12773868803
2448.25,849.888987057434
2448.5,855.794551989469
2448.75,860.283764896372
2449,861.707732859428
2449.25,858.585430967696
2449.5,852.138456892392
2449.75,845.771016661826
2450,842.94699244219
2450.25,845.622779861185
2450.5,851.741401821555
2450.75,858.585317445156
2451,863.637572342945
2451.25,866.037524577959
2451.5,865.740838908627
2451.75,862.718042941235
2452,857.517991898258
2452.25,851.60382689724
2452.5,846.519464605879
2452.75,843.643304725156
2453,843.372194765174
2453.25,845.74253598971
2453.5,850.737254093419
2453.75,857.038567536875
2454,861.979854471472
2454.25,862.832788336838
2454.5,858.19943211769
2454.75,850.703460136325
2455,843.725500105633
2455.25,840.41677727663
2455.5,841.010197858571
2455.75,843.729134182636
2456,846.761870045357
2456.25,848.738497442841
2456.5,849.092107663662
2456.75,847.340805194381
2457,843.280117804048
2457.25,838.251169380586
2457.5,834.130167391225
2457.75,832.733959087411
2458,834.51744531418
2458.25,838.582009378035
2458.5,843.970328472786
2458.75,849.56100193697
2459,853.834710812951
2459.25,855.212987738559
2459.5,852.470905768884
2459.75,847.009032099024
2460,841.409640478327
2460.25,838.232239143016
2460.5,838.776416163547
2460.75,842.609917417988
2461,849.174648290115
2461.25,857.473097391627
2461.5,864.865359756804
2461.75,868.327883613222
2462,865.142007323374
2462.25,856.701686393989
2462.5,847.351587379668
2462.75,841.496339407875
2463,841.6943597671
2463.25,845.821943062865
2463.5,851.024283536339
2463.75,854.679167767279
2464,855.958099103331
2464.25,854.866725881486
2464.5,851.430908007036
2464.75,846.365431963768
2465,841.331287222018
2465.25,838.058132944032
2465.5,838.105428819978
2465.75,842.280792049918
2466,851.184302911946
2466.25,865.184003312012
2466.5,881.374155674104
2466.75,894.426485033891
2467,898.968580338551
2467.25,892.676262949457
2467.5,880.19935761064
2467.75,867.158724036323
2468,858.92228955578
2468.25,856.999272332936
2468.5,859.890092769487
2468.75,866.015281563281
2469,873.671831321123
2469.25,880.832873754618
2469.5,885.419115358123
2469.75,885.603125190441
2470,882.315962484327
2470.25,878.19108297244
2470.5,875.884686261107
2470.75,876.776294984576
2471,878.861073410465
2471.25,879.579715187147
2471.5,876.591714968752
2471.75,870.412237304147
2472,863.558732292257
2472.25,858.588907346764
2472.5,857.1636034252
2472.75,858.425555230677
2473,861.078846006854
2473.25,863.841473319934
2473.5,865.583691660071
2473.75,865.269656519194
2474,861.874197018728
2474.25,855.675831945493
2474.5,849.58773849301
2474.75,846.840642533548
2475,850.111629497009
2475.25,857.763867293044
2475.5,866.136521923462
2475.75,871.606380354937
2476,872.515549872569
2476.25,869.788299474606
2476.5,864.524431232243
2476.75,857.882796050948
2477,851.32667443216
2477.25,846.417171827831
2477.5,844.660650575318
2477.75,846.02939462597
2478,848.791972074134
2478.25,851.128290362305
2478.5,851.644991435922
2478.75,850.293932355764
2479,847.29138173862
2479.25,842.922672181027
2479.5,838.249583372751
2479.75,834.822561452713
2480,834.184449656103
2480.25,836.621070581539
2480.5,840.24095082822
2480.75,842.935751444449
2481,843.110960547294
2481.25,841.517325669012
2481.5,839.574340097775
2481.75,838.639958614988
2482,839.090042297137
2482.25,840.512218586883
2482.5,842.472733408426
2482.75,844.666405598789
2483,847.053251321371
2483.25,849.626035436677
2483.5,852.294599448183
2483.75,854.461939651279
2484,855.339610210721
2484.25,854.175956909334
2484.5,851.256838037058
2484.75,848.018878186576
2485,845.958555821826
2485.25,846.224372406236
2485.5,848.731405777912
2485.75,853.121577967818
2486,858.984782363759
2486.25,865.283039767568
2486.5,870.562076437166
2486.75,873.367443651101
2487,873.256828341331
2487.25,871.828146486775
2487.5,870.924468394034
2487.75,872.130772733913
2488,874.744391954815
2488.25,876.867028386215
2488.5,876.602624897458
2488.75,873.43764290033
2489,869.46659751931
2489.25,867.073178410398
2489.5,868.336643682542
2489.75,872.710125115825
2490,878.304499041978
2490.25,883.227916676107
2490.5,886.297959733484
2490.75,887.585407578476
2491,887.289032317638
