1531,30.0870019879633
1531.25,30.111987690967
1531.5,30.1369733939708
1531.75,30.1619590969745
1532,30.1869447999782
1532.25,30.211930502982
1532.5,30.2369162059857
1532.75,30.2619019089894
1533,30.2868876119931
1533.25,30.3071239889981
1533.5,30.3221154108004
1533.75,30.3371068326026
1534,30.3520982544048
1534.25,30.3670896762071
1534.5,30.3820810980093
1534.75,30.3970725198116
1535,30.4120639416138
1535.25,30.427055363416
1535.5,30.4420467852183
1535.75,30.4570382070205
1536,30.4720296288228
1536.25,30.487021050625
1536.5,30.5020124724272
1536.75,30.5170038942295
1537,30.5319953160317
1537.25,30.5469867378339
1537.5,30.5619781596362
1537.75,30.5769695814384
1538,30.5919610032407
1538.25,30.5351106995997
1538.5,30.3951907627787
1538.75,30.2552708259579
1539,30.115350889137
1539.25,29.9754309523161
1539.5,29.8355110154952
1539.75,29.6955910786742
1540,29.5556711418534
1540.25,29.4157512050326
1540.5,29.2758312682116
1540.75,29.1359113313907
1541,28.9959913945699
1541.25,28.8560714577489
1541.5,28.7161515209281
1541.75,28.5762315841071
1542,28.4363116472863
1542.25,28.2963917104654
1542.5,28.1564717736445
1542.75,28.0165518368236
1543,27.8766319000027
1543.25,27.779657416737
1543.5,27.7346831513303
1543.75,27.6897088859236
1544,27.6447346205169
1544.25,27.5997603551101
1544.5,27.5547860897034
1544.75,27.5098118242967
1545,27.46483755889
1545.25,27.4198632934833
1545.5,27.3748890280765
1545.75,27.3299147626699
1546,27.2849404972632
1546.25,27.2399662318564
1546.5,27.1949919664497
1546.75,27.150017701043
1547,27.1050434356363
1547.25,27.0600691702296
1547.5,27.0150949048228
1547.75,26.9701206394161
1548,26.9251463740094
1548.25,26.9352495847063
1548.5,27.0152038343182
1548.75,27.0951580839302
1549,27.1751123335421
1549.25,27.255066583154
1549.5,27.335020832766
1549.75,27.4149750823779
1550,27.4949293319899
1550.25,27.5748835816018
1550.5,27.6548378312137
1550.75,27.7347920808257
1551,27.8147463304376
1551.25,27.8947005800496
1551.5,27.9746548296615
1551.75,28.0546090792734
1552,28.1345633288854
1552.25,28.2145175784973
1552.5,28.2944718281092
1552.75,28.3744260777212
1553,28.4543803273331
1553.25,28.5278968437679
1553.5,28.5928596715776
1553.75,28.6578224993873
1554,28.722785327197
1554.25,28.7877481550067
1554.5,28.8527109828164
1554.75,28.9176738106261
1555,28.9826366384358
1555.25,29.0475994662455
1555.5,29.1125622940552
1555.75,29.1775251218649
1556,29.2424879496746
1556.25,29.3074507774843
1556.5,29.372413605294
1556.75,29.4373764331037
1557,29.5023392609134
1557.25,29.5673020887231
1557.5,29.6322649165328
1557.75,29.6972277443425
1558,29.7621905721522
1558.25,29.8417744614798
1558.5,29.9417172734948
1558.75,30.0416600855096
1559,30.1416028975246
1559.25,30.2415457095395
1559.5,30.3414885215544
1559.75,30.4414313335694
1560,30.5413741455843
1560.25,30.6413169575992
1560.5,30.7412597696141
1560.75,30.841202581629
1561,30.941145393644
1561.25,31.0410882056589
1561.5,31.1410310176739
1561.75,31.2409738296888
1562,31.3409166417036
1562.25,31.4408594537186
1562.5,31.5408022657335
1562.75,31.6407450777485
1563,31.7406878897634
1563.25,31.7512431578661
1563.5,31.6313117834481
1563.75,31.5113804090302
1564,31.3914490346124
1564.25,31.2715176601944
1564.5,31.1515862857765
1564.75,31.0316549113586
1565,30.9117235369407
1565.25,30.7917921625228
1565.5,30.6718607881049
1565.75,30.551929413687
1566,30.431998039269
1566.25,30.3120666648512
1566.5,30.1921352904333
1566.75,30.0722039160153
1567,29.9522725415974
1567.25,29.8323411671795
1567.5,29.7124097927616
1567.75,29.5924784183437
1568,29.4725470439258
1568.25,29.4533073718036
1568.5,29.5882301680238
1568.75,29.7231529642439
1569,29.858075760464
1569.25,29.9929985566842
1569.5,30.1279213529043
1569.75,30.2628441491244
1570,30.3977669453447
1570.25,30.5326897415648
1570.5,30.667612537785
1570.75,30.8025353340051
1571,30.9374581302252
1571.25,31.0723809264454
1571.5,31.2073037226655
1571.75,31.3422265188857
1572,31.4771493151058
1572.25,31.6120721113259
1572.5,31.7469949075461
1572.75,31.8819177037662
1573,32.0168404999865
1573.25,32.0808284088124
1573.5,32.0308570028049
1573.75,31.9808855967975
1574,31.93091419079
1574.25,31.8809427847825
1574.5,31.8309713787751
1574.75,31.7809999727676
1575,31.7310285667601
1575.25,31.6810571607527
1575.5,31.6310857547453
1575.75,31.5811143487378
1576,31.5311429427303
1576.25,31.4811715367228
1576.5,31.4312001307154
1576.75,31.3812287247079
1577,31.3312573187005
1577.25,31.281285912693
1577.5,31.2313145066855
1577.75,31.1813431006781
1578,31.1313716946706
1578.25,31.070240461861
1578.5,30.9902862122491
1578.75,30.9103319626371
1579,30.8303777130252
1579.25,30.7504234634133
1579.5,30.6704692138013
1579.75,30.5905149641894
1580,30.5105607145774
1580.25,30.4306064649655
1580.5,30.3506522153536
1580.75,30.2706979657416
1581,30.1907437161297
1581.25,30.1107894665178
1581.5,30.0308352169058
1581.75,29.9508809672939
1582,29.8709267176819
1582.25,29.79097246807
1582.5,29.7110182184581
1582.75,29.6310639688461
1583,29.5511097192342
1583.25,29.4927888674056
1583.5,29.4728003050026
1583.75,29.4528117425996
1584,29.4328231801966
1584.25,29.4128346177936
1584.5,29.3928460553906
1584.75,29.3728574929877
1585,29.3528689305847
1585.25,29.3328803681817
1585.5,29.3128918057787
1585.75,29.2929032433757
1586,29.2729146809727
1586.25,29.2529261185698
1586.5,29.2329375561668
1586.75,29.2129489937638
1587,29.1929604313608
1587.25,29.1729718689578
1587.5,29.1529833065548
1587.75,29.1329947441518
1588,29.1130061817489
1588.25,29.1122191661447
1588.5,29.1471991503499
1588.75,29.1821791345552
1589,29.2171591187604
1589.25,29.2521391029656
1589.5,29.2871190871708
1589.75,29.3220990713761
1590,29.3570790555813
1590.25,29.3920590397865
1590.5,29.4270390239917
1590.75,29.4620190081969
1591,29.4969989924022
1591.25,29.5319789766074
1591.5,29.5669589608126
1591.75,29.6019389450178
1592,29.6369189292231
1592.25,29.6718989134283
1592.5,29.7068788976335
1592.75,29.7418588818387
1593,29.776838866044
1593.25,29.8438985866398
1593.5,29.9738242422593
1593.75,30.1037498978786
1594,30.233675553498
1594.25,30.3636012091174
1594.5,30.4935268647368
1594.75,30.6234525203563
1595,30.7533781759756
1595.25,30.883303831595
1595.5,31.0132294872144
1595.75,31.1431551428338
1596,31.2730807984533
1596.25,31.4030064540726
1596.5,31.532932109692
1596.75,31.6628577653115
1597,31.7927834209308
1597.25,31.9227090765503
1597.5,32.0526347321696
1597.75,32.182560387789
1598,32.3124860434085
1598.25,32.3771629312927
1598.5,32.3072029628823
1598.75,32.2372429944718
1599,32.1672830260614
1599.25,32.0973230576509
1599.5,32.0273630892405
1599.75,31.9574031208301
1600,31.8874431524196
1600.25,31.8174831840092
1600.5,31.7475232155987
1600.75,31.6775632471882
1601,31.6076032787778
1601.25,31.5376433103673
1601.5,31.4676833419569
1601.75,31.3977233735464
1602,31.327763405136
1602.25,31.2578034367256
1602.5,31.1878434683151
1602.75,31.1178834999047
1603,31.0479235314942
1603.25,30.9575011573759
1603.5,30.8225783611558
1603.75,30.6876555649355
1604,30.5527327687154
1604.25,30.4178099724953
1604.5,30.2828871762751
1604.75,30.147964380055
1605,30.0130415838348
1605.25,29.8781187876147
1605.5,29.7431959913946
1605.75,29.6082731951744
1606,29.4733503989543
1606.25,29.3384276027341
1606.5,29.203504806514
1606.75,29.0685820102939
1607,28.9336592140736
1607.25,28.7987364178535
1607.5,28.6638136216333
1607.75,28.5288908254132
1608,28.3939680291931
1608.25,28.2893820974374
1608.5,28.2544021132322
1608.75,28.219422129027
1609,28.1844421448218
1609.25,28.1494621606165
1609.5,28.1144821764113
1609.75,28.0795021922061
1610,28.0445222080009
1610.25,28.0095422237956
1610.5,27.9745622395904
1610.75,27.9395822553852
1611,27.90460227118
1611.25,27.8696222869748
1611.5,27.8346423027695
1611.75,27.7996623185643
1612,27.7646823343591
1612.25,27.7297023501539
1612.5,27.6947223659486
1612.75,27.6597423817434
1613,27.6247623975382
1613.25,27.6394106914301
1613.5,27.7743334876501
1613.75,27.9092562838702
1614,28.0441790800905
1614.25,28.1791018763106
1614.5,28.3140246725308
1614.75,28.4489474687509
1615,28.583870264971
1615.25,28.7187930611912
1615.5,28.8537158574113
1615.75,28.9886386536314
1616,29.1235614498516
1616.25,29.2584842460717
1616.5,29.3934070422919
1616.75,29.528329838512
1617,29.6632526347321
1617.25,29.7981754309524
1617.5,29.9330982271725
1617.75,30.0680210233927
1618,30.2029438196128
1618.25,30.3448789520982
1618.5,30.5047874513222
1618.75,30.664695950546
1619,30.82460444977
1619.25,30.9845129489938
1619.5,31.1444214482176
1619.75,31.3043299474416
1620,31.4642384466654
1620.25,31.6241469458894
1620.5,31.7840554451132
1620.75,31.943963944337
1621,32.103872443561
1621.25,32.2637809427848
1621.5,32.4236894420086
1621.75,32.5835979412326
1622,32.7435064404564
1622.25,32.9034149396804
1622.5,33.0633234389042
1622.75,33.223231938128
1623,33.383140437352
1623.25,33.502690558536
1623.5,33.5126848397375
1623.75,33.522679120939
1624,33.5326734021405
1624.25,33.542667683342
1624.5,33.5526619645435
1624.75,33.5626562457449
1625,33.5726505269464
1625.25,33.5826448081479
1625.5,33.5926390893494
1625.75,33.6026333705509
1626,33.6126276517524
1626.25,33.6226219329539
1626.5,33.6326162141554
1626.75,33.6426104953569
1627,33.6526047765584
1627.25,33.6625990577599
1627.5,33.6725933389614
1627.75,33.6825876201628
1628,33.6925819013643
1628.25,33.6871190871708
1628.5,33.6371476811634
1628.75,33.5871762751559
1629,33.5372048691484
1629.25,33.487233463141
1629.5,33.4372620571335
1629.75,33.3872906511261
1630,33.3373192451186
1630.25,33.2873478391111
1630.5,33.2373764331036
1630.75,33.1874050270962
1631,33.1374336210888
1631.25,33.0874622150813
1631.5,33.0374908090738
1631.75,32.9875194030663
1632,32.9375479970589
1632.25,32.8875765910514
1632.5,32.837605185044
1632.75,32.7876337790365
1633,32.7376623730291
1633.25,32.6630729010647
1633.5,32.5131586830424
1633.75,32.3632444650199
1634,32.2133302469976
1634.25,32.0634160289753
1634.5,31.9135018109528
1634.75,31.7635875929305
1635,31.613673374908
1635.25,31.4637591568857
1635.5,31.3138449388634
1635.75,31.1639307208409
1636,31.0140165028185
1636.25,30.8641022847961
1636.5,30.7141880667738
1636.75,30.5642738487514
1637,30.4143596307289
1637.25,30.2644454127066
1637.5,30.1145311946842
1637.75,29.9646169766618
1638,29.8147027586395
1638.25,29.6988262846872
1638.5,29.6938291440865
1638.75,29.6888320034857
1639,29.683834862885
1639.25,29.6788377222843
1639.5,29.6738405816835
1639.75,29.6688434410828
1640,29.663846300482
1640.25,29.6588491598813
1640.5,29.6538520192805
1640.75,29.6488548786798
1641,29.643857738079
1641.25,29.6388605974783
1641.5,29.6338634568775
1641.75,29.6288663162768
1642,29.623869175676
1642.25,29.6188720350753
1642.5,29.6138748944746
1642.75,29.6088777538738
1643,29.6038806132731
1643.25,29.5787859807739
1643.5,29.4838403093597
1643.75,29.3888946379456
1644,29.2939489665314
1644.25,29.1990032951172
1644.5,29.1040576237031
1644.75,29.0091119522889
1645,28.9141662808747
1645.25,28.8192206094605
1645.5,28.7242749380463
1645.75,28.6293292666322
1646,28.534383595218
1646.25,28.4394379238038
1646.5,28.3444922523896
1646.75,28.2495465809754
1647,28.1546009095613
1647.25,28.0596552381471
1647.5,27.9647095667329
1647.75,27.8697638953187
1648,27.7748182239046
1648.25,27.6851692492035
1648.5,27.615209280793
1648.75,27.5452493123826
1649,27.4752893439721
1649.25,27.4053293755616
1649.5,27.3353694071512
1649.75,27.2654094387407
1650,27.1954494703303
1650.25,27.1254895019199
1650.5,27.0555295335094
1650.75,26.985569565099
1651,26.9156095966885
1651.25,26.8456496282781
1651.5,26.7756896598677
1651.75,26.7057296914572
1652,26.6357697230468
1652.25,26.5658097546363
1652.5,26.4958497862259
1652.75,26.4258898178154
1653,26.3559298494049
1653.25,26.3130279676479
1653.5,26.3779907954577
1653.75,26.4429536232674
1654,26.507916451077
1654.25,26.5728792788868
1654.5,26.6378421066964
1654.75,26.7028049345062
1655,26.7677677623159
1655.25,26.8327305901255
1655.5,26.8976934179353
1655.75,26.9626562457449
1656,27.0276190735546
1656.25,27.0925819013644
1656.5,27.157544729174
1656.75,27.2225075569838
1657,27.2874703847935
1657.25,27.3524332126031
1657.5,27.4173960404129
1657.75,27.4823588682225
1658,27.5473216960323
1658.25,27.6198442308216
1658.5,27.7247841834373
1658.75,27.829724136053
1659,27.9346640886686
1659.25,28.0396040412843
1659.5,28.1445439939
1659.75,28.2494839465156
1660,28.3544238991313
1660.25,28.459363851747
1660.5,28.5643038043627
1660.75,28.6692437569783
1661,28.774183709594
1661.25,28.8791236622097
1661.5,28.9840636148253
1661.75,29.0890035674409
1662,29.1939435200567
1662.25,29.2988834726723
1662.5,29.403823425288
1662.75,29.5087633779037
1663,29.6137033305193
1663.25,29.7177555077476
1663.5,29.8176983197625
1663.75,29.9176411317775
1664,30.0175839437924
1664.25,30.1175267558073
1664.5,30.2174695678223
1664.75,30.3174123798372
1665,30.4173551918521
1665.25,30.517298003867
1665.5,30.6172408158819
1665.75,30.7171836278969
1666,30.8171264399118
1666.25,30.9170692519268
1666.5,31.0170120639416
1666.75,31.1169548759565
1667,31.2168976879715
1667.25,31.3168404999864
1667.5,31.4167833120013
1667.75,31.5167261240163
1668,31.6166689360311
1668.25,31.6941858881839
1668.5,31.6592059039786
1668.75,31.6242259197734
1669,31.5892459355682
1669.25,31.554265951363
1669.5,31.5192859671577
1669.75,31.4843059829525
1670,31.4493259987473
1670.25,31.4143460145421
1670.5,31.3793660303369
1670.75,31.3443860461316
1671,31.3094060619264
1671.25,31.2744260777212
1671.5,31.239446093516
1671.75,31.2044661093107
1672,31.1694861251055
1672.25,31.1345061409003
1672.5,31.0995261566951
1672.75,31.0645461724898
1673,31.0295661882846
1673.25,31.0100541924239
1673.5,31.0750170202337
1673.75,31.1399798480434
1674,31.2049426758531
1674.25,31.2699055036628
1674.5,31.3348683314724
1674.75,31.3998311592822
1675,31.4647939870919
1675.25,31.5297568149016
1675.5,31.5947196427113
1675.75,31.6596824705209
1676,31.7246452983307
1676.25,31.7896081261404
1676.5,31.8545709539501
1676.75,31.9195337817598
1677,31.9844966095694
1677.25,32.0494594373792
1677.5,32.1144222651889
1677.75,32.1793850929986
1678,32.2443479208083
1678.25,32.3
1678.5,32.3
1678.75,32.3
1679,32.3
1679.25,32.3
1679.5,32.3
1679.75,32.3
1680,32.3
1680.25,32.3
1680.5,32.3
1680.75,32.3
1681,32.3
1681.25,32.3
1681.5,32.3
1681.75,32.3
1682,32.3
1682.25,32.3
1682.5,32.3
1682.75,32.3
1683,32.3
1683.25,32.2855014841644
1683.5,32.1755643909479
1683.75,32.0656272977315
1684,31.9556902045151
1684.25,31.8457531112987
1684.5,31.7358160180823
1684.75,31.6258789248659
1685,31.5159418316494
1685.25,31.4060047384331
1685.5,31.2960676452166
1685.75,31.1861305520002
1686,31.0761934587838
1686.25,30.9662563655674
1686.5,30.856319272351
1686.75,30.7463821791345
1687,30.6364450859181
1687.25,30.5265079927017
1687.5,30.4165708994853
1687.75,30.3066338062689
1688,30.1966967130524
1688.25,30.0795375942921
1688.5,29.9096348138668
1688.75,29.7397320334413
1689,29.569829253016
1689.25,29.3999264725905
1689.5,29.2300236921652
1689.75,29.0601209117399
1690,28.8902181313144
1690.25,28.7203153508891
1690.5,28.5504125704638
1690.75,28.3805097900383
1691,28.210607009613
1691.25,28.0407042291876
1691.5,27.8708014487623
1691.75,27.700898668337
1692,27.5309958879115
1692.25,27.3610931074862
1692.5,27.1911903270607
1692.75,27.0212875466354
1693,26.8513847662101
1693.25,26.7032678848615
1693.5,26.733250728466
1693.75,26.7632335720705
1694,26.793216415675
1694.25,26.8231992592794
1694.5,26.8531821028839
1694.75,26.8831649464884
1695,26.9131477900929
1695.25,26.9431306336973
1695.5,26.9731134773018
1695.75,27.0030963209063
1696,27.0330791645108
1696.25,27.0630620081152
1696.5,27.0930448517197
1696.75,27.1230276953242
1697,27.1530105389287
1697.25,27.1829933825332
1697.5,27.2129762261376
1697.75,27.2429590697421
1698,27.2729419133466
1698.25,27.3053620544103
1698.5,27.3603306010185
1698.75,27.4152991476267
1699,27.4702676942349
1699.25,27.5252362408431
1699.5,27.5802047874514
1699.75,27.6351733340595
1700,27.6901418806677
1700.25,27.745110427276
1700.5,27.8000789738842
1700.75,27.8550475204924
1701,27.9100160671006
1701.25,27.9649846137088
1701.5,28.019953160317
1701.75,28.0749217069252
1702,28.1298902535334
1702.25,28.1848588001416
1702.5,28.2398273467498
1702.75,28.294795893358
1703,28.3497644399662
1703.25,28.4081751586286
1703.5,28.5031208300428
1703.75,28.5980665014569
1704,28.6930121728712
1704.25,28.7879578442853
1704.5,28.8829035156994
1704.75,28.9778491871137
1705,29.0727948585278
1705.25,29.167740529942
1705.5,29.2626862013562
1705.75,29.3576318727703
1706,29.4525775441846
1706.25,29.5475232155987
1706.5,29.6424688870129
1706.75,29.7374145584271
1707,29.8323602298412
1707.25,29.9273059012555
1707.5,30.0222515726696
1707.75,30.1171972440837
1708,30.212142915498
1708.25,30.3078347539555
1708.5,30.4127747065712
1708.75,30.5177146591869
1709,30.6226546118025
1709.25,30.7275945644182
1709.5,30.8325345170338
1709.75,30.9374744696496
1710,31.0424144222652
1710.25,31.1473543748808
1710.5,31.2522943274966
1710.75,31.3572342801122
1711,31.4621742327279
1711.25,31.5671141853436
1711.5,31.6720541379592
1711.75,31.7769940905749
1712,31.8819340431905
1712.25,31.9868739958063
1712.5,32.0918139484219
1712.75,32.1967539010375
1713,32.3016938536533
1713.25,32.4018953732197
1713.5,32.4318782168242
1713.75,32.4618610604286
1714,32.4918439040331
1714.25,32.5218267476376
1714.5,32.5518095912421
1714.75,32.5817924348465
1715,32.611775278451
1715.25,32.6417581220555
1715.5,32.67174096566
1715.75,32.7017238092645
1716,32.7317066528689
1716.25,32.7616894964734
1716.5,32.7916723400779
1716.75,32.8216551836824
1717,32.8516380272868
1717.25,32.8816208708913
1717.5,32.9116037144958
1717.75,32.9415865581003
1718,32.9715694017048
1718.25,32.9984477546908
1718.5,32.9684649110863
1718.75,32.9384820674818
1719,32.9084992238773
1719.25,32.8785163802729
1719.5,32.8485335366684
1719.75,32.8185506930639
1720,32.7885678494594
1720.25,32.758585005855
1720.5,32.7286021622505
1720.75,32.698619318646
1721,32.6686364750415
1721.25,32.638653631437
1721.5,32.6086707878326
1721.75,32.5786879442281
1722,32.5487051006236
1722.25,32.5187222570191
1722.5,32.4887394134146
1722.75,32.4587565698102
1723,32.4287737262057
1723.25,32.3965741673701
1723.5,32.3116227771575
1723.75,32.2266713869448
1724,32.1417199967321
1724.25,32.0567686065194
1724.5,31.9718172163067
1724.75,31.8868658260941
1725,31.8019144358814
1725.25,31.7169630456687
1725.5,31.632011655456
1725.75,31.5470602652433
1726,31.4621088750306
1726.25,31.377157484818
1726.5,31.2922060946052
1726.75,31.2072547043926
1727,31.1223033141799
1727.25,31.0373519239672
1727.5,30.9524005337545
1727.75,30.8674491435418
1728,30.7824977533292
1728.25,30.7015876473953
1728.5,30.7565561940034
1728.75,30.8115247406116
1729,30.8664932872199
1729.25,30.9214618338281
1729.5,30.9764303804363
1729.75,31.0313989270445
1730,31.0863674736527
1730.25,31.1413360202609
1730.5,31.1963045668691
1730.75,31.2512731134773
1731,31.3062416600855
1731.25,31.3612102066937
1731.5,31.416178753302
1731.75,31.4711472999101
1732,31.5261158465183
1732.25,31.5810843931266
1732.5,31.6360529397348
1732.75,31.691021486343
1733,31.7459900329512
1733.25,31.8019171591187
1733.5,31.9118542523352
1733.75,32.0217913455516
1734,32.1317284387681
1734.25,32.2416655319844
1734.5,32.3516026252008
1734.75,32.4615397184173
1735,32.5714768116337
1735.25,32.6814139048502
1735.5,32.7913509980665
1735.75,32.9012880912829
1736,33.0112251844994
1736.25,33.1211622777158
1736.5,33.2310993709322
1736.75,33.3410364641486
1737,33.450973557365
1737.25,33.5609106505815
1737.5,33.6708477437978
1737.75,33.7807848370142
1738,33.8907219302307
1738.25,33.9989515536069
1738.5,33.8240516325807
1738.75,33.6491517115547
1739,33.4742517905286
1739.25,33.2993518695024
1739.5,33.1244519484763
1739.75,32.9495520274501
1740,32.7746521064241
1740.25,32.599752185398
1740.5,32.4248522643718
1740.75,32.2499523433458
1741,32.0750524223196
1741.25,31.9001525012935
1741.5,31.7252525802674
1741.75,31.5503526592412
1742,31.3754527382152
1742.25,31.200552817189
1742.5,31.0256528961629
1742.75,30.8507529751369
1743,30.6758530541106
1743.25,30.5009531330846
1743.5,30.5
1743.75,30.5
1744,30.5
1744.25,30.5
1744.5,30.5
1744.75,30.5
1745,30.5
1745.25,30.5
1745.5,30.5
1745.75,30.5
1746,30.5
1746.25,30.5
1746.5,30.5
1746.75,30.5
1747,30.5
1747.25,30.5
1747.5,30.5
1747.75,30.5
1748,30.5
1748.25,30.5
1748.5,30.332967511778
1748.75,30.1630647313526
1749,29.9931619509272
1749.25,29.8232591705019
1749.5,29.6533563900765
1749.75,29.4834536096512
1750,29.3135508292257
1750.25,29.1436480488004
1750.5,28.9737452683751
1750.75,28.8038424879496
1751,28.6339397075243
1751.25,28.4640369270988
1751.5,28.2941341466735
1751.75,28.1242313662482
1752,27.9543285858228
1752.25,27.7844258053975
1752.5,27.614523024972
1752.75,27.4446202445467
1753,27.2747174641214
1753.25,27.1048146836959
1753.5,27.3767653386346
1753.75,27.6616023528773
1754,27.9464393671197
1754.25,28.2312763813621
1754.5,28.5161133956048
1754.75,28.8009504098473
1755,29.0857874240897
1755.25,29.3706244383324
1755.5,29.6554614525748
1755.75,29.9402984668175
1756,30.2251354810599
1756.25,30.5099724953024
1756.5,30.794809509545
1756.75,31.0796465237875
1757,31.3644835380302
1757.25,31.6493205522726
1757.5,31.934157566515
1757.75,32.2189945807577
1758,32.5038315950001
1758.25,32.7886686092428
1758.5,32.8959668854334
1758.75,32.9959096974483
1759,33.0958525094633
1759.25,33.1957953214782
1759.5,33.2957381334932
1759.75,33.395680945508
1760,33.4956237575229
1760.25,33.5955665695379
1760.5,33.6955093815528
1760.75,33.7954521935677
1761,33.8953950055827
1761.25,33.9953378175976
1761.5,34.0952806296125
1761.75,34.1952234416274
1762,34.2951662536423
1762.25,34.3951090656573
1762.5,34.4950518776722
1762.75,34.5949946896872
1763,34.694937501702
1763.25,34.7948803137169
1763.5,34.9422346885979
1763.75,35.0921489066202
1764,35.2420631246427
1764.25,35.391977342665
1764.5,35.5418915606873
1764.75,35.6918057787098
1765,35.8417199967321
1765.25,35.9916342147546
1765.5,36.1415484327769
1765.75,36.2914626507993
1766,36.4413768688217
1766.25,36.5912910868441
1766.5,36.7412053048664
1766.75,36.8911195228889
1767,37.0410337409112
1767.25,37.1909479589337
1767.5,37.340862176956
1767.75,37.4907763949783
1768,37.6406906130008
1768.25,37.7906048310231
1768.5,37.7437923803818
1768.75,37.6838266931728
1769,37.6238610059639
1769.25,37.5638953187549
1769.5,37.503929631546
1769.75,37.443963944337
1770,37.3839982571281
1770.25,37.3240325699191
1770.5,37.2640668827101
1770.75,37.2041011955012
1771,37.1441355082922
1771.25,37.0841698210833
1771.5,37.0242041338744
1771.75,36.9642384466654
1772,36.9042727594564
1772.25,36.8443070722475
1772.5,36.7843413850385
1772.75,36.7243756978296
1773,36.6644100106206
1773.25,36.6044443234117
1773.5,36.3871681054438
1773.75,36.1572996378093
1774,35.9274311701751
1774.25,35.6975627025407
1774.5,35.4676942349064
1774.75,35.2378257672722
1775,35.0079572996377
1775.25,34.7780888320035
1775.5,34.548220364369
1775.75,34.3183518967348
1776,34.0884834291005
1776.25,33.8586149614661
1776.5,33.6287464938318
1776.75,33.3988780261974
1777,33.1690095585632
1777.25,32.9391410909289
1777.5,32.7092726232945
1777.75,32.4794041556602
1778,32.249535688026
1778.25,32.0196672203915
1778.5,31.9314561150296
1778.75,31.8564990060183
1779,31.7815418970072
1779.25,31.706584787996
1779.5,31.6316276789847
1779.75,31.5566705699736
1780,31.4817134609624
1780.25,31.4067563519512
1780.5,31.33179924294
1780.75,31.2568421339288
1781,31.1818850249176
1781.25,31.1069279159064
1781.5,31.0319708068952
1781.75,30.9570136978841
1782,30.8820565888728
1782.25,30.8070994798617
1782.5,30.7321423708504
1782.75,30.6571852618393
1783,30.5822281528281
1783.25,30.5072710438169
1783.5,30.4278015304594
1783.75,30.3478472808475
1784,30.2678930312355
1784.25,30.1879387816236
1784.5,30.1079845320116
1784.75,30.0280302823997
1785,29.9480760327878
1785.25,29.8681217831758
1785.5,29.7881675335639
1785.75,29.7082132839519
1786,29.62825903434
1786.25,29.5483047847281
1786.5,29.4683505351161
1786.75,29.3883962855042
1787,29.3084420358922
1787.25,29.2284877862803
1787.5,29.1485335366684
1787.75,29.0685792870564
1788,28.9886250374445
1788.25,28.9086707878325
1788.5,28.8821791345552
1788.75,28.8621905721522
1789,28.8422020097492
1789.25,28.8222134473462
1789.5,28.8022248849432
1789.75,28.7822363225402
1790,28.7622477601372
1790.25,28.7422591977343
1790.5,28.7222706353313
1790.75,28.7022820729283
1791,28.6822935105253
1791.25,28.6623049481223
1791.5,28.6423163857193
1791.75,28.6223278233164
1792,28.6023392609134
1792.25,28.5823506985104
1792.5,28.5623621361074
1792.75,28.5423735737044
1793,28.5223850113014
1793.25,28.5023964488985
1793.5,28.5219901418807
1793.75,28.5469758448844
1794,28.5719615478881
1794.25,28.5969472508919
1794.5,28.6219329538956
1794.75,28.6469186568993
1795,28.6719043599031
1795.25,28.6968900629068
1795.5,28.7218757659105
1795.75,28.7468614689142
1796,28.771847171918
1796.25,28.7968328749217
1796.5,28.8218185779254
1796.75,28.8468042809292
1797,28.8717899839329
1797.25,28.8967756869366
1797.5,28.9217613899404
1797.75,28.9467470929441
1798,28.9717327959478
1798.25,28.9967184989516
1798.5,29.0217042019553
1798.75,29.046689904959
1799,29.0716756079627
1799.25,29.0966613109665
1799.5,29.1216470139702
1799.75,29.146632716974
1800,29.1716184199777
1800.25,29.1966041229814
1800.5,29.2215898259851
1800.75,29.2465755289889
1801,29.2715612319926
1801.25,29.2965469349963
1801.5,29.3215326380001
1801.75,29.3465183410038
1802,29.3715040440075
1802.25,29.3964897470112
1802.5,29.421475450015
1802.75,29.4464611530187
1803,29.4714468560225
1803.25,29.4964325590262
1803.5,29.5385528716538
1803.75,29.5835271370606
1804,29.6285014024673
1804.25,29.673475667874
1804.5,29.7184499332807
1804.75,29.7634241986874
1805,29.8083984640941
1805.25,29.8533727295008
1805.5,29.8983469949076
1805.75,29.9433212603143
1806,29.988295525721
1806.25,30.0332697911277
1806.5,30.0782440565344
1806.75,30.1232183219411
1807,30.1681925873479
1807.25,30.2131668527546
1807.5,30.2581411181613
1807.75,30.303115383568
1808,30.3480896489747
1808.25,30.3930639143814
1808.5,30.4549440374717
1808.75,30.5199068652815
1809,30.5848696930912
1809.25,30.6498325209008
1809.5,30.7147953487106
1809.75,30.7797581765202
1810,30.84472100433
1810.25,30.9096838321397
1810.5,30.9746466599493
1810.75,31.0396094877591
1811,31.1045723155688
1811.25,31.1695351433785
1811.5,31.2344979711882
1811.75,31.2994607989978
1812,31.3644236268076
1812.25,31.4293864546173
1812.5,31.4943492824269
1812.75,31.5593121102367
1813,31.6242749380463
1813.25,31.6892377658561
1813.5,31.7708776994091
1813.75,31.8558290896217
1814,31.9407804798345
1814.25,32.0257318700471
1814.5,32.1106832602598
1814.75,32.1956346504725
1815,32.2805860406852
1815.25,32.3655374308979
1815.5,32.4504888211105
1815.75,32.5354402113233
1816,32.6203916015359
1816.25,32.7053429917486
1816.5,32.7902943819613
1816.75,32.875245772174
1817,32.9601971623867
1817.25,33.0451485525994
1817.5,33.130099942812
1817.75,33.2150513330247
1818,33.3000027232374
1818.25,33.3849541134501
1818.5,33.416448353803
1818.75,33.436436916206
1819,33.456425478609
1819.25,33.476414041012
1819.5,33.4964026034149
1819.75,33.5163911658179
1820,33.5363797282209
1820.25,33.5563682906239
1820.5,33.5763568530269
1820.75,33.5963454154299
1821,33.6163339778329
1821.25,33.6363225402358
1821.5,33.6563111026388
1821.75,33.6762996650418
1822,33.6962882274448
1822.25,33.7162767898478
1822.5,33.7362653522508
1822.75,33.7562539146537
1823,33.7762424770567
1823.25,33.7962310394597
1823.5,33.7675607962746
1823.75,33.7275836714686
1824,33.6876065466627
1824.25,33.6476294218567
1824.5,33.6076522970507
1824.75,33.5676751722447
1825,33.5276980474388
1825.25,33.4877209226328
1825.5,33.4477437978268
1825.75,33.4077666730209
1826,33.3677895482149
1826.25,33.3278124234089
1826.5,33.287835298603
1826.75,33.247858173797
1827,33.207881048991
1827.25,33.167903924185
1827.5,33.1279267993791
1827.75,33.0879496745731
1828,33.0479725497671
1828.25,33.0079954249612
1828.5,32.980011437597
1828.75,32.9550257345933
1829,32.9300400315896
1829.25,32.9050543285858
1829.5,32.8800686255821
1829.75,32.8550829225784
1830,32.8300972195746
1830.25,32.8051115165709
1830.5,32.7801258135672
1830.75,32.7551401105634
1831,32.7301544075597
1831.25,32.705168704556
1831.5,32.6801830015522
1831.75,32.6551972985485
1832,32.6302115955448
1832.25,32.6052258925411
1832.5,32.5802401895373
1832.75,32.5552544865336
1833,32.5302687835298
1833.25,32.5052830805261
1833.5,32.5788104899104
1833.75,32.6787533019254
1834,32.7786961139403
1834.25,32.8786389259552
1834.5,32.9785817379701
1834.75,33.078524549985
1835,33.178467362
1835.25,33.2784101740149
1835.5,33.3783529860298
1835.75,33.4782957980447
1836,33.5782386100596
1836.25,33.6781814220746
1836.5,33.7781242340895
1836.75,33.8780670461044
1837,33.9780098581194
1837.25,34.0779526701343
1837.5,34.1778954821492
1837.75,34.2778382941641
1838,34.377781106179
1838.25,34.477723918194
1838.5,34.6087334222924
1838.75,34.7486533591134
1839,34.8885732959342
1839.25,35.0284932327551
1839.5,35.168413169576
1839.75,35.3083331063969
1840,35.4482530432179
1840.25,35.5881729800387
1840.5,35.7280929168596
1840.75,35.8680128536805
1841,36.0079327905014
1841.25,36.1478527273222
1841.5,36.2877726641432
1841.75,36.427692600964
1842,36.567612537785
1842.25,36.7075324746058
1842.5,36.8474524114267
1842.75,36.9873723482476
1843,37.1272922850685
1843.25,37.2672122218895
1843.5,37.2617385147463
1843.75,37.2117671087389
1844,37.1617957027314
1844.25,37.1118242967239
1844.5,37.0618528907165
1844.75,37.011881484709
1845,36.9619100787016
1845.25,36.9119386726941
1845.5,36.8619672666866
1845.75,36.8119958606791
1846,36.7620244546717
1846.25,36.7120530486643
1846.5,36.6620816426568
1846.75,36.6121102366493
1847,36.5621388306419
1847.25,36.5121674246344
1847.5,36.4621960186269
1847.75,36.4122246126195
1848,36.362253206612
1848.25,36.3122818006046
1848.5,36.145472617848
1848.75,35.9405898532175
1849,35.7357070885868
1849.25,35.5308243239563
1849.5,35.3259415593258
1849.75,35.1210587946951
1850,34.9161760300645
1850.25,34.7112932654338
1850.5,34.5064105008033
1850.75,34.3015277361728
1851,34.0966449715421
1851.25,33.8917622069116
1851.5,33.6868794422809
1851.75,33.4819966776503
1852,33.2771139130198
1852.25,33.0722311483891
1852.5,32.8673483837586
1852.75,32.6624656191281
1853,32.4575828544974
1853.25,32.2527000898668
1853.5,32.11462923123
1853.75,31.9996949974129
1854,31.8847607635958
1854.25,31.7698265297786
1854.5,31.6548922959614
1854.75,31.5399580621442
1855,31.4250238283271
1855.25,31.31008959451
1855.5,31.1951553606927
1855.75,31.0802211268756
1856,30.9652868930584
1856.25,30.8503526592413
1856.5,30.7354184254242
1856.75,30.6204841916069
1857,30.5055499577898
1857.25,30.3906157239726
1857.5,30.2756814901555
1857.75,30.1607472563383
1858,30.0458130225211
1858.25,29.930878788704
1858.5,29.9036545845701
1858.75,29.9086517251709
1859,29.9136488657716
1859.25,29.9186460063724
1859.5,29.9236431469731
1859.75,29.9286402875739
1860,29.9336374281746
1860.25,29.9386345687754
1860.5,29.9436317093761
1860.75,29.9486288499769
1861,29.9536259905776
1861.25,29.9586231311783
1861.5,29.9636202717791
1861.75,29.9686174123798
1862,29.9736145529806
1862.25,29.9786116935813
1862.5,29.9836088341821
1862.75,29.9886059747828
1863,29.9936031153836
1863.25,29.9986002559843
1863.5,29.9172598785436
1863.75,29.8023256447264
1864,29.6873914109093
1864.25,29.5724571770922
1864.5,29.4575229432749
1864.75,29.3425887094578
1865,29.2276544756406
1865.25,29.1127202418235
1865.5,28.9977860080063
1865.75,28.8828517741891
1866,28.767917540372
1866.25,28.6529833065548
1866.5,28.5380490727377
1866.75,28.4231148389205
1867,28.3081806051033
1867.25,28.1932463712862
1867.5,28.078312137469
1867.75,27.9633779036518
1868,27.8484436698347
1868.25,27.7335094360175
1868.5,27.7778845891996
1868.75,27.8878216824161
1869,27.9977587756325
1869.25,28.1076958688489
1869.5,28.2176329620654
1869.75,28.3275700552817
1870,28.4375071484981
1870.25,28.5474442417146
1870.5,28.657381334931
1870.75,28.7673184281474
1871,28.8772555213638
1871.25,28.9871926145802
1871.5,29.0971297077967
1871.75,29.207066801013
1872,29.3170038942295
1872.25,29.4269409874459
1872.5,29.5368780806623
1872.75,29.6468151738787
1873,29.7567522670951
1873.25,29.8666893603116
1873.5,29.8024754227826
1873.75,29.6625554859617
1874,29.5226355491408
1874.25,29.3827156123199
1874.5,29.2427956754989
1874.75,29.1028757386781
1875,28.9629558018573
1875.25,28.8230358650363
1875.5,28.6831159282154
1875.75,28.5431959913946
1876,28.4032760545736
1876.25,28.2633561177528
1876.5,28.1234361809318
1876.75,27.983516244111
1877,27.8435963072901
1877.25,27.7036763704692
1877.5,27.5637564336483
1877.75,27.4238364968274
1878,27.2839165600065
1878.25,27.1439966231857
1878.5,27.2884207946408
1878.75,27.5632635276817
1879,27.8381062607229
1879.25,28.1129489937639
1879.5,28.3877917268048
1879.75,28.662634459846
1880,28.9374771928869
1880.25,29.2123199259281
1880.5,29.4871626589691
1880.75,29.76200539201
1881,30.0368481250512
1881.25,30.3116908580921
1881.5,30.5865335911331
1881.75,30.8613763241743
1882,31.1362190572152
1882.25,31.4110617902564
1882.5,31.6859045232973
1882.75,31.9607472563383
1883,32.2355899893795
1883.25,32.5104327224204
1883.5,32.6437923803818
1883.75,32.7087552081915
1884,32.7737180360012
1884.25,32.8386808638109
1884.5,32.9036436916206
1884.75,32.9686065194303
1885,33.03356934724
1885.25,33.0985321750497
1885.5,33.1634950028594
1885.75,33.2284578306691
1886,33.2934206584788
1886.25,33.3583834862885
1886.5,33.4233463140982
1886.75,33.4883091419079
1887,33.5532719697176
1887.25,33.6182347975273
1887.5,33.683197625337
1887.75,33.7481604531467
1888,33.8131232809564
1888.25,33.8780861087661
1888.5,33.9
1888.75,33.9
1889,33.9
1889.25,33.9
1889.5,33.9
1889.75,33.9
1890,33.9
1890.25,33.9
1890.5,33.9
1890.75,33.9
1891,33.9
1891.25,33.9
1891.5,33.9
1891.75,33.9
1892,33.9
1892.25,33.9
1892.5,33.9
1892.75,33.9
1893,33.9
1893.25,33.9
1893.5,33.8576945072302
1893.75,33.7927316794205
1894,33.7277688516108
1894.25,33.6628060238011
1894.5,33.5978431959914
1894.75,33.5328803681817
1895,33.467917540372
1895.25,33.4029547125623
1895.5,33.3379918847526
1895.75,33.2730290569429
1896,33.2080662291332
1896.25,33.1431034013235
1896.5,33.0781405735138
1896.75,33.0131777457041
1897,32.9482149178944
1897.25,32.8832520900847
1897.5,32.818289262275
1897.75,32.7533264344653
1898,32.6883636066556
1898.25,32.6234007788459
1898.5,32.5168759020724
1898.75,32.386950246453
1899,32.2570245908335
1899.25,32.1270989352142
1899.5,31.9971732795947
1899.75,31.8672476239754
1900,31.737321968356
1900.25,31.6073963127365
1900.5,31.4774706571172
1900.75,31.3475450014977
1901,31.2176193458784
1901.25,31.087693690259
1901.5,30.9577680346395
1901.75,30.8278423790202
1902,30.6979167234007
1902.25,30.5679910677814
1902.5,30.438065412162
1902.75,30.3081397565425
1903,30.1782141009232
1903.25,30.0482884453037
1903.5,29.9905803218867
1903.75,29.9755889000844
1904,29.9605974782822
1904.25,29.9456060564799
1904.5,29.9306146346777
1904.75,29.9156232128755
1905,29.9006317910732
1905.25,29.885640369271
1905.5,29.8706489474687
1905.75,29.8556575256665
1906,29.8406661038643
1906.25,29.825674682062
1906.5,29.8106832602598
1906.75,29.7956918384576
1907,29.7807004166553
1907.25,29.7657089948531
1907.5,29.7507175730508
1907.75,29.7357261512486
1908,29.7207347294464
1908.25,29.7057433076441
1908.5,29.7832330274231
1908.75,29.9181558236432
1909,30.0530786198634
1909.25,30.1880014160835
1909.5,30.3229242123036
1909.75,30.4578470085238
1910,30.5927698047439
1910.25,30.727692600964
1910.5,30.8626153971842
1910.75,30.9975381934043
1911,31.1324609896245
1911.25,31.2673837858446
1911.5,31.4023065820647
1911.75,31.5372293782849
1912,31.672152174505
1912.25,31.8070749707253
1912.5,31.9419977669454
1912.75,32.0769205631655
1913,32.2118433593857
1913.25,32.3467661556058
1913.5,32.4907655020289
1913.75,32.6406797200512
1914,32.7905939380736
1914.25,32.940508156096
1914.5,33.0904223741184
1914.75,33.2403365921408
1915,33.3902508101632
1915.25,33.5401650281855
1915.5,33.690079246208
1915.75,33.8399934642303
1916,33.9899076822526
1916.25,34.1398219002751
1916.5,34.2897361182974
1916.75,34.4396503363199
1917,34.5895645543422
1917.25,34.7394787723646
1917.5,34.889392990387
1917.75,35.0393072084094
1918,35.1892214264318
1918.25,35.3391356444542
1918.5,35.4474932599875
1918.75,35.5274475095994
1919,35.6074017592113
1919.25,35.6873560088233
1919.5,35.7673102584352
1919.75,35.8472645080472
1920,35.9272187576591
1920.25,36.007173007271
1920.5,36.087127256883
1920.75,36.1670815064949
1921,36.2470357561069
1921.25,36.3269900057188
1921.5,36.4069442553307
1921.75,36.4868985049427
1922,36.5668527545546
1922.25,36.6468070041665
1922.5,36.7267612537785
1922.75,36.8067155033904
1923,36.8866697530024
1923.25,36.9666240026143
1923.5,36.9679774515945
1923.75,36.9130089049862
1924,36.858040358378
1924.25,36.8030718117698
1924.5,36.7481032651616
1924.75,36.6931347185534
1925,36.6381661719452
1925.25,36.583197625337
1925.5,36.5282290787288
1925.75,36.4732605321206
1926,36.4182919855124
1926.25,36.3633234389041
1926.5,36.3083548922959
1926.75,36.2533863456878
1927,36.1984177990795
1927.25,36.1434492524713
1927.5,36.0884807058631
1927.75,36.0335121592549
1928,35.9785436126467
1928.25,35.9235750660385
1928.5,35.9542251028022
1928.75,36.0491707742164
1929,36.1441164456306
1929.25,36.2390621170447
1929.5,36.334007788459
1929.75,36.4289534598731
1930,36.5238991312873
1930.25,36.6188448027015
1930.5,36.7137904741156
1930.75,36.8087361455299
1931,36.903681816944
1931.25,36.9986274883581
1931.5,37.0935731597724
1931.75,37.1885188311865
1932,37.2834645026008
1932.25,37.3784101740149
1932.5,37.473355845429
1932.75,37.5683015168433
1933,37.6632471882574
1933.25,37.7581928596716
1933.5,37.7804226464421
1933.75,37.7454426622369
1934,37.7104626780316
1934.25,37.6754826938264
1934.5,37.6405027096212
1934.75,37.605522725416
1935,37.5705427412108
1935.25,37.5355627570055
1935.5,37.5005827728003
1935.75,37.4656027885951
1936,37.4306228043898
1936.25,37.3956428201846
1936.5,37.3606628359794
1936.75,37.3256828517742
1937,37.290702867569
1937.25,37.2557228833637
1937.5,37.2207428991585
1937.75,37.1857629149533
1938,37.1507829307481
1938.25,37.1158029465429
1938.5,37.0808229623376
1938.75,37.0458429781324
1939,37.0108629939272
1939.25,36.9758830097219
1939.5,36.9409030255167
1939.75,36.9059230413115
1940,36.8709430571063
1940.25,36.8359630729011
1940.5,36.8009830886958
1940.75,36.7660031044906
1941,36.7310231202854
1941.25,36.6960431360802
1941.5,36.661063151875
1941.75,36.6260831676697
1942,36.5911031834645
1942.25,36.5561231992593
1942.5,36.521143215054
1942.75,36.4861632308488
1943,36.4511832466436
1943.25,36.4162032624384
1943.5,36.3543993899948
1943.75,36.2694479997821
1944,36.1844966095695
1944.25,36.0995452193567
1944.5,36.0145938291441
1944.75,35.9296424389313
1945,35.8446910487187
1945.25,35.759739658506
1945.5,35.6747882682933
1945.75,35.5898368780807
1946,35.504885487868
1946.25,35.4199340976553
1946.5,35.3349827074426
1946.75,35.2500313172299
1947,35.1650799270172
1947.25,35.0801285368046
1947.5,34.9951771465918
1947.75,34.9102257563792
1948,34.8252743661665
1948.25,34.7403229759538
1948.5,34.7026252008388
1948.75,34.7076223414395
1949,34.7126194820403
1949.25,34.717616622641
1949.5,34.7226137632417
1949.75,34.7276109038425
1950,34.7326080444432
1950.25,34.737605185044
1950.5,34.7426023256447
1950.75,34.7475994662455
1951,34.7525966068462
1951.25,34.757593747447
1951.5,34.7625908880477
1951.75,34.7675880286485
1952,34.7725851692492
1952.25,34.7775823098499
1952.5,34.7825794504507
1952.75,34.7875765910514
1953,34.7925737316522
1953.25,34.7975708722529
1953.5,34.7460717300727
1953.75,34.641131777457
1954,34.5361918248413
1954.25,34.4312518722257
1954.5,34.32631191961
1954.75,34.2213719669944
1955,34.1164320143786
1955.25,34.011492061763
1955.5,33.9065521091474
1955.75,33.8016121565316
1956,33.696672203916
1956.25,33.5917322513003
1956.5,33.4867922986846
1956.75,33.381852346069
1957,33.2769123934533
1957.25,33.1719724408377
1957.5,33.067032488222
1957.75,32.9620925356063
1958,32.8571525829907
1958.25,32.7522126303749
1958.5,32.7225974238174
1958.75,32.7675716892241
1959,32.8125459546309
1959.25,32.8575202200376
1959.5,32.9024944854443
1959.75,32.947468750851
1960,32.9924430162577
1960.25,33.0374172816645
1960.5,33.0823915470712
1960.75,33.1273658124779
1961,33.1723400778846
1961.25,33.2173143432913
1961.5,33.262288608698
1961.75,33.3072628741047
1962,33.3522371395115
1962.25,33.3972114049182
1962.5,33.4421856703249
1962.75,33.4871599357316
1963,33.5321342011383
1963.25,33.577108466545
1963.5,33.6049072737671
1963.75,33.6149015549685
1964,33.62489583617
1964.25,33.6348901173715
1964.5,33.644884398573
1964.75,33.6548786797745
1965,33.664872960976
1965.25,33.6748672421775
1965.5,33.684861523379
1965.75,33.6948558045805
1966,33.704850085782
1966.25,33.7148443669835
1966.5,33.724838648185
1966.75,33.7348329293865
1967,33.7448272105879
1967.25,33.7548214917894
1967.5,33.7648157729909
1967.75,33.7748100541924
1968,33.7848043353939
1968.25,33.7947986165954
1968.5,33.8143786933907
1968.75,33.8443615369952
1969,33.8743443805996
1969.25,33.9043272242041
1969.5,33.9343100678086
1969.75,33.9642929114131
1970,33.9942757550176
1970.25,34.024258598622
1970.5,34.0542414422265
1970.75,34.084224285831
1971,34.1142071294355
1971.25,34.14418997304
1971.5,34.1741728166444
1971.75,34.2041556602489
1972,34.2341385038534
1972.25,34.2641213474579
1972.5,34.2941041910623
1972.75,34.3240870346668
1973,34.3540698782713
1973.25,34.3840527218758
1973.5,34.4210533482204
1973.75,34.4660276136271
1974,34.5110018790338
1974.25,34.5559761444405
1974.5,34.6009504098472
1974.75,34.6459246752539
1975,34.6908989406607
1975.25,34.7358732060674
1975.5,34.7808474714741
1975.75,34.8258217368808
1976,34.8707960022875
1976.25,34.9157702676942
1976.5,34.960744533101
1976.75,35.0057187985077
1977,35.0506930639144
1977.25,35.0956673293211
1977.5,35.1406415947278
1977.75,35.1856158601345
1978,35.2305901255413
1978.25,35.275564390948
1978.5,35.3
1978.75,35.3
1979,35.3
1979.25,35.3
1979.5,35.3
1979.75,35.3
1980,35.3
1980.25,35.3
1980.5,35.3
1980.75,35.3
1981,35.3
1981.25,35.3
1981.5,35.3
1981.75,35.3
1982,35.3
1982.25,35.3
1982.5,35.3
1982.75,35.3
1983,35.3
1983.25,35.3
1983.5,35.2510525312491
1983.75,35.1411154380327
1984,35.0311783448163
1984.25,34.9212412515999
1984.5,34.8113041583834
1984.75,34.7013670651671
1985,34.5914299719506
1985.25,34.4814928787342
1985.5,34.3715557855178
1985.75,34.2616186923014
1986,34.151681599085
1986.25,34.0417445058686
1986.5,33.9318074126521
1986.75,33.8218703194357
1987,33.7119332262193
1987.25,33.6019961330029
1987.5,33.4920590397865
1987.75,33.38212194657
1988,33.2721848533537
1988.25,33.1622477601372
1988.5,33.1802047874514
1988.75,33.3650989896789
1989,33.5499931919066
1989.25,33.7348873941342
1989.5,33.9197815963619
1989.75,34.1046757985894
1990,34.289570000817
1990.25,34.4744642030447
1990.5,34.6593584052722
1990.75,34.8442526074999
1991,35.0291468097275
1991.25,35.214041011955
1991.5,35.3989352141827
1991.75,35.5838294164103
1992,35.7687236186378
1992.25,35.9536178208655
1992.5,36.1385120230931
1992.75,36.3234062253208
1993,36.5083004275483
1993.25,36.6931946297758
1993.5,36.8633152691921
1993.75,37.0132294872144
1994,37.1631437052369
1994.25,37.3130579232592
1994.5,37.4629721412815
1994.75,37.612886359304
1995,37.7628005773263
1995.25,37.9127147953488
1995.5,38.0626290133711
1995.75,38.2125432313935
1996,38.3624574494159
1996.25,38.5123716674383
1996.5,38.6622858854607
1996.75,38.8122001034831
1997,38.9621143215054
1997.25,39.1120285395279
1997.5,39.2619427575502
1997.75,39.4118569755725
1998,39.561771193595
1998.25,39.7116854116173
1998.5,39.8800795185317
1998.75,40.0749680019608
1999,40.2698564853898
1999.25,40.464744968819
1999.5,40.659633452248
1999.75,40.8545219356772
2000,41.0494104191063
2000.25,41.2442989025353
2000.5,41.4391873859645
2000.75,41.6340758693935
2001,41.8289643528228
2001.25,42.0238528362518
2001.5,42.2187413196808
2001.75,42.41362980311
2002,42.6085182865391
2002.25,42.8034067699683
2002.5,42.9982952533973
2002.75,43.1931837368263
2003,43.3880722202555
2003.25,43.5829607036846
2003.5,43.7
2003.75,43.7
2004,43.7
2004.25,43.7
2004.5,43.7
2004.75,43.7
2005,43.7
2005.25,43.7
2005.5,43.7
2005.75,43.7
2006,43.7
2006.25,43.7
2006.5,43.7
2006.75,43.7
2007,43.7
2007.25,43.7
2007.5,43.7
2007.75,43.7
2008,43.7
2008.25,43.7
2008.5,43.6437705944827
2008.75,43.498853517061
2009,43.3539364396394
2009.25,43.2090193622178
2009.5,43.0641022847961
2009.75,42.9191852073745
2010,42.7742681299528
2010.25,42.6293510525312
2010.5,42.4844339751096
2010.75,42.3395168976879
2011,42.1945998202663
2011.25,42.0496827428446
2011.5,41.904765665423
2011.75,41.7598485880014
2012,41.6149315105797
2012.25,41.4700144331581
2012.5,41.3250973557364
2012.75,41.1801802783148
2013,41.0352632008932
2013.25,40.8903461234715
2013.5,40.7830641867051
2013.75,40.7380899212984
2014,40.6931156558917
2014.25,40.648141390485
2014.5,40.6031671250783
2014.75,40.5581928596716
2015,40.5132185942649
2015.25,40.4682443288581
2015.5,40.4232700634514
2015.75,40.3782957980447
2016,40.333321532638
2016.25,40.2883472672313
2016.5,40.2433730018246
2016.75,40.1983987364179
2017,40.1534244710111
2017.25,40.1084502056044
2017.5,40.0634759401977
2017.75,40.018501674791
2018,39.9735274093843
2018.25,39.9285531439775
2018.5,39.9510879333352
2018.75,40.091007870156
2019,40.230927806977
2019.25,40.3708477437978
2019.5,40.5107676806188
2019.75,40.6506876174397
2020,40.7906075542605
2020.25,40.9305274910815
2020.5,41.0704474279023
2020.75,41.2103673647232
2021,41.3502873015441
2021.25,41.490207238365
2021.5,41.6301271751859
2021.75,41.7700471120068
2022,41.9099670488276
2022.25,42.0498869856486
2022.5,42.1898069224694
2022.75,42.3297268592904
2023,42.4696467961112
2023.25,42.6095667329321
2023.5,42.7
2023.75,42.7
2024,42.7
2024.25,42.7
2024.5,42.7
2024.75,42.7
2025,42.7
2025.25,42.7
2025.5,42.7
2025.75,42.7
2026,42.7
2026.25,42.7
2026.5,42.7
2026.75,42.7
2027,42.7
2027.25,42.7
2027.5,42.7
2027.75,42.7
2028,42.7
2028.25,42.7
2028.5,42.7051305792326
2028.75,42.7201220010348
2029,42.7351134228371
2029.25,42.7501048446393
2029.5,42.7650962664415
2029.75,42.7800876882438
2030,42.795079110046
2030.25,42.8100705318483
2030.5,42.8250619536505
2030.75,42.8400533754527
2031,42.855044797255
2031.25,42.8700362190572
2031.5,42.8850276408595
2031.75,42.9000190626617
2032,42.9150104844639
2032.25,42.9300019062662
2032.5,42.9449933280684
2032.75,42.9599847498707
2033,42.9749761716729
2033.25,42.9899675934751
2033.5,42.981816943983
2033.75,42.9268483973748
2034,42.8718798507666
2034.25,42.8169113041584
2034.5,42.7619427575502
2034.75,42.706974210942
2035,42.6520056643337
2035.25,42.5970371177255
2035.5,42.5420685711173
2035.75,42.4871000245091
2036,42.4321314779009
2036.25,42.3771629312927
2036.5,42.3221943846845
2036.75,42.2672258380763
2037,42.2122572914681
2037.25,42.1572887448599
2037.5,42.1023201982517
2037.75,42.0473516516435
2038,41.9923831050353
2038.25,41.937414558427
2038.5,41.8840418289262
2038.75,41.8340704229187
2039,41.7840990169113
2039.25,41.7341276109038
2039.5,41.6841562048964
2039.75,41.6341847988889
2040,41.5842133928814
2040.25,41.534241986874
2040.5,41.4842705808665
2040.75,41.434299174859
2041,41.3843277688516
2041.25,41.3343563628441
2041.5,41.2843849568367
2041.75,41.2344135508292
2042,41.1844421448218
2042.25,41.1344707388143
2042.5,41.0844993328068
2042.75,41.0345279267994
2043,40.9845565207919
2043.25,40.9345851147845
2043.5,40.8984613708777
2043.75,40.8934642302769
2044,40.8884670896762
2044.25,40.8834699490755
2044.5,40.8784728084747
2044.75,40.873475667874
2045,40.8684785272732
2045.25,40.8634813866725
2045.5,40.8584842460717
2045.75,40.853487105471
2046,40.8484899648702
2046.25,40.8434928242695
2046.5,40.8384956836687
2046.75,40.833498543068
2047,40.8285014024673
2047.25,40.8235042618665
2047.5,40.8185071212658
2047.75,40.813509980665
2048,40.8085128400643
2048.25,40.8035156994635
2048.5,40.8014814411372
2048.75,40.806478581738
2049,40.8114757223387
2049.25,40.8164728629395
2049.5,40.8214700035402
2049.75,40.8264671441409
2050,40.8314642847417
2050.25,40.8364614253424
2050.5,40.8414585659432
2050.75,40.8464557065439
2051,40.8514528471447
2051.25,40.8564499877454
2051.5,40.8614471283462
2051.75,40.8664442689469
2052,40.8714414095477
2052.25,40.8764385501484
2052.5,40.8814356907492
2052.75,40.8864328313499
2053,40.8914299719507
2053.25,40.8964271125514
2053.5,40.9042727594564
2053.75,40.9192641812587
2054,40.9342556030609
2054.25,40.9492470248632
2054.5,40.9642384466654
2054.75,40.9792298684676
2055,40.9942212902699
2055.25,41.0092127120721
2055.5,41.0242041338744
2055.75,41.0391955556766
2056,41.0541869774788
2056.25,41.0691783992811
2056.5,41.0841698210833
2056.75,41.0991612428856
2057,41.1141526646878
2057.25,41.12914408649
2057.5,41.1441355082923
2057.75,41.1591269300945
2058,41.1741183518967
2058.25,41.189109773699
2058.5,41.1685575011574
2058.75,41.0536232673403
2059,40.938689033523
2059.25,40.8237547997058
2059.5,40.7088205658887
2059.75,40.5938863320716
2060,40.4789520982545
2060.25,40.3640178644371
2060.5,40.24908363062
2060.75,40.1341493968029
2061,40.0192151629858
2061.25,39.9042809291687
2061.5,39.7893466953513
2061.75,39.6744124615342
2062,39.5594782277171
2062.25,39.4445439939
2062.5,39.3296097600828
2062.75,39.2146755262655
2063,39.0997412924484
2063.25,38.9848070586313
2063.5,38.90654938591
2063.75,38.9315350889137
2064,38.9565207919175
2064.25,38.9815064949212
2064.5,39.0064921979249
2064.75,39.0314779009286
2065,39.0564636039323
2065.25,39.0814493069361
2065.5,39.1064350099398
2065.75,39.1314207129436
2066,39.1564064159473
2066.25,39.181392118951
2066.5,39.2063778219548
2066.75,39.2313635249585
2067,39.2563492279622
2067.25,39.2813349309659
2067.5,39.3063206339697
2067.75,39.3313063369734
2068,39.3562920399771
2068.25,39.3812777429809
2068.5,39.4187903379538
2068.75,39.4937474469649
2069,39.5687045559762
2069.25,39.6436616649874
2069.5,39.7186187739986
2069.75,39.7935758830097
2070,39.8685329920209
2070.25,39.9434901010321
2070.5,40.0184472100434
2070.75,40.0934043190545
2071,40.1683614280657
2071.25,40.2433185370769
2071.5,40.318275646088
2071.75,40.3932327550993
2072,40.4681898641105
2072.25,40.5431469731217
2072.5,40.6181040821328
2072.75,40.693061191144
2073,40.7680183001553
2073.25,40.8429754091665
2073.5,40.9083685084829
2073.75,40.9433484926881
2074,40.9783284768933
2074.25,41.0133084610986
2074.5,41.0482884453038
2074.75,41.083268429509
2075,41.1182484137142
2075.25,41.1532283979194
2075.5,41.1882083821247
2075.75,41.2231883663299
2076,41.2581683505351
2076.25,41.2931483347403
2076.5,41.3281283189455
2076.75,41.3631083031508
2077,41.398088287356
2077.25,41.4330682715612
2077.5,41.4680482557665
2077.75,41.5030282399717
2078,41.5380082241769
2078.25,41.5729882083821
2078.5,41.1264616976655
2078.75,39.0476512077558
2079,36.9688407178462
2079.25,34.8900302279327
2079.5,32.8112197380231
2079.75,30.7324092481134
2080,28.6535987582037
2080.25,26.5747882682941
2080.5,24.4959777783806
2080.75,22.417167288471
2081,20.3383567985613
2081.25,18.2595463086516
2081.5,16.180735818742
2081.75,14.1019253288323
2082,12.0231148389188
2082.25,9.94430434900918
2082.5,7.86549385909952
2082.75,5.78668336918985
2083,3.70787287928019
2083.25,1.62906238936674
2083.5,0
2083.75,0
2084,0
2084.25,0
2084.5,0
2084.75,0
2085,0
2085.25,0
2085.5,0
2085.75,0
2086,0
2086.25,0
2086.5,0
2086.75,0
2087,0
2087.25,0
2087.5,0
2087.75,0
2088,0
2088.25,0
2088.5,0
2088.75,0
2089,0
2089.25,0
2089.5,0
2089.75,0
2090,0
2090.25,0
2090.5,0
2090.75,0
2091,0
2091.25,0
2091.5,0
2091.75,0
2092,0
2092.25,0
2092.5,0
2092.75,0
2093,0
2093.25,0
2093.5,0
2093.75,0
2094,0
2094.25,0
2094.5,0
2094.75,0
2095,0
2095.25,0
2095.5,0
2095.75,0
2096,0
2096.25,0
2096.5,0
2096.75,0
2097,0
2097.25,0
2097.5,0
2097.75,0
2098,0
2098.25,0
2098.5,0
2098.75,0
2099,0
2099.25,0
2099.5,0
2099.75,0
2100,0
2100.25,0
2100.5,0
2100.75,0
2101,0
2101.25,0
2101.5,0
2101.75,0
2102,0
2102.25,0
2102.5,0
2102.75,0
2103,0
2103.25,0
2103.5,0.313673374910138
2103.75,2.15262111598408
2104,3.99156885705801
2104.25,5.83051659813194
2104.5,7.66946433920588
2104.75,9.50841208027981
2105,11.3473598213571
2105.25,13.186307562431
2105.5,15.025255303505
2105.75,16.8642030445789
2106,18.7031507856528
2106.25,20.5420985267301
2106.5,22.381046267804
2106.75,24.219994008878
2107,26.0589417499519
2107.25,27.8978894910259
2107.5,29.7368372321031
2107.75,31.5757849731771
2108,33.414732714251
2108.25,35.2536804553249
2108.5,36.7793251817762
2108.75,36.6493995261566
2109,36.5194738705372
2109.25,36.3895482149179
2109.5,36.2596225592985
2109.75,36.1296969036792
2110,35.9997712480596
2110.25,35.8698455924402
2110.5,35.7399199368209
2110.75,35.6099942812015
2111,35.4800686255822
2111.25,35.3501429699626
2111.5,35.2202173143432
2111.75,35.0902916587239
2112,34.9603660031045
2112.25,34.8304403474852
2112.5,34.7005146918656
2112.75,34.5705890362462
2113,34.4406633806269
2113.25,34.3107377250075
2113.5,34.183764058713
2113.75,34.0738269654965
2114,33.9638898722801
2114.25,33.8539527790637
2114.5,33.7440156858473
2114.75,33.634078592631
2115,33.5241414994144
2115.25,33.414204406198
2115.5,33.3042673129816
2115.75,33.1943302197653
2116,33.0843931265489
2116.25,32.9744560333325
2116.5,32.8645189401159
2116.75,32.7545818468995
2117,32.6446447536832
2117.25,32.5347076604668
2117.5,32.4247705672504
2117.75,32.3148334740338
2118,32.2048963808175
2118.25,32.0949592876011
2118.5,32
2118.75,32
2119,32
2119.25,32
2119.5,32
2119.75,32
2120,32
2120.25,32
2120.5,32
2120.75,32
2121,32
2121.25,32
2121.5,32
2121.75,32
2122,32
2122.25,32
2122.5,32
2122.75,32
2123,32
2123.25,32
2123.5,31.9993763786389
2123.75,31.9943792380382
2124,31.9893820974374
2124.25,31.9843849568367
2124.5,31.9793878162359
2124.75,31.9743906756352
2125,31.9693935350344
2125.25,31.9643963944337
2125.5,31.959399253833
2125.75,31.9544021132322
2126,31.9494049726315
2126.25,31.9444078320307
2126.5,31.93941069143
2126.75,31.9344135508292
2127,31.9294164102285
2127.25,31.9244192696277
2127.5,31.919422129027
2127.75,31.9144249884262
2128,31.9094278478255
2128.25,31.9044307072247
2128.5,31.9
2128.75,31.9
2129,31.9
2129.25,31.9
2129.5,31.9
2129.75,31.9
2130,31.9
2130.25,31.9
2130.5,31.9
2130.75,31.9
2131,31.9
2131.25,31.9
2131.5,31.9
2131.75,31.9
2132,31.9
2132.25,31.9
2132.5,31.9
2132.75,31.9
2133,31.9
2133.25,31.9
2133.5,31.9050924539092
2133.75,31.9550638599167
2134,32.0050352659241
2134.25,32.0550066719316
2134.5,32.1049780779391
2134.75,32.1549494839465
2135,32.204920889954
2135.25,32.2548922959614
2135.5,32.3048637019689
2135.75,32.3548351079764
2136,32.4048065139838
2136.25,32.4547779199913
2136.5,32.5047493259987
2136.75,32.5547207320063
2137,32.6046921380137
2137.25,32.6546635440211
2137.5,32.7046349500286
2137.75,32.754606356036
2138,32.8045777620436
2138.25,32.854549168051
2138.5,32.9018082296234
2138.75,32.9217967920264
2139,32.9417853544293
2139.25,32.9617739168323
2139.5,32.9817624792353
2139.75,33.0017510416383
2140,33.0217396040413
2140.25,33.0417281664443
2140.5,33.0617167288472
2140.75,33.0817052912503
2141,33.1016938536532
2141.25,33.1216824160562
2141.5,33.1416709784592
2141.75,33.1616595408622
2142,33.1816481032652
2142.25,33.2016366656682
2142.5,33.2216252280711
2142.75,33.2416137904741
2143,33.2616023528771
2143.25,33.2815909152801
2143.5,33.2984205223169
2143.75,33.2784319599139
2144,33.258443397511
2144.25,33.238454835108
2144.5,33.218466272705
2144.75,33.198477710302
2145,33.178489147899
2145.25,33.158500585496
2145.5,33.1385120230931
2145.75,33.11852346069
2146,33.0985348982871
2146.25,33.0785463358841
2146.5,33.0585577734811
2146.75,33.0385692110781
2147,33.0185806486751
2147.25,32.9985920862721
2147.5,32.9786035238692
2147.75,32.9586149614662
2148,32.9386263990632
2148.25,32.9186378366602
2148.5,32.9
2148.75,32.9
2149,32.9
2149.25,32.9
2149.5,32.9
2149.75,32.9
2150,32.9
2150.25,32.9
2150.5,32.9
2150.75,32.9
2151,32.9
2151.25,32.9
2151.5,32.9
2151.75,32.9
2152,32.9
2152.25,32.9
2152.5,32.9
2152.75,32.9
2153,32.9
2153.25,32.9
2153.5,32.9
2153.75,32.9
2154,32.9
2154.25,32.9
2154.5,32.9
2154.75,32.9
2155,32.9
2155.25,32.9
2155.5,32.9
2155.75,32.9
2156,32.9
2156.25,32.9
2156.5,32.9
2156.75,32.9
2157,32.9
2157.25,32.9
2157.5,32.9
2157.75,32.9
2158,32.9
2158.25,32.9
2158.5,32.9
2158.75,32.9
2159,32.9
2159.25,32.9
2159.5,32.9
2159.75,32.9
2160,32.9
2160.25,32.9
2160.5,32.9
2160.75,32.9
2161,32.9
2161.25,32.9
2161.5,32.9
2161.75,32.9
2162,32.9
2162.25,32.9
2162.5,32.9
2162.75,32.9
2163,32.9
2163.25,32.9
2163.5,32.9001661174805
2163.75,32.9051632580812
2164,32.910160398682
2164.25,32.9151575392827
2164.5,32.9201546798834
2164.75,32.9251518204842
2165,32.9301489610849
2165.25,32.9351461016857
2165.5,32.9401432422864
2165.75,32.9451403828872
2166,32.9501375234879
2166.25,32.9551346640887
2166.5,32.9601318046894
2166.75,32.9651289452902
2167,32.9701260858909
2167.25,32.9751232264917
2167.5,32.9801203670924
2167.75,32.9851175076931
2168,32.9901146482939
2168.25,32.9951117888946
2168.5,33.0004357179815
2168.75,33.0204242803845
2169,33.0404128427875
2169.25,33.0604014051905
2169.5,33.0803899675935
2169.75,33.1003785299964
2170,33.1203670923995
2170.25,33.1403556548024
2170.5,33.1603442172054
2170.75,33.1803327796084
2171,33.2003213420114
2171.25,33.2203099044144
2171.5,33.2402984668174
2171.75,33.2602870292203
2172,33.2802755916233
2172.25,33.3002641540263
2172.5,33.3202527164293
2172.75,33.3402412788323
2173,33.3602298412353
2173.25,33.3802184036382
2173.5,33.3827183355578
2173.75,31.7136733749092
2174,30.0446284142575
2174.25,28.3755834536089
2174.5,26.7065384929603
2174.75,25.0374935323117
2175,23.368448571663
2175.25,21.6994036110114
2175.5,20.0303586503628
2175.75,18.3613136897141
2176,16.6922687290655
2176.25,15.0232237684169
2176.5,13.3541788077652
2176.75,11.6851338471166
2177,10.016088886468
2177.25,8.34704392581934
2177.5,6.67799896517072
2177.75,5.00895400451905
2178,3.33990904387043
2178.25,1.6708640832218
2178.5,0.0018191225731789
2178.75,1.90183546199624
2179,3.80574603088332
2179.25,5.70965659976693
2179.5,7.61356716865054
2179.75,9.51747773753415
2180,11.4213883064178
2180.25,13.3252988753048
2180.5,15.2292094441885
2180.75,17.1331200130721
2181,19.0370305819557
2181.25,20.9409411508393
2181.5,22.8448517197264
2181.75,24.74876228861
2182,26.6526728574936
2182.25,28.5565834263772
2182.5,30.4604939952608
2182.75,32.3644045641479
2183,34.2683151330315
2183.25,36.1722257019151
2183.5,38.0761362707987
2183.75,37.8976852482232
2184,37.6928024835923
2184.25,37.4879197189617
2184.5,37.2830369543312
2184.75,37.0781541897007
2185,36.8732714250702
2185.25,36.6683886604397
2185.5,36.4635058958088
2185.75,36.2586231311783
2186,36.0537403665477
2186.25,35.8488576019172
2186.5,35.6439748372867
2186.75,35.4390920726558
2187,35.2342093080253
2187.25,35.0293265433948
2187.5,34.8244437787642
2187.75,34.6195610141337
2188,34.4146782495028
2188.25,34.2097954848723
2188.5,34.0049127202418
2188.75,34.0195092726233
2189,34.0394978350263
2189.25,34.0594863974293
2189.5,34.0794749598323
2189.75,34.0994635222352
2190,34.1194520846382
2190.25,34.1394406470412
2190.5,34.1594292094442
2190.75,34.1794177718472
2191,34.1994063342502
2191.25,34.2193948966531
2191.5,34.2393834590561
2191.75,34.2593720214591
2192,34.2793605838621
2192.25,34.2993491462651
2192.5,34.3193377086681
2192.75,34.339326271071
2193,34.3593148334741
2193.25,34.379303395877
2193.5,34.39929195828
2193.75,34.342158437951
2194,34.2821927507421
2194.25,34.2222270635331
2194.5,34.1622613763241
2194.75,34.1022956891152
2195,34.0423300019063
2195.25,33.9823643146973
2195.5,33.9223986274883
2195.75,33.8624329402794
2196,33.8024672530704
2196.25,33.7425015658615
2196.5,33.6825358786526
2196.75,33.6225701914436
2197,33.5626045042346
2197.25,33.5026388170257
2197.5,33.4426731298167
2197.75,33.3827074426078
2198,33.3227417553989
2198.25,33.2627760681898
2198.5,33.2028103809809
2198.75,33.2190517687427
2199,33.2390403311457
2199.25,33.2590288935486
2199.5,33.2790174559517
2199.75,33.2990060183546
2200,33.3189945807576
2200.25,33.3389831431606
2200.5,33.3589717055636
2200.75,33.3789602679666
2201,33.3989488303696
2201.25,33.4189373927725
2201.5,33.4389259551755
2201.75,33.4589145175785
2202,33.4789030799815
2202.25,33.4988916423845
2202.5,33.5188802047875
2202.75,33.5388687671904
2203,33.5588573295934
2203.25,33.5788458919964
2203.5,33.5988344543994
2203.75,33.7035265924131
2204,33.8134636856295
2204.25,33.9234007788458
2204.5,34.0333378720624
2204.75,34.1432749652788
2205,34.2532120584952
2205.25,34.3631491517116
2205.5,34.4730862449279
2205.75,34.5830233381445
2206,34.6929604313609
2206.25,34.8028975245773
2206.5,34.9128346177936
2206.75,35.02277171101
2207,35.1327088042266
2207.25,35.242645897443
2207.5,35.3525829906593
2207.75,35.4625200838757
2208,35.5724571770921
2208.25,35.6823942703085
2208.5,35.792331363525
2208.75,35.7860543013534
2209,35.7710628795512
2209.25,35.756071457749
2209.5,35.7410800359467
2209.75,35.7260886141445
2210,35.7110971923422
2210.25,35.69610577054
2210.5,35.6811143487378
2210.75,35.6661229269356
2211,35.6511315051333
2211.25,35.6361400833311
2211.5,35.6211486615288
2211.75,35.6061572397266
2212,35.5911658179244
2212.25,35.5761743961221
2212.5,35.5611829743199
2212.75,35.5461915525176
2213,35.5312001307154
2213.25,35.5162087089132
2213.5,35.5012172871109
2213.75,35.5
2214,35.5
2214.25,35.5
2214.5,35.5
2214.75,35.5
2215,35.5
2215.25,35.5
2215.5,35.5
2215.75,35.5
2216,35.5
2216.25,35.5
2216.5,35.5
2216.75,35.5
2217,35.5
2217.25,35.5
2217.5,35.5
2217.75,35.5
2218,35.5
2218.25,35.5
2218.5,35.5
2218.75,35.672299229324
2219,35.8621905721523
2219.25,36.0520819149805
2219.5,36.2419732578088
2219.75,36.4318646006371
2220,36.6217559434657
2220.25,36.811647286294
2220.5,37.0015386291223
2220.75,37.1914299719506
2221,37.3813213147789
2221.25,37.5712126576075
2221.5,37.7611040004358
2221.75,37.9509953432641
2222,38.1408866860924
2222.25,38.3307780289207
2222.5,38.5206693717493
2222.75,38.7105607145776
2223,38.9004520574059
2223.25,39.0903434002342
2223.5,39.2802347430624
2223.75,39.2552299773971
2224,39.2052585713896
2224.25,39.1552871653822
2224.5,39.1053157593747
2224.75,39.0553443533673
2225,39.0053729473598
2225.25,38.9554015413523
2225.5,38.9054301353449
2225.75,38.8554587293374
2226,38.80548732333
2226.25,38.7555159173225
2226.5,38.705544511315
2226.75,38.6555731053076
2227,38.6056016993001
2227.25,38.5556302932927
2227.5,38.5056588872852
2227.75,38.4556874812777
2228,38.4057160752703
2228.25,38.3557446692628
2228.5,38.3057732632554
2228.75,38.0303913292118
2229,37.7255657525664
2229.25,37.420740175921
2229.5,37.1159145992756
2229.75,36.8110890226302
2230,36.5062634459842
2230.25,36.2014378693388
2230.5,35.8966122926934
2230.75,35.591786716048
2231,35.2869611394026
2231.25,34.9821355627572
2231.5,34.6773099861112
2231.75,34.3724844094658
2232,34.0676588328204
2232.25,33.762833256175
2232.5,33.4580076795296
2232.75,33.1531821028837
2233,32.8483565262382
2233.25,32.5435309495928
2233.5,32.2387053729474
2233.75,32.165098989679
2234,32.1251218648729
2234.25,32.085144740067
2234.5,32.045167615261
2234.75,32.0051904904551
2235,31.9652133656491
2235.25,31.9252362408431
2235.5,31.8852591160371
2235.75,31.8452819912312
2236,31.8053048664252
2236.25,31.7653277416193
2236.5,31.7253506168132
2236.75,31.6853734920073
2237,31.6453963672013
2237.25,31.6054192423954
2237.5,31.5654421175894
2237.75,31.5254649927834
2238,31.4854878679774
2238.25,31.4455107431715
2238.5,31.4055336183655
2238.75,31.3397238637292
2239,31.2697638953187
2239.25,31.1998039269083
2239.5,31.1298439584978
2239.75,31.0598839900874
2240,30.989924021677
2240.25,30.9199640532664
2240.5,30.850004084856
2240.75,30.7800441164456
2241,30.7100841480352
2241.25,30.6401241796248
2241.5,30.5701642112142
2241.75,30.5002042428038
2242,30.4302442743934
2242.25,30.360284305983
2242.5,30.2903243375725
2242.75,30.2203643691621
2243,30.1504044007516
2243.25,30.0804444323411
2243.5,30.0104844639307
2243.75,29.9660139974402
2244,29.9260368726342
2244.25,29.8860597478282
2244.5,29.8460826230222
2244.75,29.8061054982163
2245,29.7661283734103
2245.25,29.7261512486044
2245.5,29.6861741237983
2245.75,29.6461969989924
2246,29.6062198741864
2246.25,29.5662427493805
2246.5,29.5262656245745
2246.75,29.4862884997685
2247,29.4463113749625
2247.25,29.4063342501566
2247.5,29.3663571253506
2247.75,29.3263800005447
2248,29.2864028757386
2248.25,29.2464257509327
2248.5,29.2064486261267
2248.75,29.2251463740094
2249,29.2551292176139
2249.25,29.2851120612184
2249.5,29.3150949048229
2249.75,29.3450777484273
2250,29.3750605920318
2250.25,29.4050434356363
2250.5,29.4350262792408
2250.75,29.4650091228453
2251,29.4949919664497
2251.25,29.5249748100542
2251.5,29.5549576536587
2251.75,29.5849404972632
2252,29.6149233408676
2252.25,29.6449061844721
2252.5,29.6748890280766
2252.75,29.704871871681
2253,29.7348547152856
2253.25,29.76483755889
2253.5,29.7948204024945
2253.75,29.7875983769505
2254,29.7726069551483
2254.25,29.757615533346
2254.5,29.7426241115438
2254.75,29.7276326897416
2255,29.7126412679393
2255.25,29.6976498461371
2255.5,29.6826584243349
2255.75,29.6676670025326
2256,29.6526755807304
2256.25,29.6376841589281
2256.5,29.6226927371259
2256.75,29.6077013153237
2257,29.5927098935214
2257.25,29.5777184717192
2257.5,29.5627270499169
2257.75,29.5477356281147
2258,29.5327442063125
2258.25,29.5177527845102
2258.5,29.502761362708
2258.75,29.5
2259,29.5
2259.25,29.5
2259.5,29.5
2259.75,29.5
2260,29.5
2260.25,29.5
2260.5,29.5
2260.75,29.5
2261,29.5
2261.25,29.5
2261.5,29.5
2261.75,29.5
2262,29.5
2262.25,29.5
2262.5,29.5
2262.75,29.5
2263,29.5
2263.25,29.5
2263.5,29.5
2263.75,29.5
2264,29.5
2264.25,29.5
2264.5,29.5
2264.75,29.5
2265,29.5
2265.25,29.5
2265.5,29.5
2265.75,29.5
2266,29.5
2266.25,29.5
2266.5,29.5
2266.75,29.5
2267,29.5
2267.25,29.5
2267.5,29.5
2267.75,29.5
2268,29.5
2268.25,29.5
2268.5,29.5
2268.75,29.5158492415784
2269,29.5358378039814
2269.25,29.5558263663844
2269.5,29.5758149287873
2269.75,29.5958034911903
2270,29.6157920535933
2270.25,29.6357806159963
2270.5,29.6557691783993
2270.75,29.6757577408023
2271,29.6957463032053
2271.25,29.7157348656082
2271.5,29.7357234280112
2271.75,29.7557119904142
2272,29.7757005528172
2272.25,29.7956891152202
2272.5,29.8156776776232
2272.75,29.8356662400261
2273,29.8556548024291
2273.25,29.8756433648321
2273.5,29.8956319272351
2273.75,29.9117153672286
2274,29.9267067890308
2274.25,29.941698210833
2274.5,29.9566896326353
2274.75,29.9716810544375
2275,29.9866724762398
2275.25,30.001663898042
2275.5,30.0166553198442
2275.75,30.0316467416465
2276,30.0466381634487
2276.25,30.061629585251
2276.5,30.0766210070532
2276.75,30.0916124288554
2277,30.1066038506577
2277.25,30.1215952724599
2277.5,30.1365866942621
2277.75,30.1515781160644
2278,30.1665695378666
2278.25,30.1815609596689
2278.5,30.1965523814711
2278.75,30.23463140982
2279,30.2796056752267
2279.25,30.3245799406334
2279.5,30.3695542060401
2279.75,30.4145284714468
2280,30.4595027368536
2280.25,30.5044770022603
2280.5,30.549451267667
2280.75,30.5944255330737
2281,30.6393997984804
2281.25,30.6843740638872
2281.5,30.7293483292939
2281.75,30.7743225947006
2282,30.8192968601073
2282.25,30.864271125514
2282.5,30.9092453909208
2282.75,30.9542196563275
2283,30.9991939217342
2283.25,31.0441681871409
2283.5,31.0891424525476
2283.75,31.130325971515
2284,31.1703030963209
2284.25,31.2102802211269
2284.5,31.2502573459328
2284.75,31.2902344707388
2285,31.3302115955448
2285.25,31.3701887203508
2285.5,31.4101658451567
2285.75,31.4501429699627
2286,31.4901200947686
2286.25,31.5300972195747
2286.5,31.5700743443806
2286.75,31.6100514691866
2287,31.6500285939925
2287.25,31.6900057187985
2287.5,31.7299828436045
2287.75,31.7699599684105
2288,31.8099370932164
2288.25,31.8499142180224
2288.5,31.8898913428283
2288.75,31.9186677922715
2289,31.9436534952752
2289.25,31.9686391982789
2289.5,31.9936249012826
2289.75,32.0186106042864
2290,32.0435963072901
2290.25,32.0685820102939
2290.5,32.0935677132976
2290.75,32.1185534163013
2291,32.143539119305
2291.25,32.1685248223087
2291.5,32.1935105253125
2291.75,32.2184962283162
2292,32.24348193132
2292.25,32.2684676343237
2292.5,32.2934533373274
2292.75,32.3184390403312
2293,32.3434247433349
2293.25,32.3684104463386
2293.5,32.3933961493423
2293.75,32.4
2294,32.4
2294.25,32.4
2294.5,32.4
2294.75,32.4
2295,32.4
2295.25,32.4
2295.5,32.4
2295.75,32.4
2296,32.4
2296.25,32.4
2296.5,32.4
2296.75,32.4
2297,32.4
2297.25,32.4
2297.5,32.4
2297.75,32.4
2298,32.4
2298.25,32.4
2298.5,32.4
2298.75,32.4361918248414
2299,32.4861632308489
2299.25,32.5361346368563
2299.5,32.5861060428638
2299.75,32.6360774488712
2300,32.6860488548787
2300.25,32.7360202608862
2300.5,32.7859916668936
2300.75,32.8359630729011
2301,32.8859344789085
2301.25,32.935905884916
2301.5,32.9858772909234
2301.75,33.0358486969309
2302,33.0858201029384
2302.25,33.1357915089458
2302.5,33.1857629149533
2302.75,33.2357343209607
2303,33.2857057269683
2303.25,33.3356771329757
2303.5,33.3856485389831
2303.75,33.3821900275047
2304,33.357204324501
2304.25,33.3322186214972
2304.5,33.3072329184935
2304.75,33.2822472154898
2305,33.257261512486
2305.25,33.2322758094823
2305.5,33.2072901064786
2305.75,33.1823044034748
2306,33.1573187004711
2306.25,33.1323329974674
2306.5,33.1073472944637
2306.75,33.0823615914599
2307,33.0573758884562
2307.25,33.0323901854525
2307.5,33.0074044824487
2307.75,32.982418779445
2308,32.9574330764412
2308.25,32.9324473734375
2308.5,32.9074616704338
2308.75,32.8123798371504
2309,32.6874513221318
2309.25,32.562522807113
2309.5,32.4375942920944
2309.75,32.3126657770757
2310,32.1877372620571
2310.25,32.0628087470385
2310.5,31.9378802320197
2310.75,31.8129517170011
2311,31.6880232019825
2311.25,31.5630946869639
2311.5,31.4381661719452
2311.75,31.3132376569264
2312,31.1883091419078
2312.25,31.0633806268892
2312.5,30.9384521118706
2312.75,30.813523596852
2313,30.6885950818334
2313.25,30.5636665668145
2313.5,30.4387380517959
2313.75,30.3758666702976
2314,30.3408866860924
2314.25,30.3059067018872
2314.5,30.2709267176819
2314.75,30.2359467334767
2315,30.2009667492715
2315.25,30.1659867650663
2315.5,30.1310067808611
2315.75,30.0960267966558
2316,30.0610468124506
2316.25,30.0260668282454
2316.5,29.9910868440402
2316.75,29.956106859835
2317,29.9211268756297
2317.25,29.8861468914245
2317.5,29.8511669072193
2317.75,29.8161869230141
2318,29.7812069388089
2318.25,29.7462269546036
2318.5,29.7112469703984
2318.75,29.7339043054383
2319,29.7838757114458
2319.25,29.8338471174532
2319.5,29.8838185234607
2319.75,29.9337899294682
2320,29.9837613354756
2320.25,30.0337327414831
2320.5,30.0837041474905
2320.75,30.1336755534981
2321,30.1836469595055
2321.25,30.2336183655129
2321.5,30.2835897715204
2321.75,30.3335611775278
2322,30.3835325835354
2322.25,30.4335039895428
2322.5,30.4834753955502
2322.75,30.5334468015577
2323,30.5834182075651
2323.25,30.6333896135727
2323.5,30.6833610195801
2323.75,30.7699980937339
2324,30.8749380463495
2324.25,30.9798779989651
2324.5,31.0848179515808
2324.75,31.1897579041966
2325,31.2946978568122
2325.25,31.3996378094279
2325.5,31.5045777620435
2325.75,31.6095177146591
2326,31.7144576672749
2326.25,31.8193976198906
2326.5,31.9243375725062
2326.75,32.0292775251218
2327,32.1342174777375
2327.25,32.2391574303533
2327.5,32.3440973829689
2327.75,32.4490373355846
2328,32.5539772882002
2328.25,32.6589172408158
2328.5,32.7638571934316
2328.75,32.8393126548842
2329,32.8992783420931
2329.25,32.959244029302
2329.5,33.019209716511
2329.75,33.07917540372
2330,33.1391410909289
2330.25,33.1991067781379
2330.5,33.2590724653468
2330.75,33.3190381525557
2331,33.3790038397648
2331.25,33.4389695269737
2331.5,33.4989352141826
2331.75,33.5589009013916
2332,33.6188665886005
2332.25,33.6788322758095
2332.5,33.7387979630185
2332.75,33.7987636502274
2333,33.8587293374363
2333.25,33.9186950246453
2333.5,33.9786607118543
2333.75,33.9967811334114
2334,33.9917839928107
2334.25,33.9867868522099
2334.5,33.9817897116092
2334.75,33.9767925710084
2335,33.9717954304077
2335.25,33.9667982898069
2335.5,33.9618011492062
2335.75,33.9568040086054
2336,33.9518068680047
2336.25,33.9468097274039
2336.5,33.9418125868032
2336.75,33.9368154462024
2337,33.9318183056017
2337.25,33.926821165001
2337.5,33.9218240244002
2337.75,33.9168268837995
2338,33.9118297431987
2338.25,33.906832602598
2338.5,33.9018354619972
2338.75,33.8747065711718
2339,33.8347294463658
2339.25,33.7947523215599
2339.5,33.7547751967539
2339.75,33.714798071948
2340,33.6748209471419
2340.25,33.634843822336
2340.5,33.59486669753
2340.75,33.5548895727241
2341,33.5149124479181
2341.25,33.4749353231121
2341.5,33.4349581983061
2341.75,33.3949810735002
2342,33.3550039486942
2342.25,33.3150268238883
2342.5,33.2750496990822
2342.75,33.2350725742763
2343,33.1950954494703
2343.25,33.1551183246644
2343.5,33.1151411998584
2343.75,33.065850603197
2344,33.0108820565888
2344.25,32.9559135099806
2344.5,32.9009449633725
2344.75,32.8459764167643
2345,32.791007870156
2345.25,32.7360393235478
2345.5,32.6810707769396
2345.75,32.6261022303314
2346,32.5711336837232
2346.25,32.5161651371149
2346.5,32.4611965905068
2346.75,32.4062280438986
2347,32.3512594972904
2347.25,32.2962909506822
2347.5,32.241322404074
2347.75,32.1863538574657
2348,32.1313853108575
2348.25,32.0764167642493
2348.5,32.0214482176411
2348.75,31.9573377631329
2349,31.8873777947223
2349.25,31.8174178263119
2349.5,31.7474578579015
2349.75,31.677497889491
2350,31.6075379210806
2350.25,31.5375779526701
2350.5,31.4676179842597
2350.75,31.3976580158492
2351,31.3276980474388
2351.25,31.2577380790284
2351.5,31.1877781106178
2351.75,31.1178181422074
2352,31.047858173797
2352.25,30.9778982053866
2352.5,30.9079382369762
2352.75,30.8379782685656
2353,30.7680183001552
2353.25,30.6980583317448
2353.5,30.6280983633343
2353.75,30.5671087388688
2354,30.5121401922605
2354.25,30.4571716456523
2354.5,30.4022030990441
2354.75,30.3472345524359
2355,30.2922660058278
2355.25,30.2372974592195
2355.5,30.1823289126113
2355.75,30.1273603660031
2356,30.0723918193949
2356.25,30.0174232727867
2356.5,29.9624547261784
2356.75,29.9074861795702
2357,29.852517632962
2357.25,29.7975490863539
2357.5,29.7425805397457
2357.75,29.6876119931374
2358,29.6326434465292
2358.25,29.577674899921
2358.5,29.5227063533128
2358.75,29.5293292666322
2359,29.5793006726396
2359.25,29.6292720786471
2359.5,29.6792434846546
2359.75,29.729214890662
2360,29.7791862966695
2360.25,29.8291577026769
2360.5,29.8791291086844
2360.75,29.9291005146919
2361,29.9790719206993
2361.25,30.0290433267068
2361.5,30.0790147327142
2361.75,30.1289861387218
2362,30.1789575447292
2362.25,30.2289289507366
2362.5,30.2789003567441
2362.75,30.3288717627515
2363,30.3788431687591
2363.25,30.4288145747665
2363.5,30.478785980774
2363.75,30.459739658506
2364,30.3897796900956
2364.25,30.3198197216851
2364.5,30.2498597532746
2364.75,30.1798997848642
2365,30.1099398164538
2365.25,30.0399798480434
2365.5,29.9700198796328
2365.75,29.9000599112224
2366,29.830099942812
2366.25,29.7601399744016
2366.5,29.6901800059912
2366.75,29.6202200375806
2367,29.5502600691702
2367.25,29.4803001007598
2367.5,29.4103401323493
2367.75,29.3403801639389
2368,29.2704201955284
2368.25,29.2004602271179
2368.5,29.1305002587075
2368.75,29.1310040576237
2369,29.1859726042319
2369.25,29.2409411508402
2369.5,29.2959096974484
2369.75,29.3508782440566
2370,29.4058467906647
2370.25,29.4608153372729
2370.5,29.5157838838811
2370.75,29.5707524304894
2371,29.6257209770976
2371.25,29.6806895237058
2371.5,29.735658070314
2371.75,29.7906266169222
2372,29.8455951635305
2372.25,29.9005637101386
2372.5,29.9555322567468
2372.75,30.010500803355
2373,30.0654693499632
2373.25,30.1204378965715
2373.5,30.1754064431797
2373.75,30.1447727458402
2374,30.0448299338253
2374.25,29.9448871218105
2374.5,29.8449443097954
2374.75,29.7450014977805
2375,29.6450586857656
2375.25,29.5451158737507
2375.5,29.4451730617358
2375.75,29.3452302497208
2376,29.2452874377059
2376.25,29.145344625691
2376.5,29.0454018136761
2376.75,28.9454590016612
2377,28.8455161896462
2377.25,28.7455733776313
2377.5,28.6456305656164
2377.75,28.5456877536015
2378,28.4457449415866
2378.25,28.3458021295715
2378.5,28.2458593175566
2378.75,28.2
2379,28.2
2379.25,28.2
2379.5,28.2
2379.75,28.2
2380,28.2
2380.25,28.2
2380.5,28.2
2380.75,28.2
2381,28.2
2381.25,28.2
2381.5,28.2
2381.75,28.2
2382,28.2
2382.25,28.2
2382.5,28.2
2382.75,28.2
2383,28.2
2383.25,28.2
2383.5,28.2
2383.75,28.2185289071649
2384,28.2535088913701
2384.25,28.2884888755753
2384.5,28.3234688597805
2384.75,28.3584488439858
2385,28.393428828191
2385.25,28.4284088123962
2385.5,28.4633887966014
2385.75,28.4983687808066
2386,28.5333487650119
2386.25,28.5683287492171
2386.5,28.6033087334223
2386.75,28.6382887176275
2387,28.6732687018327
2387.25,28.708248686038
2387.5,28.7432286702432
2387.75,28.7782086544484
2388,28.8131886386536
2388.25,28.8481686228588
2388.5,28.8831486070641
2388.75,28.9517959750552
2389,29.0517387870701
2389.25,29.151681599085
2389.5,29.2516244110999
2389.75,29.3515672231149
2390,29.4515100351298
2390.25,29.5514528471447
2390.5,29.6513956591596
2390.75,29.7513384711745
2391,29.8512812831896
2391.25,29.9512240952045
2391.5,30.0511669072193
2391.75,30.1511097192342
2392,30.2510525312491
2392.25,30.3509953432642
2392.5,30.4509381552791
2392.75,30.550880967294
2393,30.6508237793088
2393.25,30.7507665913237
2393.5,30.8507094033386
2393.75,30.8696086707878
2394,30.8096429835789
2394.25,30.7496772963699
2394.5,30.689711609161
2394.75,30.6297459219521
2395,30.569780234743
2395.25,30.5098145475341
2395.5,30.4498488603251
2395.75,30.3898831731162
2396,30.3299174859073
2396.25,30.2699517986982
2396.5,30.2099861114893
2396.75,30.1500204242804
2397,30.0900547370714
2397.25,30.0300890498625
2397.5,29.9701233626535
2397.75,29.9101576754445
2398,29.8501919882356
2398.25,29.7902263010267
2398.5,29.7302606138177
2398.75,29.6950491544348
2399,29.6850548732333
2399.25,29.6750605920318
2399.5,29.6650663108303
2399.75,29.6550720296288
2400,29.6450777484273
2400.25,29.6350834672258
2400.5,29.6250891860243
2400.75,29.6150949048229
2401,29.6051006236214
2401.25,29.5951063424199
2401.5,29.5851120612184
2401.75,29.5751177800169
2402,29.5651234988154
2402.25,29.5551292176139
2402.5,29.5451349364124
2402.75,29.5351406552109
2403,29.5251463740094
2403.25,29.5151520928079
2403.5,29.5051578116064
2403.75,29.4975817652025
2404,29.4925846246017
2404.25,29.487587484001
2404.5,29.4825903434002
2404.75,29.4775932027995
2405,29.4725960621987
2405.25,29.467598921598
2405.5,29.4626017809972
2405.75,29.4576046403965
2406,29.4526074997958
2406.25,29.447610359195
2406.5,29.4426132185943
2406.75,29.4376160779935
2407,29.4326189373928
2407.25,29.427621796792
2407.5,29.4226246561913
2407.75,29.4176275155905
2408,29.4126303749898
2408.25,29.407633234389
2408.5,29.4026360937883
2408.75,29.3976389531875
2409,29.3926418125868
2409.25,29.3876446719861
2409.5,29.3826475313853
2409.75,29.3776503907846
2410,29.3726532501838
2410.25,29.3676561095831
2410.5,29.3626589689823
2410.75,29.3576618283816
2411,29.3526646877808
2411.25,29.3476675471801
2411.5,29.3426704065793
2411.75,29.3376732659786
2412,29.3326761253778
2412.25,29.3276789847771
2412.5,29.3226818441764
2412.75,29.3176847035756
2413,29.3126875629749
2413.25,29.3076904223741
2413.5,29.3026932817734
2413.75,29.3207347294464
2414,29.3657089948531
2414.25,29.4106832602598
2414.5,29.4556575256665
2414.75,29.5006317910732
2415,29.5456060564799
2415.25,29.5905803218867
2415.5,29.6355545872934
2415.75,29.6805288527001
2416,29.7255031181068
2416.25,29.7704773835135
2416.5,29.8154516489202
2416.75,29.860425914327
2417,29.9054001797337
2417.25,29.9503744451404
2417.5,29.9953487105471
2417.75,30.0403229759538
2418,30.0852972413606
2418.25,30.1302715067673
2418.5,30.175245772174
2418.75,30.1910133166308
2419,30.1710247542278
2419.25,30.1510361918248
2419.5,30.1310476294218
2419.75,30.1110590670189
2420,30.0910705046159
2420.25,30.0710819422129
2420.5,30.0510933798099
2420.75,30.0311048174069
2421,30.0111162550039
2421.25,29.991127692601
2421.5,29.971139130198
2421.75,29.951150567795
2422,29.931162005392
2422.25,29.911173442989
2422.5,29.891184880586
2422.75,29.8711963181831
2423,29.8512077557801
2423.25,29.8312191933771
2423.5,29.8112306309741
2423.75,29.8613055200022
2424,30.001225456823
2424.25,30.1411453936441
2424.5,30.281065330465
2424.75,30.4209852672858
2425,30.5609052041066
2425.25,30.7008251409275
2425.5,30.8407450777486
2425.75,30.9806650145694
2426,31.1205849513903
2426.25,31.2605048882111
2426.5,31.400424825032
2426.75,31.540344761853
2427,31.6802646986739
2427.25,31.8201846354947
2427.5,31.9601045723156
2427.75,32.1000245091364
2428,32.2399444459573
2428.25,32.3798643827784
2428.5,32.5197843195992
2428.75,32.644778192315
2429,32.7497181449307
2429.25,32.8546580975463
2429.5,32.9595980501621
2429.75,33.0645380027778
2430,33.1694779553934
2430.25,33.274417908009
2430.5,33.3793578606247
2430.75,33.4842978132405
2431,33.5892377658561
2431.25,33.6941777184717
2431.5,33.7991176710874
2431.75,33.904057623703
2432,34.0089975763188
2432.25,34.1139375289345
2432.5,34.2188774815501
2432.75,34.3238174341657
2433,34.4287573867814
2433.25,34.5336973393972
2433.5,34.6386372920128
2433.75,34.7062253206612
2434,34.7212167424634
2434.25,34.7362081642657
2434.5,34.7511995860679
2434.75,34.7661910078702
2435,34.7811824296724
2435.25,34.7961738514746
2435.5,34.8111652732769
2435.75,34.8261566950791
2436,34.8411481168814
2436.25,34.8561395386836
2436.5,34.8711309604858
2436.75,34.8861223822881
2437,34.9011138040903
2437.25,34.9161052258926
2437.5,34.9310966476948
2437.75,34.946088069497
2438,34.9610794912993
2438.25,34.9760709131015
2438.5,34.9910623349037
2438.75,35.012107513412
2439,35.0420903570164
2439.25,35.0720732006209
2439.5,35.1020560442254
2439.75,35.1320388878299
2440,35.1620217314343
2440.25,35.1920045750388
2440.5,35.2219874186433
2440.75,35.2519702622477
2441,35.2819531058523
2441.25,35.3119359494567
2441.5,35.3419187930612
2441.75,35.3719016366657
2442,35.4018844802701
2442.25,35.4318673238746
2442.5,35.4618501674791
2442.75,35.4918330110836
2443,35.5218158546881
2443.25,35.5517986982925
2443.5,35.581781541897
2443.75,35.6078429236677
2444,35.6278314860706
2444.25,35.6478200484736
2444.5,35.6678086108766
2444.75,35.6877971732796
2445,35.7077857356826
2445.25,35.7277742980856
2445.5,35.7477628604886
2445.75,35.7677514228915
2446,35.7877399852945
2446.25,35.8077285476975
2446.5,35.8277171101005
2446.75,35.8477056725035
2447,35.8676942349065
2447.25,35.8876827973095
2447.5,35.9076713597124
2447.75,35.9276599221154
2448,35.9476484845184
2448.25,35.9676370469214
2448.5,35.9876256093244
2448.75,35.9847716565453
2449,35.9447945317393
2449.25,35.9048174069334
2449.5,35.8648402821274
2449.75,35.8248631573214
2450,35.7848860325154
2450.25,35.7449089077095
2450.5,35.7049317829035
2450.75,35.6649546580976
2451,35.6249775332915
2451.25,35.5850004084856
2451.5,35.5450232836796
2451.75,35.5050461588737
2452,35.4650690340677
2452.25,35.4250919092618
2452.5,35.3851147844557
2452.75,35.3451376596498
2453,35.3051605348438
2453.25,35.2651834100379
2453.5,35.2252062852319
2453.75,35.1538411263309
2454,35.0289126113123
2454.25,34.9039840962937
2454.5,34.779055581275
2454.75,34.6541270662564
2455,34.5291985512376
2455.25,34.404270036219
2455.5,34.2793415212004
2455.75,34.1544130061818
2456,34.0294844911632
2456.25,33.9045559761443
2456.5,33.7796274611257
2456.75,33.6546989461071
2457,33.5297704310885
2457.25,33.4048419160699
2457.5,33.279913401051
2457.75,33.1549848860324
2458,33.0300563710138
2458.25,32.9051278559952
2458.5,32.7801993409766
2458.75,32.6874758312682
2459,32.652495847063
2459.25,32.6175158628578
2459.5,32.5825358786525
2459.75,32.5475558944473
2460,32.5125759102421
2460.25,32.4775959260368
2460.5,32.4426159418316
2460.75,32.4076359576264
2461,32.3726559734212
2461.25,32.3376759892159
2461.5,32.3026960050107
2461.75,32.2677160208055
2462,32.2327360366003
2462.25,32.1977560523951
2462.5,32.1627760681898
2462.75,32.1277960839846
2463,32.0928160997794
2463.25,32.0578361155742
2463.5,32.022856131369
2463.75,32.0277116636257
2464,32.1076659132377
2464.25,32.1876201628496
2464.5,32.2675744124615
2464.75,32.3475286620735
2465,32.4274829116854
2465.25,32.5074371612974
2465.5,32.5873914109093
2465.75,32.6673456605212
2466,32.7472999101332
2466.25,32.8272541597451
2466.5,32.9072084093571
2466.75,32.987162658969
2467,33.0671169085809
2467.25,33.1470711581929
2467.5,33.2270254078048
2467.75,33.3069796574168
2468,33.3869339070287
2468.25,33.4668881566406
2468.5,33.5468424062525
2468.75,33.6133983279322
2469,33.6533754527383
2469.25,33.6933525775442
2469.5,33.7333297023502
2469.75,33.7733068271561
2470,33.8132839519621
2470.25,33.8532610767681
2470.5,33.8932382015741
2470.75,33.93321532638
2471,33.973192451186
2471.25,34.0131695759919
2471.5,34.053146700798
2471.75,34.0931238256039
2472,34.1331009504099
2472.25,34.1730780752158
2472.5,34.2130552000218
2472.75,34.2530323248278
2473,34.2930094496338
2473.25,34.3329865744397
2473.5,34.3729636992457
2473.75,34.4501456932
2474,34.6050570518234
2474.25,34.7599684104465
2474.5,34.9148797690695
2474.75,35.0697911276926
2475,35.2247024863157
2475.25,35.3796138449388
2475.5,35.5345252035621
2475.75,35.6894365621852
2476,35.8443479208083
2476.25,35.9992592794314
2476.5,36.1541706380544
2476.75,36.3090819966778
2477,36.4639933553009
2477.25,36.6189047139239
2477.5,36.773816072547
2477.75,36.9287274311701
2478,37.0836387897934
2478.25,37.2385501484165
2478.5,37.3934615070396
2478.75,37.4641104545083
2479,37.3491762206912
2479.25,37.2342419868739
2479.5,37.1193077530568
2479.75,37.0043735192396
2480,36.8894392854225
2480.25,36.7745050516054
2480.5,36.6595708177881
2480.75,36.5446365839709
2481,36.4297023501538
2481.25,36.3147681163367
2481.5,36.1998338825196
2481.75,36.0848996487023
2482,35.9699654148851
2482.25,35.855031181068
2482.5,35.7400969472509
2482.75,35.6251627134338
2483,35.5102284796164
2483.25,35.3952942457993
2483.5,35.2803600119822
2483.75,35.1774515944555
2484,35.1024944854443
2484.25,35.027537376433
2484.5,34.9525802674219
2484.75,34.8776231584107
2485,34.8026660493995
2485.25,34.7277089403884
2485.5,34.6527518313771
2485.75,34.5777947223659
2486,34.5028376133547
2486.25,34.4278805043436
2486.5,34.3529233953324
2486.75,34.2779662863212
2487,34.2030091773099
2487.25,34.1280520682988
2487.5,34.0530949592876
2487.75,33.9781378502764
2488,33.9031807412653
2488.25,33.828223632254
2488.5,33.7532665232428
2488.75,33.6681871408731
2489,33.5582500476567
2489.25,33.4483129544403
2489.5,33.3383758612237
2489.75,33.2284387680074
2490,33.118501674791
2490.25,33.0085645815746
2490.5,32.8986274883582
2490.75,32.7886903951416
2491,32.6787533019253
