2431,36.4743119392876
2431.25,36.4293250024191
2431.5,36.3843380655507
2431.75,36.3393511286822
2432,36.2749519636167
2432.25,36.0750100219793
2432.5,35.8750680803419
2432.75,35.6751261387042
2433,35.4751841970668
2433.25,35.2752422554291
2433.5,35.0753003137917
2433.75,34.8753583721544
2434,34.6754164305166
2434.25,34.4754744888793
2434.5,34.2755325472415
2434.75,34.0755906056042
2435,33.8756486639664
2435.25,33.675706722329
2435.5,33.4757647806917
2435.75,33.2758228390539
2436,33.0758808974166
2436.25,32.8759389557788
2436.5,32.6759970141415
2436.75,32.4760550725041
2437,32.301791515185
2437.25,32.3167871608078
2437.5,32.3317828064307
2437.75,32.3467784520535
2438,32.3617740976763
2438.25,32.3767697432991
2438.5,32.3917653889219
2438.75,32.4067610345447
2439,32.4217566801675
2439.25,32.4367523257904
2439.5,32.4517479714132
2439.75,32.466743617036
2440,32.4817392626588
2440.25,32.4967349082816
2440.5,32.5117305539044
2440.75,32.5267261995272
2441,32.54172184515
2441.25,32.5567174907729
2441.5,32.5717131363957
2441.75,32.5867087820185
2442,32.5965911447174
2442.25,32.5665998534717
2442.5,32.5366085622261
2442.75,32.5066172709805
2443,32.4766259797349
2443.25,32.4466346884893
2443.5,32.4166433972436
2443.75,32.386652105998
2444,32.3566608147524
2444.25,32.3266695235067
2444.5,32.2966782322611
2444.75,32.2666869410155
2445,32.2366956497699
2445.25,32.2067043585242
2445.5,32.1767130672786
2445.75,32.146721776033
2446,32.1167304847873
2446.25,32.0867391935417
2446.5,32.0567479022961
2446.75,32.0267566110505
2447,32.0134778341464
2447.25,32.13844154767
2447.5,32.2634052611934
2447.75,32.388368974717
2448,32.5133326882403
2448.25,32.6382964017639
2448.5,32.7632601152873
2448.75,32.8882238288106
2449,33.0131875423342
2449.25,33.1381512558576
2449.5,33.2631149693811
2449.75,33.3880786829045
2450,33.5130423964279
2450.25,33.6380061099514
2450.5,33.7629698234748
2450.75,33.8879335369984
2451,34.0128972505217
2451.25,34.1378609640453
2451.5,34.2628246775687
2451.75,34.387788391092
2452,34.4989798316307
2452.25,34.4889827345489
2452.5,34.478985637467
2452.75,34.4689885403851
2453,34.4589914433033
2453.25,34.4489943462214
2453.5,34.4389972491395
2453.75,34.4290001520576
2454,34.4190030549757
2454.25,34.4090059578939
2454.5,34.399008860812
2454.75,34.3890117637301
2455,34.3790146666482
2455.25,34.3690175695664
2455.5,34.3590204724845
2455.75,34.3490233754026
2456,34.3390262783207
2456.25,34.3290291812389
2456.5,34.319032084157
2456.75,34.3090349870751
2457,34.2975947249831
2457.25,34.2726019822784
2457.5,34.2476092395737
2457.75,34.222616496869
2458,34.1976237541643
2458.25,34.1726310114596
2458.5,34.1476382687549
2458.75,34.1226455260502
2459,34.0976527833456
2459.25,34.0726600406409
2459.5,34.0476672979362
2459.75,34.0226745552315
2460,33.9976818125268
2460.25,33.9726890698221
2460.5,33.9476963271174
2460.75,33.9227035844127
2461,33.897710841708
2461.25,33.8727180990034
2461.5,33.8477253562986
2461.75,33.822732613594
2462,33.7877953028022
2462.25,33.6528344921967
2462.5,33.5178736815915
2462.75,33.382912870986
2463,33.2479520603808
2463.25,33.1129912497755
2463.5,32.9780304391701
2463.75,32.8430696285649
2464,32.7081088179594
2464.25,32.5731480073542
2464.5,32.4381871967487
2464.75,32.3032263861435
2465,32.1682655755382
2465.25,32.0333047649328
2465.5,31.8983439543275
2465.75,31.7633831437221
2466,31.6284223331168
2466.25,31.4934615225116
2466.5,31.3585007119061
2466.75,31.2235399013009
2467,31.0966160268727
2467.25,31.0566276385453
2467.5,31.0166392502177
2467.75,30.9766508618902
2468,30.9366624735628
2468.25,30.8966740852352
2468.5,30.8566856969077
2468.75,30.8166973085802
2469,30.7767089202527
2469.25,30.7367205319252
2469.5,30.6967321435977
2469.75,30.6567437552702
2470,30.6167553669427
2470.25,30.5767669786152
2470.5,30.5367785902877
2470.75,30.4967902019602
2471,30.4568018136327
2471.25,30.4168134253052
2471.5,30.3768250369777
2471.75,30.3368366486501
2472,30.302363804758
2472.25,30.3323550960036
2472.5,30.3623463872493
2472.75,30.3923376784949
2473,30.4223289697405
2473.25,30.4523202609861
2473.5,30.4823115522317
2473.75,30.5123028434774
2474,30.542294134723
2474.25,30.5722854259687
2474.5,30.6022767172143
2474.75,30.6322680084599
2475,30.6622592997055
2475.25,30.6922505909512
2475.5,30.7222418821968
2475.75,30.7522331734424
2476,30.7822244646881
2476.25,30.8122157559337
2476.5,30.8422070471793
2476.75,30.8721983384249
2477,30.9058390124548
2477.25,30.9858157891099
2477.5,31.0657925657649
2477.75,31.14576934242
2478,31.2257461190749
2478.25,31.3057228957299
2478.5,31.3856996723849
2478.75,31.4656764490399
2479,31.545653225695
2479.25,31.6256300023499
2479.5,31.7056067790049
2479.75,31.78558355566
2480,31.8655603323149
2480.25,31.94553710897
2480.5,32.025513885625
2480.75,32.1054906622801
2481,32.185467438935
2481.25,32.26544421559
2481.5,32.3454209922451
2481.75,32.4253977689
2482,32.5030231818747
2482.25,32.5480101187432
2482.5,32.5929970556116
2482.75,32.6379839924801
2483,32.6829709293485
2483.25,32.7279578662169
2483.5,32.7729448030854
2483.75,32.8179317399538
2484,32.8629186768223
2484.25,32.9079056136907
2484.5,32.9528925505592
2484.75,32.9978794874276
2485,33.0428664242961
2485.25,33.0878533611645
2485.5,33.1328402980329
2485.75,33.1778272349014
2486,33.2228141717698
2486.25,33.2678011086383
2486.5,33.3127880455067
2486.75,33.3577749823751
2487,33.4042963188233
2487.25,33.4742759983964
2487.5,33.5442556779696
2487.75,33.6142353575427
2488,33.6842150371159
2488.25,33.754194716689
2488.5,33.8241743962621
2488.75,33.8941540758353
2489,33.9641337554083
2489.25,34.0341134349816
2489.5,34.1040931145546
2489.75,34.1740727941277
2490,34.2440524737009
2490.25,34.314032153274
2490.5,34.3840118328472
2490.75,34.4539915124203
2491,34.5239711919935
2491.25,34.5939508715666
2491.5,34.6639305511397
2491.75,34.7339102307129
2492,34.8033342088165
2492.25,34.8633167913078
2492.5,34.9232993737991
2492.75,34.9832819562903
2493,35.0432645387816
2493.25,35.1032471212728
2493.5,35.1632297037641
2493.75,35.2232122862553
2494,35.2831948687466
2494.25,35.3431774512379
2494.5,35.4031600337291
2494.75,35.4631426162204
2495,35.5231251987116
2495.25,35.5831077812029
2495.5,35.6430903636941
2495.75,35.7030729461853
2496,35.7630555286767
2496.25,35.8230381111679
2496.5,35.8830206936592
2496.75,35.9430032761504
2497,35.999502356893
2497.25,35.9895052598112
2497.5,35.9795081627293
2497.75,35.9695110656474
2498,35.9595139685656
2498.25,35.9495168714837
2498.5,35.9395197744018
2498.75,35.9295226773199
2499,35.919525580238
2499.25,35.9095284831562
2499.5,35.8995313860743
2499.75,35.8895342889924
2500,35.8795371919105
2500.25,35.8695400948287
2500.5,35.8595429977468
2500.75,35.8495459006649
2501,35.839548803583
2501.25,35.8295517065012
2501.5,35.8195546094193
2501.75,35.8095575123374
2502,35.7958239449275
2502.25,35.7008515226498
2502.5,35.6058791003718
2502.75,35.5109066780941
2503,35.4159342558163
2503.25,35.3209618335384
2503.5,35.2259894112607
2503.75,35.1310169889827
2504,35.036044566705
2504.25,34.9410721444271
2504.5,34.8460997221493
2504.75,34.7511272998716
2505,34.6561548775936
2505.25,34.5611824553159
2505.5,34.466210033038
2505.75,34.3712376107602
2506,34.2762651884825
2506.25,34.1812927662045
2506.5,34.0863203439268
2506.75,33.9913479216489
2507,33.899427710427
2507.25,33.8844320648042
2507.5,33.8694364191814
2507.75,33.8544407735586
2508,33.8394451279357
2508.25,33.824449482313
2508.5,33.8094538366901
2508.75,33.7944581910673
2509,33.7794625454445
2509.25,33.7644668998217
2509.5,33.7494712541989
2509.75,33.734475608576
2510,33.7194799629532
2510.25,33.7044843173304
2510.5,33.6894886717076
2510.75,33.6744930260848
2511,33.659497380462
2511.25,33.6445017348392
2511.5,33.6295060892163
2511.75,33.6145104435935
2512,33.6004852020293
2512.25,33.6154808476521
2512.5,33.6304764932749
2512.75,33.6454721388977
2513,33.6604677845205
2513.25,33.6754634301434
2513.5,33.6904590757662
2513.75,33.705454721389
2514,33.7204503670118
2514.25,33.7354460126346
2514.5,33.7504416582574
2514.75,33.7654373038802
2515,33.780432949503
2515.25,33.7954285951259
2515.5,33.8104242407487
2515.75,33.8254198863715
2516,33.8404155319943
2516.25,33.8554111776171
2516.5,33.8704068232399
2516.75,33.8854024688627
2517,33.9023886869134
2517.25,33.9923625606502
2517.5,34.0823364343872
2517.75,34.172310308124
2518,34.2622841818608
2518.25,34.3522580555978
2518.5,34.4422319293346
2518.75,34.5322058030716
2519,34.6221796768084
2519.25,34.7121535505452
2519.5,34.8021274242822
2519.75,34.892101298019
2520,34.982075171756
2520.25,35.0720490454928
2520.5,35.1620229192298
2520.75,35.2519967929666
2521,35.3419706667034
2521.25,35.4319445404404
2521.5,35.5219184141772
2521.75,35.6118922879142
2522,35.7010367564728
2522.25,35.7510222418821
2522.5,35.8010077272916
2522.75,35.8509932127009
2523,35.9009786981103
2523.25,35.9509641835197
2523.5,36.0009496689291
2523.75,36.0509351543385
2524,36.1009206397478
2524.25,36.1509061251572
2524.5,36.2008916105666
2524.75,36.250877095976
2525,36.3008625813854
2525.25,36.3508480667947
2525.5,36.4008335522041
2525.75,36.4508190376135
2526,36.5008045230229
2526.25,36.5507900084323
2526.5,36.6007754938417
2526.75,36.650760979251
2527,36.7018661616509
2527.25,36.8268298751745
2527.5,36.9517935886979
2527.75,37.0767573022215
2528,37.2017210157448
2528.25,37.3266847292682
2528.5,37.4516484427918
2528.75,37.5766121563151
2529,37.7015758698387
2529.25,37.826539583362
2529.5,37.9515032968856
2529.75,38.076467010409
2530,38.2014307239323
2530.25,38.3263944374559
2530.5,38.4513581509793
2530.75,38.5763218645029
2531,38.7012855780262
2531.25,38.8262492915496
2531.5,38.9512130050732
2531.75,39.0761767185965
2532,39.197901604899
2532.25,38.967968372016
2532.5,38.738035139133
2532.75,38.5081019062496
2533,38.2781686733667
2533.25,38.0482354404833
2533.5,37.8183022076003
2533.75,37.5883689747169
2534,37.3584357418339
2534.25,37.128502508951
2534.5,36.8985692760676
2534.75,36.6686360431846
2535,36.4387028103012
2535.25,36.2087695774182
2535.5,35.9788363445352
2535.75,35.7489031116518
2536,35.5189698787689
2536.25,35.2890366458855
2536.5,35.0591034130025
2536.75,34.8291701801191
2537,34.5998175308608
2537.25,34.5448334969105
2537.5,34.4898494629602
2537.75,34.4348654290099
2538,34.3798813950595
2538.25,34.3248973611092
2538.5,34.2699133271589
2538.75,34.2149292932086
2539,34.1599452592583
2539.25,34.1049612253079
2539.5,34.0499771913576
2539.75,33.9949931574073
2540,33.940009123457
2540.25,33.8850250895067
2540.5,33.8300410555563
2540.75,33.7750570216061
2541,33.7200729876557
2541.25,33.6650889537054
2541.5,33.6101049197551
2541.75,33.5551208858047
2542,33.5001368518545
2542.25,33.3952917432714
2542.5,33.2903222239118
2542.75,33.185352704552
2543,33.0803831851924
2543.25,32.9754136658328
2543.5,32.870444146473
2543.75,32.7654746271133
2544,32.6605051077535
2544.25,32.5555355883939
2544.5,32.4505660690343
2544.75,32.3455965496745
2545,32.2406270303149
2545.25,32.135657510955
2545.5,32.0306879915954
2545.75,31.9257184722356
2546,31.820748952876
2546.25,31.7157794335164
2546.5,31.6108099141566
2546.75,31.5058403947969
2547,31.4008708754371
2547.25,31.4991415656405
2547.5,31.5991125364591
2547.75,31.699083507278
2548,31.7990544780967
2548.25,31.8990254489156
2548.5,31.9989964197342
2548.75,32.0989673905529
2549,32.1989383613718
2549.25,32.2989093321905
2549.5,32.3988803030094
2549.75,32.498851273828
2550,32.5988222446469
2550.25,32.6987932154656
2550.5,32.7987641862843
2550.75,32.8987351571031
2551,32.9987061279218
2551.25,33.0986770987407
2551.5,33.1986480695594
2551.75,33.2986190403781
2552,33.3985900111969
2552.25,33.4049280491008
2552.5,33.4099265976417
2552.75,33.4149251461827
2553,33.4199236947236
2553.25,33.4249222432645
2553.5,33.4299207918055
2553.75,33.4349193403464
2554,33.4399178888874
2554.25,33.4449164374283
2554.5,33.4499149859692
2554.75,33.4549135345102
2555,33.4599120830511
2555.25,33.464910631592
2555.5,33.469909180133
2555.75,33.4749077286739
2556,33.4799062772149
2556.25,33.4849048257558
2556.5,33.4899033742967
2556.75,33.4949019228377
2557,33.4999004713786
2557.25,33.5048990199195
2557.5,33.5098975684605
2557.75,33.5148961170014
2558,33.5198946655424
2558.25,33.5248932140833
2558.5,33.5298917626242
2558.75,33.5348903111652
2559,33.5398888597061
2559.25,33.5448874082471
2559.5,33.549885956788
2559.75,33.5548845053289
2560,33.5598830538699
2560.25,33.5648816024108
2560.5,33.5698801509517
2560.75,33.5748786994927
2561,33.5798772480336
2561.25,33.5848757965746
2561.5,33.5898743451155
2561.75,33.5948728936564
2562,33.5998714421974
2562.25,33.5123401667105
2562.5,33.4223662929737
2562.75,33.3323924192367
2563,33.2424185454999
2563.25,33.1524446717629
2563.5,33.0624707980261
2563.75,32.9724969242892
2564,32.8825230505523
2564.25,32.7925491768154
2564.5,32.7025753030785
2564.75,32.6126014293417
2565,32.5226275556048
2565.25,32.4326536818679
2565.5,32.342679808131
2565.75,32.2527059343941
2566,32.1627320606572
2566.25,32.0727581869203
2566.5,31.9827843131834
2566.75,31.8928104394466
2567,31.8028365657096
2567.25,31.8290457693424
2567.5,31.8590370605881
2567.75,31.8890283518337
2568,31.9190196430793
2568.25,31.9490109343249
2568.5,31.9790022255705
2568.75,32.0089935168162
2569,32.0389848080618
2569.25,32.0689760993075
2569.5,32.0989673905531
2569.75,32.1289586817987
2570,32.1589499730443
2570.25,32.1889412642899
2570.5,32.2189325555356
2570.75,32.2489238467812
2571,32.2789151380268
2571.25,32.3089064292725
2571.5,32.3388977205181
2571.75,32.3688890117637
2572,32.3988803030093
2572.25,32.51548637702
2572.5,32.6354515420024
2572.75,32.7554167069848
2573,32.8753818719675
2573.25,32.9953470369499
2573.5,33.1153122019325
2573.75,33.235277366915
2574,33.3552425318974
2574.25,33.47520769688
2574.5,33.5951728618624
2574.75,33.7151380268451
2575,33.8351031918275
2575.25,33.9550683568102
2575.5,34.0750335217926
2575.75,34.194998686775
2576,34.3149638517576
2576.25,34.4349290167401
2576.5,34.5548941817227
2576.75,34.6748593467051
2577,34.7948245116875
2577.25,34.905223870281
2577.5,35.0151919381816
2577.75,35.1251600060823
2578,35.2351280739829
2578.25,35.3450961418834
2578.5,35.4550642097842
2578.75,35.5650322776847
2579,35.6750003455855
2579.25,35.784968413486
2579.5,35.8949364813868
2579.75,36.0049045492873
2580,36.1148726171879
2580.25,36.2248406850887
2580.5,36.3348087529892
2580.75,36.44477682089
2581,36.5547448887905
2581.25,36.6647129566911
2581.5,36.7746810245918
2581.75,36.8846490924924
2582,36.9946171603931
2582.25,36.8668915276262
2582.5,36.7269321684798
2582.75,36.5869728093336
2583,36.4470134501875
2583.25,36.3070540910411
2583.5,36.1670947318949
2583.75,36.0271353727485
2584,35.8871760136023
2584.25,35.7472166544562
2584.5,35.6072572953098
2584.75,35.4672979361636
2585,35.3273385770172
2585.25,35.187379217871
2585.5,35.0474198587246
2585.75,34.9074604995784
2586,34.7675011404323
2586.25,34.6275417812859
2586.5,34.4875824221397
2586.75,34.3476230629933
2587,34.2076637038471
2587.25,34.0866037240294
2587.5,33.9666385590468
2587.75,33.8466733940643
2588,33.7267082290817
2588.25,33.6067430640993
2588.5,33.4867778991166
2588.75,33.3668127341342
2589,33.2468475691518
2589.25,33.1268824041692
2589.5,33.0069172391867
2589.75,32.8869520742041
2590,32.7669869092217
2590.25,32.6470217442392
2590.5,32.5270565792566
2590.75,32.4070914142742
2591,32.2871262492915
2591.25,32.1671610843091
2591.5,32.0471959193265
2591.75,31.9272307543441
2592,31.8072655893616
2592.25,31.8140874469526
2592.5,31.8290830925754
2592.75,31.8440787381983
2593,31.8590743838211
2593.25,31.8740700294439
2593.5,31.8890656750667
2593.75,31.9040613206895
2594,31.9190569663123
2594.25,31.9340526119351
2594.5,31.9490482575579
2594.75,31.9640439031808
2595,31.9790395488036
2595.25,31.9940351944264
2595.5,32.0090308400492
2595.75,32.024026485672
2596,32.0390221312948
2596.25,32.0540177769176
2596.5,32.0690134225405
2596.75,32.0840090681633
2597,32.0990047137861
2597.25,32.1840021564534
2597.5,32.2739760301902
2597.75,32.3639499039272
2598,32.453923777664
2598.25,32.543897651401
2598.5,32.6338715251378
2598.75,32.7238453988748
2599,32.8138192726116
2599.25,32.9037931463484
2599.5,32.9937670200854
2599.75,33.0837408938222
2600,33.1737147675592
2600.25,33.263688641296
2600.5,33.3536625150328
2600.75,33.4436363887698
2601,33.5336102625066
2601.25,33.6235841362436
2601.5,33.7135580099804
2601.75,33.8035318837174
2602,33.8935057574542
2602.25,34.1875409518803
2602.5,34.4974509614188
2602.75,34.8073609709567
2603,35.1172709804952
2603.25,35.4271809900331
2603.5,35.7370909995711
2603.75,36.0470010091096
2604,36.3569110186475
2604.25,36.666821028186
2604.5,36.9767310377239
2604.75,37.2866410472624
2605,37.5965510568003
2605.25,37.9064610663382
2605.5,38.2163710758767
2605.75,38.5262810854147
2606,38.8361910949531
2606.25,39.1461011044911
2606.5,39.456011114029
2606.75,39.7659211235675
2607,40.0758311331054
2607.25,40.0032167097497
2607.5,39.89824719039
2607.75,39.7932776710304
2608,39.6883081516706
2608.25,39.583338632311
2608.5,39.4783691129512
2608.75,39.3733995935916
2609,39.2684300742317
2609.25,39.1634605548721
2609.5,39.0584910355125
2609.75,38.9535215161527
2610,38.8485519967931
2610.25,38.7435824774333
2610.5,38.6386129580736
2610.75,38.533643438714
2611,38.4286739193542
2611.25,38.3237043999946
2611.5,38.2187348806348
2611.75,38.1137653612752
2612,38.0087958419153
2612.25,37.8763481290002
2612.5,37.741387318395
2612.75,37.6064265077895
2613,37.4714656971843
2613.25,37.3365048865788
2613.5,37.2015440759736
2613.75,37.0665832653684
2614,36.9316224547629
2614.25,36.7966616441577
2614.5,36.6617008335522
2614.75,36.526740022947
2615,36.3917792123415
2615.25,36.2568184017363
2615.5,36.1218575911311
2615.75,35.9868967805256
2616,35.8519359699204
2616.25,35.7169751593149
2616.5,35.5820143487097
2616.75,35.4470535381044
2617,35.312092727499
2617.25,35.2226386143405
2617.5,35.1376632891445
2617.75,35.0526879639486
2618,34.9677126387525
2618.25,34.8827373135567
2618.5,34.7977619883608
2618.75,34.7127866631647
2619,34.6278113379689
2619.25,34.5428360127728
2619.5,34.4578606875769
2619.75,34.3728853623811
2620,34.287910037185
2620.25,34.2029347119891
2620.5,34.1179593867931
2620.75,34.0329840615972
2621,33.9480087364012
2621.25,33.8630334112053
2621.5,33.7780580860094
2621.75,33.6930827608134
2622,33.6081074356175
2622.25,33.6633029678882
2622.5,33.7332826474613
2622.75,33.8032623270344
2623,33.8732420066076
2623.25,33.9432216861807
2623.5,34.0132013657539
2623.75,34.0831810453269
2624,34.1531607249
2624.25,34.2231404044732
2624.5,34.2931200840463
2624.75,34.3630997636195
2625,34.4330794431926
2625.25,34.5030591227658
2625.5,34.5730388023389
2625.75,34.643018481912
2626,34.7129981614852
2626.25,34.7829778410583
2626.5,34.8529575206315
2626.75,34.9229372002045
2627,34.9929168797776
2627.25,35.0404335024398
2627.5,35.0854204393082
2627.75,35.1304073761767
2628,35.1753943130451
2628.25,35.2203812499136
2628.5,35.265368186782
2628.75,35.3103551236504
2629,35.3553420605189
2629.25,35.4003289973873
2629.5,35.4453159342558
2629.75,35.4903028711242
2630,35.5352898079926
2630.25,35.5802767448611
2630.5,35.6252636817295
2630.75,35.670250618598
2631,35.7152375554664
2631.25,35.7602244923349
2631.5,35.8052114292033
2631.75,35.8501983660717
2632,35.8951853029402
2632.25,35.8018011915789
2632.5,35.6918331236781
2632.75,35.5818650557776
2633,35.471896987877
2633.25,35.3619289199763
2633.5,35.2519608520757
2633.75,35.1419927841749
2634,35.0320247162744
2634.25,34.9220566483736
2634.5,34.8120885804731
2634.75,34.7021205125725
2635,34.5921524446718
2635.25,34.4821843767712
2635.5,34.3722163088705
2635.75,34.2622482409699
2636,34.1522801730694
2636.25,34.0423121051686
2636.5,33.9323440372681
2636.75,33.8223759693673
2637,33.7124079014667
2637.25,33.6778272349014
2637.5,33.6528344921967
2637.75,33.627841749492
2638,33.6028490067873
2638.25,33.5778562640826
2638.5,33.5528635213779
2638.75,33.5278707786732
2639,33.5028780359686
2639.25,33.4778852932639
2639.5,33.4528925505592
2639.75,33.4278998078545
2640,33.4029070651498
2640.25,33.3779143224451
2640.5,33.3529215797404
2640.75,33.3279288370357
2641,33.302936094331
2641.25,33.2779433516263
2641.5,33.2529506089216
2641.75,33.227957866217
2642,33.2029651235123
2642.25,33.2264331430309
2642.5,33.2564244342765
2642.75,33.2864157255222
2643,33.3164070167678
2643.25,33.3463983080134
2643.5,33.3763895992591
2643.75,33.4063808905047
2644,33.4363721817503
2644.25,33.4663634729959
2644.5,33.4963547642416
2644.75,33.5263460554872
2645,33.5563373467328
2645.25,33.5863286379785
2645.5,33.6163199292241
2645.75,33.6463112204697
2646,33.6763025117153
2646.25,33.7062938029609
2646.5,33.7362850942066
2646.75,33.7662763854522
2647,33.7962676766979
2647.25,33.8437649465724
2647.5,33.8937504319819
2647.75,33.9437359173912
2648,33.9937214028006
2648.25,34.04370688821
2648.5,34.0936923736193
2648.75,34.1436778590288
2649,34.1936633444381
2649.25,34.2436488298475
2649.5,34.2936343152569
2649.75,34.3436198006662
2650,34.3936052860757
2650.25,34.443590771485
2650.5,34.4935762568944
2650.75,34.5435617423038
2651,34.5935472277131
2651.25,34.6435327131226
2651.5,34.6935181985319
2651.75,34.7435036839413
2652,34.7934891693507
2652.25,34.795652534524
2652.5,34.790653985983
2652.75,34.7856554374421
2653,34.7806568889012
2653.25,34.7756583403602
2653.5,34.7706597918193
2653.75,34.7656612432784
2654,34.7606626947374
2654.25,34.7556641461965
2654.5,34.7506655976556
2654.75,34.7456670491146
2655,34.7406685005737
2655.25,34.7356699520327
2655.5,34.7306714034918
2655.75,34.7256728549509
2656,34.7206743064099
2656.25,34.715675757869
2656.5,34.7106772093281
2656.75,34.7056786607871
2657,34.7006801122462
2657.25,34.6654525096418
2657.5,34.6254641213144
2657.75,34.5854757329868
2658,34.5454873446593
2658.25,34.5054989563319
2658.5,34.4655105680043
2658.75,34.4255221796768
2659,34.3855337913493
2659.25,34.3455454030218
2659.5,34.3055570146944
2659.75,34.2655686263668
2660,34.2255802380393
2660.25,34.1855918497118
2660.5,34.1456034613843
2660.75,34.1056150730568
2661,34.0656266847293
2661.25,34.0256382964018
2661.5,33.9856499080743
2661.75,33.9456615197468
2662,33.9056731314192
2662.25,33.9128682213406
2662.5,33.9278638669634
2662.75,33.9428595125862
2663,33.957855158209
2663.25,33.9728508038319
2663.5,33.9878464494547
2663.75,34.0028420950775
2664,34.0178377407003
2664.25,34.0328333863231
2664.5,34.0478290319459
2664.75,34.0628246775687
2665,34.0778203231916
2665.25,34.0928159688144
2665.5,34.1078116144372
2665.75,34.12280726006
2666,34.1378029056828
2666.25,34.1527985513056
2666.5,34.1677941969284
2666.75,34.1827898425513
2667,34.1977854881741
2667.25,34.2340830234583
2667.5,34.2740714117858
2667.75,34.3140598001133
2668,34.3540481884409
2668.25,34.3940365767683
2668.5,34.4340249650958
2668.75,34.4740133534234
2669,34.5140017417508
2669.25,34.5539901300784
2669.5,34.5939785184059
2669.75,34.6339669067333
2670,34.6739552950609
2670.25,34.7139436833884
2670.5,34.7539320717159
2670.75,34.7939204600434
2671,34.8339088483709
2671.25,34.8738972366984
2671.5,34.9138856250259
2671.75,34.9538740133534
2672,34.9938624016809
2672.25,35.1015523700253
2672.5,35.2215175350077
2672.75,35.3414826999902
2673,35.4614478649728
2673.25,35.5814130299552
2673.5,35.7013781949379
2673.75,35.8213433599203
2674,35.9413085249029
2674.25,36.0612736898853
2674.5,36.1812388548678
2674.75,36.3012040198504
2675,36.4211691848328
2675.25,36.5411343498155
2675.5,36.6610995147979
2675.75,36.7810646797803
2676,36.901029844763
2676.25,37.0209950097454
2676.5,37.140960174728
2676.75,37.2609253397104
2677,37.3808905046931
2677.25,37.4336185565585
2677.5,37.473606944886
2677.75,37.5135953332135
2678,37.553583721541
2678.25,37.5935721098685
2678.5,37.633560498196
2678.75,37.6735488865235
2679,37.713537274851
2679.25,37.7535256631785
2679.5,37.7935140515061
2679.75,37.8335024398335
2680,37.8734908281611
2680.25,37.9134792164886
2680.5,37.953467604816
2680.75,37.9934559931436
2681,38.0334443814711
2681.25,38.0734327697986
2681.5,38.1134211581261
2681.75,38.1534095464536
2682,38.1933979347811
2682.25,38.1624403865029
2682.5,38.1174534496344
2682.75,38.072466512766
2683,38.0274795758976
2683.25,37.9824926390291
2683.5,37.9375057021606
2683.75,37.8925187652922
2684,37.8475318284238
2684.25,37.8025448915553
2684.5,37.7575579546869
2684.75,37.7125710178184
2685,37.66758408095
2685.25,37.6225971440815
2685.5,37.5776102072131
2685.75,37.5326232703446
2686,37.4876363334762
2686.25,37.4426493966077
2686.5,37.3976624597393
2686.75,37.3526755228708
2687,37.3076885860024
2687.25,37.1798164249872
2687.5,37.0348585173001
2687.75,36.889900609613
2688,36.7449427019256
2688.25,36.5999847942385
2688.5,36.4550268865512
2688.75,36.3100689788641
2689,36.165111071177
2689.25,36.0201531634896
2689.5,35.8751952558025
2689.75,35.7302373481152
2690,35.5852794404281
2690.25,35.4403215327407
2690.5,35.2953636250536
2690.75,35.1504057173665
2691,35.0054478096792
2691.25,34.8604899019921
2691.5,34.7155319943047
2691.75,34.5705740866176
2692,34.4256161789305
2692.25,34.3547324477129
2692.5,34.2997484137627
2692.75,34.2447643798123
2693,34.189780345862
2693.25,34.1347963119116
2693.5,34.0798122779613
2693.75,34.0248282440111
2694,33.9698442100607
2694.25,33.9148601761104
2694.5,33.85987614216
2694.75,33.8048921082098
2695,33.7499080742595
2695.25,33.6949240403091
2695.5,33.6399400063588
2695.75,33.5849559724085
2696,33.5299719384582
2696.25,33.4749879045078
2696.5,33.4200038705575
2696.75,33.3650198366072
2697,33.3100358026569
2697.25,33.2468793630169
2697.5,33.1818982319846
2697.75,33.1169171009525
2698,33.0519359699203
2698.25,32.9869548388881
2698.5,32.9219737078559
2698.75,32.8569925768237
2699,32.7920114457915
2699.25,32.7270303147594
2699.5,32.6620491837271
2699.75,32.597068052695
2700,32.5320869216627
2700.25,32.4671057906305
2700.5,32.4021246595983
2700.75,32.3371435285661
2701,32.272162397534
2701.25,32.2071812665017
2701.5,32.1422001354696
2701.75,32.0772190044373
2702,32.0122378734052
2702.25,32.0446289102998
2702.5,32.0996129442501
2702.75,32.1545969782004
2703,32.2095810121508
2703.25,32.2645650461011
2703.5,32.3195490800514
2703.75,32.3745331140017
2704,32.429517147952
2704.25,32.4845011819024
2704.5,32.5394852158527
2704.75,32.594469249803
2705,32.6494532837533
2705.25,32.7044373177036
2705.5,32.759421351654
2705.75,32.8144053856042
2706,32.8693894195546
2706.25,32.9243734535049
2706.5,32.9793574874553
2706.75,33.0343415214055
2707,33.0893255553558
2707.25,33.1080562889648
2707.5,33.1180533860466
2707.75,33.1280504831285
2708,33.1380475802104
2708.25,33.1480446772923
2708.5,33.1580417743741
2708.75,33.168038871456
2709,33.1780359685379
2709.25,33.1880330656198
2709.5,33.1980301627016
2709.75,33.2080272597835
2710,33.2180243568654
2710.25,33.2280214539473
2710.5,33.2380185510291
2710.75,33.248015648111
2711,33.2580127451929
2711.25,33.2680098422748
2711.5,33.2780069393567
2711.75,33.2880040364385
2712,33.2980011335204
2712.25,33.2800044234943
2712.5,33.2550116807896
2712.75,33.2300189380849
2713,33.2050261953802
2713.25,33.1800334526755
2713.5,33.1550407099708
2713.75,33.1300479672661
2714,33.1050552245615
2714.25,33.0800624818568
2714.5,33.0550697391521
2714.75,33.0300769964474
2715,33.0050842537427
2715.25,32.980091511038
2715.5,32.9550987683333
2715.75,32.9301060256286
2716,32.905113282924
2716.25,32.8801205402192
2716.5,32.8551277975146
2716.75,32.8301350548099
2717,32.8051423121052
2717.25,32.879401722398
2717.5,32.9793726932168
2717.75,33.0793436640355
2718,33.1793146348544
2718.25,33.2792856056731
2718.5,33.3792565764917
2718.75,33.4792275473106
2719,33.5791985181293
2719.25,33.6791694889482
2719.5,33.7791404597669
2719.75,33.8791114305857
2720,33.9790824014044
2720.25,34.0790533722231
2720.5,34.179024343042
2720.75,34.2789953138606
2721,34.3789662846795
2721.25,34.4789372554982
2721.5,34.5789082263169
2721.75,34.6788791971358
2722,34.7788501679544
2722.25,34.8985264234666
2722.5,35.02349013699
2722.75,35.1484538505136
2723,35.2734175640369
2723.25,35.3983812775603
2723.5,35.5233449910839
2723.75,35.6483087046072
2724,35.7732724181308
2724.25,35.8982361316542
2724.5,36.0231998451775
2724.75,36.1481635587011
2725,36.2731272722245
2725.25,36.3980909857481
2725.5,36.5230546992714
2725.75,36.648018412795
2726,36.7729821263184
2726.25,36.8979458398417
2726.5,37.0229095533653
2726.75,37.1478732668887
2727,37.2728369804122
2727.25,37.2765278334555
2727.5,37.2465365422098
2727.75,37.2165452509642
2728,37.1865539597186
2728.25,37.1565626684729
2728.5,37.1265713772273
2728.75,37.0965800859817
2729,37.0665887947361
2729.25,37.0365975034904
2729.5,37.0066062122448
2729.75,36.9766149209992
2730,36.9466236297535
2730.25,36.9166323385079
2730.5,36.8866410472623
2730.75,36.8566497560167
2731,36.826658464771
2731.25,36.7966671735254
2731.5,36.7666758822798
2731.75,36.7366845910342
2732,36.7066932997885
2732.25,36.5679780484098
2732.5,36.3980273980177
2732.75,36.228076747626
2733,36.0581260972339
2733.25,35.8881754468421
2733.5,35.7182247964504
2733.75,35.5482741460583
2734,35.3783234956665
2734.25,35.2083728452744
2734.5,35.0384221948827
2734.75,34.8684715444909
2735,34.6985208940988
2735.25,34.5285702437071
2735.5,34.358619593315
2735.75,34.1886689429232
2736,34.0187182925312
2736.25,33.8487676421394
2736.5,33.6788169917476
2736.75,33.5088663413555
2737,33.3389156909638
2737.25,33.2807301530252
2737.5,33.2557374103206
2737.75,33.2307446676159
2738,33.2057519249112
2738.25,33.1807591822065
2738.5,33.1557664395018
2738.75,33.1307736967971
2739,33.1057809540924
2739.25,33.0807882113877
2739.5,33.0557954686831
2739.75,33.0308027259784
2740,33.0058099832737
2740.25,32.980817240569
2740.5,32.9558244978643
2740.75,32.9308317551596
2741,32.9058390124549
2741.25,32.8808462697502
2741.5,32.8558535270455
2741.75,32.8308607843408
2742,32.8058680416361
2742.25,32.8229496412822
2742.5,32.8529409325279
2742.75,32.8829322237735
2743,32.9129235150191
2743.25,32.9429148062648
2743.5,32.9729060975104
2743.75,33.002897388756
2744,33.0328886800016
2744.25,33.0628799712473
2744.5,33.0928712624929
2744.75,33.1228625537385
2745,33.1528538449841
2745.25,33.1828451362298
2745.5,33.2128364274754
2745.75,33.2428277187211
2746,33.2728190099667
2746.25,33.3028103012123
2746.5,33.3328015924579
2746.75,33.3627928837035
2747,33.3927841749492
2747.25,33.4303672882597
2747.5,33.4703556765873
2747.75,33.5103440649148
2748,33.5503324532422
2748.25,33.5903208415698
2748.5,33.6303092298973
2748.75,33.6702976182248
2749,33.7102860065523
2749.25,33.7502743948798
2749.5,33.7902627832073
2749.75,33.8302511715348
2750,33.8702395598623
2750.25,33.9102279481898
2750.5,33.9502163365173
2750.75,33.9902047248448
2751,34.0301931131723
2751.25,34.0701815014998
2751.5,34.1101698898273
2751.75,34.1501582781549
2752,34.1901466664823
2752.25,34.1773987088926
2752.5,34.147407417647
2752.75,34.1174161264014
2753,34.0874248351557
2753.25,34.0574335439101
2753.5,34.0274422526645
2753.75,33.9974509614189
2754,33.9674596701732
2754.25,33.9374683789276
2754.5,33.907477087682
2754.75,33.8774857964363
2755,33.8474945051907
2755.25,33.8175032139451
2755.5,33.7875119226995
2755.75,33.7575206314538
2756,33.7275293402082
2756.25,33.6975380489626
2756.5,33.6675467577169
2756.75,33.6375554664713
2757,33.6075641752257
2757.25,33.60373785267
2757.5,33.6087364012109
2757.75,33.6137349497519
2758,33.6187334982928
2758.25,33.6237320468337
2758.5,33.6287305953747
2758.75,33.6337291439156
2759,33.6387276924566
2759.25,33.6437262409975
2759.5,33.6487247895384
2759.75,33.6537233380794
2760,33.6587218866203
2760.25,33.6637204351613
2760.5,33.6687189837022
2760.75,33.6737175322431
2761,33.6787160807841
2761.25,33.683714629325
2761.5,33.6887131778659
2761.75,33.6937117264069
2762,33.6987102749478
2762.25,33.7111264704663
2762.5,33.7261221160891
2762.75,33.7411177617119
2763,33.7561134073347
2763.25,33.7711090529575
2763.5,33.7861046985803
2763.75,33.8011003442031
2764,33.816095989826
2764.25,33.8310916354488
2764.5,33.8460872810716
2764.75,33.8610829266944
2765,33.8760785723172
2765.25,33.89107421794
2765.5,33.9060698635629
2765.75,33.9210655091857
2766,33.9360611548085
2766.25,33.9510568004313
2766.5,33.9660524460541
2766.75,33.9810480916769
2767,33.9960437372997
2767.25,33.9889606170775
2767.5,33.9739649714546
2767.75,33.9589693258318
2768,33.943973680209
2768.25,33.9289780345862
2768.5,33.9139823889634
2768.75,33.8989867433406
2769,33.8839910977178
2769.25,33.8689954520949
2769.5,33.8539998064721
2769.75,33.8390041608493
2770,33.8240085152265
2770.25,33.8090128696037
2770.5,33.7940172239809
2770.75,33.7790215783581
2771,33.7640259327352
2771.25,33.7490302871124
2771.5,33.7340346414896
2771.75,33.7190389958668
2772,33.704043350244
2772.25,33.7438091815153
2772.5,33.8037917640065
2772.75,33.8637743464978
2773,33.9237569289891
2773.25,33.9837395114803
2773.5,34.0437220939716
2773.75,34.1037046764628
2774,34.1636872589541
2774.25,34.2236698414453
2774.5,34.2836524239365
2774.75,34.3436350064279
2775,34.4036175889191
2775.25,34.4636001714104
2775.5,34.5235827539016
2775.75,34.5835653363929
2776,34.6435479188841
2776.25,34.7035305013754
2776.5,34.7635130838667
2776.75,34.8234956663579
2777,34.8834782488492
2777.25,34.9217304156702
2777.5,34.9517217069158
2777.75,34.9817129981615
2778,35.0117042894071
2778.25,35.0416955806527
2778.5,35.0716868718983
2778.75,35.101678163144
2779,35.1316694543896
2779.25,35.1616607456352
2779.5,35.1916520368809
2779.75,35.2216433281265
2780,35.2516346193721
2780.25,35.2816259106177
2780.5,35.3116172018634
2780.75,35.341608493109
2781,35.3715997843546
2781.25,35.4015910756003
2781.5,35.4315823668459
2781.75,35.4615736580915
2782,35.4915649493372
2782.25,35.5215562405828
2782.5,35.5515475318284
2782.75,35.581538823074
2783,35.6115301143197
2783.25,35.6415214055653
2783.5,35.6715126968109
2783.75,35.7015039880566
2784,35.7314952793022
2784.25,35.7614865705478
2784.5,35.7914778617934
2784.75,35.8214691530391
2785,35.8514604442847
2785.25,35.8814517355303
2785.5,35.911443026776
2785.75,35.9414343180216
2786,35.9714256092672
2786.25,36.0014169005128
2786.5,36.0314081917584
2786.75,36.0613994830041
2787,36.0913907742497
2787.25,36.0215990931837
2787.5,35.9116310252831
2787.75,35.8016629573826
2788,35.6916948894818
2788.25,35.5817268215812
2788.5,35.4717587536805
2788.75,35.3617906857799
2789,35.2518226178792
2789.25,35.1418545499786
2789.5,35.0318864820781
2789.75,34.9219184141773
2790,34.8119503462768
2790.25,34.701982278376
2790.5,34.5920142104755
2790.75,34.4820461425749
2791,34.3720780746742
2791.25,34.2621100067736
2791.5,34.1521419388728
2791.75,34.0421738709723
2792,33.9322058030715
2792.25,33.8540495707829
2792.5,33.7890684397507
2792.75,33.7240873087184
2793,33.6591061776863
2793.25,33.594125046654
2793.5,33.5291439156219
2793.75,33.4641627845897
2794,33.3991816535575
2794.25,33.3342005225253
2794.5,33.2692193914931
2794.75,33.2042382604609
2795,33.1392571294287
2795.25,33.0742759983965
2795.5,33.0092948673644
2795.75,32.9443137363321
2796,32.8793326053
2796.25,32.8143514742677
2796.5,32.7493703432356
2796.75,32.6843892122034
2797,32.6194080811711
2797.25,32.5684494270193
2797.5,32.5234624901508
2797.75,32.4784755532824
2798,32.4334886164139
2798.25,32.3885016795455
2798.5,32.3435147426771
2798.75,32.2985278058086
2799,32.2535408689402
2799.25,32.2085539320717
2799.5,32.1635669952033
2799.75,32.1185800583349
2800,32.0735931214664
2800.25,32.028606184598
2800.5,31.9836192477295
2800.75,31.9386323108611
2801,31.8936453739926
2801.25,31.8486584371242
2801.5,31.8036715002558
2801.75,31.7586845633873
2802,31.7136976265189
2802.25,31.7973445210877
2802.5,31.9373038802338
2802.75,32.07726323938
2803,32.2172225985264
2803.25,32.3571819576725
2803.5,32.497141316819
2803.75,32.6371006759651
2804,32.7770600351113
2804.25,32.9170193942577
2804.5,33.0569787534039
2804.75,33.1969381125503
2805,33.3368974716964
2805.25,33.4768568308428
2805.5,33.616816189989
2805.75,33.7567755491352
2806,33.8967349082816
2806.25,34.0366942674277
2806.5,34.1766536265742
2806.75,34.3166129857203
2807,34.4565723448665
2807.25,34.5103426825728
2807.5,34.5253383281956
2807.75,34.5403339738184
2808,34.5553296194412
2808.25,34.5703252650641
2808.5,34.5853209106869
2808.75,34.6003165563097
2809,34.6153122019325
2809.25,34.6303078475553
2809.5,34.6453034931781
2809.75,34.6602991388009
2810,34.6752947844237
2810.25,34.6902904300466
2810.5,34.7052860756694
2810.75,34.7202817212922
2811,34.735277366915
2811.25,34.7502730125378
2811.5,34.7652686581606
2811.75,34.7802643037834
2812,34.7952599494063
2812.25,34.8820447602327
2812.5,35.0020099252153
2812.75,35.1219750901977
2813,35.2419402551802
2813.25,35.3619054201628
2813.5,35.4818705851452
2813.75,35.6018357501279
2814,35.7218009151103
2814.25,35.8417660800929
2814.5,35.9617312450754
2814.75,36.0816964100578
2815,36.2016615750404
2815.25,36.3216267400228
2815.5,36.4415919050055
2815.75,36.5615570699879
2816,36.6815222349703
2816.25,36.801487399953
2816.5,36.9214525649354
2816.75,37.041417729918
2817,37.1613828949005
2817.25,37.1898314925146
2817.5,37.1748358468918
2817.75,37.159840201269
2818,37.1448445556462
2818.25,37.1298489100234
2818.5,37.1148532644005
2818.75,37.0998576187777
2819,37.0848619731549
2819.25,37.0698663275321
2819.5,37.0548706819093
2819.75,37.0398750362865
2820,37.0248793906637
2820.25,37.0098837450409
2820.5,36.994888099418
2820.75,36.9798924537952
2821,36.9648968081724
2821.25,36.9499011625496
2821.5,36.9349055169268
2821.75,36.919909871304
2822,36.9049142256812
2822.25,36.8831976334306
2822.5,36.8582048907259
2822.75,36.8332121480212
2823,36.8082194053165
2823.25,36.7832266626118
2823.5,36.7582339199071
2823.75,36.7332411772024
2824,36.7082484344977
2824.25,36.6832556917931
2824.5,36.6582629490883
2824.75,36.6332702063837
2825,36.608277463679
2825.25,36.5832847209743
2825.5,36.5582919782696
2825.75,36.5332992355649
2826,36.5083064928602
2826.25,36.4833137501555
2826.5,36.4583210074508
2826.75,36.4333282647462
2827,36.4083355220414
2827.25,36.3700170028062
2827.5,36.3250300659377
2827.75,36.2800431290693
2828,36.2350561922009
2828.25,36.1900692553324
2828.5,36.145082318464
2828.75,36.1000953815955
2829,36.0551084447271
2829.25,36.0101215078587
2829.5,35.9651345709902
2829.75,35.9201476341218
2830,35.8751606972533
2830.25,35.8301737603849
2830.5,35.7851868235164
2830.75,35.740199886648
2831,35.6952129497796
2831.25,35.6502260129111
2831.5,35.6052390760427
2831.75,35.5602521391742
2832,35.5152652023058
2832.25,35.4504637757289
2832.5,35.3754855476148
2832.75,35.3005073195008
2833,35.2255290913866
2833.25,35.1505508632726
2833.5,35.0755726351586
2833.75,35.0005944070444
2834,34.9256161789304
2834.25,34.8506379508163
2834.5,34.7756597227023
2834.75,34.7006814945881
2835,34.6257032664741
2835.25,34.5507250383601
2835.5,34.4757468102459
2835.75,34.4007685821319
2836,34.3257903540178
2836.25,34.2508121259038
2836.5,34.1758338977897
2836.75,34.1008556696756
2837,34.0258774415616
2837.25,34.019640314621
2837.5,34.0496316058666
2837.75,34.0796228971123
2838,34.1096141883579
2838.25,34.1396054796035
2838.5,34.1695967708492
2838.75,34.1995880620948
2839,34.2295793533404
2839.25,34.259570644586
2839.5,34.2895619358316
2839.75,34.3195532270773
2840,34.3495445183229
2840.25,34.3795358095686
2840.5,34.4095271008142
2840.75,34.4395183920598
2841,34.4695096833054
2841.25,34.499500974551
2841.5,34.5294922657967
2841.75,34.5594835570423
2842,34.589474848288
2842.25,34.6064887131779
2842.5,34.6164858102597
2842.75,34.6264829073416
2843,34.6364800044235
2843.25,34.6464771015054
2843.5,34.6564741985872
2843.75,34.6664712956691
2844,34.676468392751
2844.25,34.6864654898329
2844.5,34.6964625869147
2844.75,34.7064596839966
2845,34.7164567810785
2845.25,34.7264538781604
2845.5,34.7364509752422
2845.75,34.7464480723241
2846,34.756445169406
2846.25,34.7664422664879
2846.5,34.7764393635698
2846.75,34.7864364606516
2847,34.7964335577335
2847.25,34.8160766370384
2847.5,34.8410693797432
2847.75,34.8660621224478
2848,34.8910548651525
2848.25,34.9160476078572
2848.5,34.9410403505619
2848.75,34.9660330932666
2849,34.9910258359713
2849.25,35.016018578676
2849.5,35.0410113213807
2849.75,35.0660040640853
2850,35.0909968067901
2850.25,35.1159895494947
2850.5,35.1409822921994
2850.75,35.1659750349041
2851,35.1909677776088
2851.25,35.2159605203135
2851.5,35.2409532630182
2851.75,35.2659460057229
2852,35.2909387484276
2852.25,35.2936274035471
2852.5,35.2836303064652
2852.75,35.2736332093833
2853,35.2636361123015
2853.25,35.2536390152196
2853.5,35.2436419181377
2853.75,35.2336448210558
2854,35.223647723974
2854.25,35.2136506268921
2854.5,35.2036535298102
2854.75,35.1936564327283
2855,35.1836593356465
2855.25,35.1736622385646
2855.5,35.1636651414827
2855.75,35.1536680444008
2856,35.143670947319
2856.25,35.1336738502371
2856.5,35.1236767531552
2856.75,35.1136796560733
2857,35.1036825589914
2857.25,35.0494836952766
2857.5,34.9695069186216
2857.75,34.8895301419665
2858,34.8095533653116
2858.25,34.7295765886565
2858.5,34.6495998120015
2858.75,34.5696230353466
2859,34.4896462586915
2859.25,34.4096694820366
2859.5,34.3296927053815
2859.75,34.2497159287265
2860,34.1697391520714
2860.25,34.0897623754165
2860.5,34.0097855987615
2860.75,33.9298088221064
2861,33.8498320454515
2861.25,33.7698552687964
2861.5,33.6898784921414
2861.75,33.6099017154865
2862,33.5299249388314
2862.25,33.5062564797279
2862.5,33.5162535768098
2862.75,33.5262506738917
2863,33.5362477709736
2863.25,33.5462448680555
2863.5,33.5562419651373
2863.75,33.5662390622192
2864,33.5762361593011
2864.25,33.586233256383
2864.5,33.5962303534648
2864.75,33.6062274505467
2865,33.6162245476286
2865.25,33.6262216447105
2865.5,33.6362187417923
2865.75,33.6462158388742
2866,33.6562129359561
2866.25,33.666210033038
2866.5,33.6762071301198
2866.75,33.6862042272017
2867,33.6962013242836
2867.25,33.6907023679518
2867.5,33.675706722329
2867.75,33.6607110767062
2868,33.6457154310833
2868.25,33.6307197854605
2868.5,33.6157241398377
2868.75,33.6007284942149
2869,33.5857328485921
2869.25,33.5707372029693
2869.5,33.5557415573465
2869.75,33.5407459117236
2870,33.5257502661008
2870.25,33.510754620478
2870.5,33.4957589748552
2870.75,33.4807633292324
2871,33.4657676836096
2871.25,33.4507720379868
2871.5,33.4357763923639
2871.75,33.4207807467411
2872,33.4057851011183
2872.25,33.4276316335135
2872.5,33.4726185703819
2872.75,33.5176055072504
2873,33.5625924441188
2873.25,33.6075793809873
2873.5,33.6525663178557
2873.75,33.6975532547241
2874,33.7425401915926
2874.25,33.787527128461
2874.5,33.8325140653295
2874.75,33.8775010021979
2875,33.9224879390663
2875.25,33.9674748759348
2875.5,34.0124618128032
2875.75,34.0574487496717
2876,34.1024356865401
2876.25,34.1474226234086
2876.5,34.192409560277
2876.75,34.2373964971454
2877,34.2823834340139
2877.25,34.2908765430392
2877.5,34.2758808974164
2877.75,34.2608852517936
2878,34.2458896061708
2878.25,34.230893960548
2878.5,34.2158983149252
2878.75,34.2009026693023
2879,34.1859070236795
2879.25,34.1709113780567
2879.5,34.1559157324339
2879.75,34.1409200868111
2880,34.1259244411883
2880.25,34.1109287955655
2880.5,34.0959331499426
2880.75,34.0809375043198
2881,34.065941858697
2881.25,34.0509462130742
2881.5,34.0359505674514
2881.75,34.0209549218286
2882,34.0059592762058
2882.25,34.0120484925561
2882.5,34.0320426867198
2882.75,34.0520368808836
2883,34.0720310750473
2883.25,34.0920252692111
2883.5,34.1120194633749
2883.75,34.1320136575386
2884,34.1520078517023
2884.25,34.1720020458661
2884.5,34.1919962400298
2884.75,34.2119904341936
2885,34.2319846283573
2885.25,34.2519788225211
2885.5,34.2719730166849
2885.75,34.2919672108486
2886,34.3119614050124
2886.25,34.3319555991761
2886.5,34.3519497933399
2886.75,34.3719439875036
2887,34.3919381816674
2887.25,34.3880676241689
2887.5,34.3680734300051
2887.75,34.3480792358414
2888,34.3280850416776
2888.25,34.3080908475139
2888.5,34.2880966533501
2888.75,34.2681024591864
2889,34.2481082650226
2889.25,34.2281140708589
2889.5,34.2081198766951
2889.75,34.1881256825314
2890,34.1681314883676
2890.25,34.1481372942038
2890.5,34.1281431000401
2890.75,34.1081489058763
2891,34.0881547117126
2891.25,34.0681605175489
2891.5,34.0481663233851
2891.75,34.0281721292213
2892,34.0081779350576
2892.25,34.0620353603074
2892.5,34.1670048796672
2892.75,34.2719743990268
2893,34.3769439183864
2893.25,34.4819134377462
2893.5,34.5868829571058
2893.75,34.6918524764656
2894,34.7968219958253
2894.25,34.9017915151849
2894.5,35.0067610345447
2894.75,35.1117305539043
2895,35.2167000732641
2895.25,35.3216695926237
2895.5,35.4266391119834
2895.75,35.5316086313432
2896,35.6365781507028
2896.25,35.7415476700626
2896.5,35.8465171894222
2896.75,35.951486708782
2897,36.0564562281417
2897.25,36.1643507830966
2897.5,36.2743188509973
2897.75,36.3842869188979
2898,36.4942549867986
2898.25,36.6042230546992
2898.5,36.7141911225998
2898.75,36.8241591905005
2899,36.9341272584011
2899.25,37.0440953263018
2899.5,37.1540633942024
2899.75,37.2640314621031
2900,37.3739995300037
2900.25,37.4839675979042
2900.5,37.593935665805
2900.75,37.7039037337055
2901,37.8138718016063
2901.25,37.9238398695068
2901.5,38.0338079374074
2901.75,38.1437760053082
2902,38.2537440732087
2902.25,38.3579201282813
2902.5,38.4578910991
2902.75,38.5578620699189
2903,38.6578330407376
2903.25,38.7578040115563
2903.5,38.8577749823751
2903.75,38.9577459531938
2904,39.0577169240127
2904.25,39.1576878948314
2904.5,39.25765886565
2904.75,39.3576298364689
2905,39.4576008072876
2905.25,39.5575717781065
2905.5,39.6575427489252
2905.75,39.757513719744
2906,39.8574846905627
2906.25,39.9574556613814
2906.5,40.0574266322003
2906.75,40.1573976030189
2907,40.2573685738378
2907.25,40.2569953415076
2907.5,40.1820171133936
2907.75,40.1070388852795
2908,40.0320606571654
2908.25,39.9570824290513
2908.5,39.8821042009373
2908.75,39.8071259728233
2909,39.7321477447091
2909.25,39.6571695165951
2909.5,39.5821912884809
2909.75,39.5072130603669
2910,39.4322348322528
2910.25,39.3572566041388
2910.5,39.2822783760248
2910.75,39.2073001479106
2911,39.1323219197966
2911.25,39.0573436916824
2911.5,38.9823654635684
2911.75,38.9073872354544
2912,38.8324090073403
2912.25,38.731889246762
2912.5,38.6119240817794
2912.75,38.4919589167969
2913,38.3719937518143
2913.25,38.2520285868319
2913.5,38.1320634218495
2913.75,38.0120982568668
2914,37.8921330918844
2914.25,37.7721679269017
2914.5,37.6522027619193
2914.75,37.5322375969369
2915,37.4122724319543
2915.25,37.2923072669718
2915.5,37.1723421019892
2915.75,37.0523769370068
2916,36.9324117720241
2916.25,36.8124466070417
2916.5,36.6924814420593
2916.75,36.5725162770766
2917,36.4525511120942
2917.25,36.3831464867779
2917.5,36.3531551955323
2917.75,36.3231639042867
2918,36.293172613041
2918.25,36.2631813217954
2918.5,36.2331900305498
2918.75,36.2031987393041
2919,36.1732074480585
2919.25,36.1432161568129
2919.5,36.1132248655673
2919.75,36.0832335743216
2920,36.053242283076
2920.25,36.0232509918304
2920.5,35.9932597005847
2920.75,35.9632684093391
2921,35.9332771180935
2921.25,35.9032858268479
2921.5,35.8732945356022
2921.75,35.8433032443566
2922,35.8133119531109
2922.25,35.7555217649743
2922.5,35.6755449883193
2922.75,35.5955682116642
2923,35.5155914350093
2923.25,35.4356146583542
2923.5,35.3556378816992
2923.75,35.2756611050443
2924,35.1956843283892
2924.25,35.1157075517342
2924.5,35.0357307750791
2924.75,34.9557539984242
2925,34.8757772217692
2925.25,34.7958004451141
2925.5,34.7158236684592
2925.75,34.6358468918041
2926,34.5558701151492
2926.25,34.4758933384941
2926.5,34.3959165618391
2926.75,34.3159397851842
2927,34.2359630085291
2927.25,34.2027508605079
2927.5,34.2077494090488
2927.75,34.2127479575897
2928,34.2177465061307
2928.25,34.2227450546716
2928.5,34.2277436032126
2928.75,34.2327421517535
2929,34.2377407002944
2929.25,34.2427392488354
2929.5,34.2477377973763
2929.75,34.2527363459172
2930,34.2577348944582
2930.25,34.2627334429991
2930.5,34.2677319915401
2930.75,34.272730540081
2931,34.2777290886219
2931.25,34.2827276371629
2931.5,34.2877261857038
2931.75,34.2927247342448
2932,34.2977232827857
2932.25,34.3408274698995
2932.5,34.4158056980135
2932.75,34.4907839261275
2933,34.5657621542417
2933.25,34.6407403823557
2933.5,34.7157186104699
2933.75,34.7906968385839
2934,34.8656750666979
2934.25,34.940653294812
2934.5,35.0156315229261
2934.75,35.0906097510402
2935,35.1655879791542
2935.25,35.2405662072684
2935.5,35.3155444353824
2935.75,35.3905226634964
2936,35.4655008916106
2936.25,35.5404791197246
2936.5,35.6154573478387
2936.75,35.6904355759527
2937,35.7654138040667
2937.25,35.7730719785461
2937.5,35.7230864931367
2937.75,35.6731010077273
2938,35.6231155223179
2938.25,35.5731300369086
2938.5,35.5231445514992
2938.75,35.4731590660898
2939,35.4231735806804
2939.25,35.373188095271
2939.5,35.3232026098616
2939.75,35.2732171244523
2940,35.2232316390429
2940.25,35.1732461536335
2940.5,35.1232606682242
2940.75,35.0732751828147
2941,35.0232896974054
2941.25,34.973304211996
2941.5,34.9233187265866
2941.75,34.8733332411773
2942,34.8233477557678
2942.25,34.7946724540717
2942.5,34.7846753569898
2942.75,34.7746782599079
2943,34.7646811628261
2943.25,34.7546840657442
2943.5,34.7446869686623
2943.75,34.7346898715804
2944,34.7246927744986
2944.25,34.7146956774167
2944.5,34.7046985803348
2944.75,34.6947014832529
2945,34.684704386171
2945.25,34.6747072890892
2945.5,34.6647101920073
2945.75,34.6547130949254
2946,34.6447159978436
2946.25,34.6347189007617
2946.5,34.6247218036798
2946.75,34.6147247065979
2947,34.604727609516
2947.25,34.5578440994734
2947.5,34.4778673228183
2947.75,34.3978905461634
2948,34.3179137695083
2948.25,34.2379369928534
2948.5,34.1579602161983
2948.75,34.0779834395433
2949,33.9980066628884
2949.25,33.9180298862333
2949.5,33.8380531095783
2949.75,33.7580763329232
2950,33.6780995562683
2950.25,33.5981227796133
2950.5,33.5181460029582
2950.75,33.4381692263033
2951,33.3581924496482
2951.25,33.2782156729932
2951.5,33.1982388963382
2951.75,33.1182621196832
2952,33.0382853430283
2952.25,33.0364800044235
2952.5,33.1064596839966
2952.75,33.1764393635698
2953,33.2464190431429
2953.25,33.3163987227159
2953.5,33.3863784022891
2953.75,33.4563580818622
2954,33.5263377614354
2954.25,33.5963174410085
2954.5,33.6662971205816
2954.75,33.7362768001548
2955,33.8062564797279
2955.25,33.8762361593011
2955.5,33.9462158388742
2955.75,34.0161955184474
2956,34.0861751980204
2956.25,34.1561548775935
2956.5,34.2261345571667
2956.75,34.2961142367398
2957,34.366093916313
2957.25,34.4618404500905
2957.5,34.5818056150729
2957.75,34.7017707800555
2958,34.8217359450379
2958.25,34.9417011100206
2958.5,35.061666275003
2958.75,35.1816314399857
2959,35.3015966049681
2959.25,35.4215617699505
2959.5,35.5415269349331
2959.75,35.6614920999156
2960,35.7814572648982
2960.25,35.9014224298806
2960.5,36.021387594863
2960.75,36.1413527598457
2961,36.2613179248281
2961.25,36.3812830898107
2961.5,36.5012482547932
2961.75,36.6212134197758
2962,36.7411785847582
2962.25,36.8305718748703
2962.5,36.8905544573616
2962.75,36.9505370398529
2963,37.0105196223442
2963.25,37.0705022048354
2963.5,37.1304847873266
2963.75,37.1904673698179
2964,37.2504499523091
2964.25,37.3104325348005
2964.5,37.3704151172917
2964.75,37.430397699783
2965,37.4903802822742
2965.25,37.5503628647654
2965.5,37.6103454472567
2965.75,37.6703280297479
2966,37.7303106122393
2966.25,37.7902931947305
2966.5,37.8502757772217
2966.75,37.910258359713
2967,37.9702409422042
2967.25,37.9622205941306
2967.5,37.8872423660166
2967.75,37.8122641379024
2968,37.7372859097884
2968.25,37.6623076816744
2968.5,37.5873294535602
2968.75,37.5123512254462
2969,37.4373729973321
2969.25,37.3623947692181
2969.5,37.287416541104
2969.75,37.2124383129899
2970,37.1374600848759
2970.25,37.0624818567617
2970.5,36.9875036286477
2970.75,36.9125254005337
2971,36.8375471724195
2971.25,36.7625689443055
2971.5,36.6875907161914
2971.75,36.6126124880774
2972,36.5376342599632
2972.25,36.5149375872603
2972.5,36.5449288785059
2972.75,36.5749201697516
2973,36.6049114609972
2973.25,36.6349027522429
2973.5,36.6648940434885
2973.75,36.6948853347341
2974,36.7248766259797
2974.25,36.7548679172253
2974.5,36.784859208471
2974.75,36.8148504997166
2975,36.8448417909623
2975.25,36.8748330822079
2975.5,36.9048243734535
2975.75,36.9348156646991
2976,36.9648069559447
2976.25,36.9947982471904
2976.5,37.024789538436
2976.75,37.0547808296816
2977,37.0847721209273
2977.25,37.1295268243457
2977.5,37.1895094068371
2977.75,37.2494919893283
2978,37.3094745718196
2978.25,37.3694571543108
2978.5,37.429439736802
2978.75,37.4894223192933
2979,37.5494049017845
2979.25,37.6093874842759
2979.5,37.6693700667671
2979.75,37.7293526492583
2980,37.7893352317496
2980.25,37.8493178142408
2980.5,37.9093003967321
2980.75,37.9692829792234
2981,38.0292655617147
2981.25,38.0892481442059
2981.5,38.1492307266971
2981.75,38.2092133091884
2982,38.2691958916796
2982.25,38.3729461854274
2982.5,38.5229026416554
2982.75,38.6728590978834
2983,38.8228155541117
2983.25,38.9727720103398
2983.5,39.1227284665681
2983.75,39.2726849227961
2984,39.4226413790241
2984.25,39.5725978352524
2984.5,39.7225542914804
2984.75,39.8725107477087
2985,40.0224672039368
2985.25,40.1724236601651
2985.5,40.3223801163931
2985.75,40.4723365726211
2986,40.6222930288494
2986.25,40.7722494850775
2986.5,40.9222059413058
2986.75,41.0721623975338
2987,41.2221188537618
2987.25,41.1750694626838
2987.5,40.9151449385552
2987.75,40.6552204144261
2988,40.3952958902976
2988.25,40.1353713661685
2988.5,39.8754468420399
2988.75,39.6155223179113
2989,39.3555977937823
2989.25,39.0956732696537
2989.5,38.8357487455247
2989.75,38.5758242213961
2990,38.3158996972675
2990.25,38.0559751731384
2990.5,37.7960506490099
2990.75,37.5361261248808
2991,37.2762016007522
2991.25,37.0162770766232
2991.5,36.7563525524946
2991.75,36.496428028366
2992,36.2365035042369
2992.25,36.0762651884824
2992.5,36.0262797030729
2992.75,35.9762942176636
2993,35.9263087322543
2993.25,35.8763232468448
2993.5,35.8263377614355
2993.75,35.776352276026
2994,35.7263667906167
2994.25,35.6763813052073
2994.5,35.6263958197979
2994.75,35.5764103343886
2995,35.5264248489792
2995.25,35.4764393635698
2995.5,35.4264538781604
2995.75,35.376468392751
2996,35.3264829073417
2996.25,35.2764974219323
2996.5,35.2265119365229
2996.75,35.1765264511135
2997,35.1265409657041
2997.25,35.0742110283242
2997.5,35.0192269943739
2997.75,34.9642429604236
2998,34.9092589264732
2998.25,34.854274892523
2998.5,34.7992908585726
2998.75,34.7443068246223
2999,34.689322790672
2999.25,34.6343387567217
2999.5,34.5793547227714
2999.75,34.524370688821
3000,34.4693866548707
3000.25,34.4144026209204
3000.5,34.3594185869701
3000.75,34.3044345530198
3001,34.2494505190694
3001.25,34.1944664851191
3001.5,34.1394824511688
3001.75,34.0844984172185
3002,34.0295143832682
3002.25,33.9884228860536
3002.5,33.9634301433489
3002.75,33.9384374006442
3003,33.9134446579395
3003.25,33.8884519152348
3003.5,33.8634591725301
3003.75,33.8384664298254
3004,33.8134736871207
3004.25,33.7884809444161
3004.5,33.7634882017113
3004.75,33.7384954590067
3005,33.713502716302
3005.25,33.6885099735973
3005.5,33.6635172308926
3005.75,33.6385244881879
3006,33.6135317454832
3006.25,33.5885390027785
3006.5,33.5635462600738
3006.75,33.5385535173692
3007,33.5135607746644
3007.25,33.5320095105127
3007.5,33.6019891900859
3007.75,33.6719688696589
3008,33.741948549232
3008.25,33.8119282288052
3008.5,33.8819079083783
3008.75,33.9518875879515
3009,34.0218672675246
3009.25,34.0918469470977
3009.5,34.1618266266709
3009.75,34.231806306244
3010,34.3017859858172
3010.25,34.3717656653902
3010.5,34.4417453449635
3010.75,34.5117250245365
3011,34.5817047041096
3011.25,34.6516843836828
3011.5,34.7216640632559
3011.75,34.7916437428291
3012,34.8616234224022
3012.25,34.9361178308289
3012.5,35.016094607484
3012.75,35.0960713841389
3013,35.176048160794
3013.25,35.256024937449
3013.5,35.3360017141039
3013.75,35.415978490759
3014,35.495955267414
3014.25,35.575932044069
3014.5,35.655908820724
3014.75,35.7358855973791
3015,35.815862374034
3015.25,35.895839150689
3015.5,35.9758159273441
3015.75,36.055792703999
3016,36.1357694806541
3016.25,36.2157462573091
3016.5,36.295723033964
3016.75,36.3756998106191
3017,36.4556765872741
3017.25,36.5356533639292
3017.5,36.6156301405841
3017.75,36.6956069172392
3018,36.7755836938941
3018.25,36.8555604705491
3018.5,36.9355372472042
3018.75,37.0155140238591
3019,37.0954908005142
3019.25,37.1754675771692
3019.5,37.2554443538241
3019.75,37.3354211304792
3020,37.4153979071342
3020.25,37.4953746837893
3020.5,37.5753514604442
3020.75,37.6553282370993
3021,37.7353050137543
3021.25,37.8152817904092
3021.5,37.8952585670643
3021.75,37.9752353437193
3022,38.0552121203743
3022.25,38.0890034696783
3022.5,38.0640107269737
3022.75,38.039017984269
3023,38.0140252415643
3023.25,37.9890324988596
3023.5,37.9640397561549
3023.75,37.9390470134502
3024,37.9140542707455
3024.25,37.8890615280408
3024.5,37.8640687853361
3024.75,37.8390760426315
3025,37.8140832999267
3025.25,37.7890905572221
3025.5,37.7640978145174
3025.75,37.7391050718127
3026,37.714112329108
3026.25,37.6891195864033
3026.5,37.6641268436986
3026.75,37.6391341009939
3027,37.6141413582892
3027.25,37.6086811075324
3027.5,37.6286753016961
3027.75,37.6486694958599
3028,37.6686636900236
3028.25,37.6886578841874
3028.5,37.7086520783511
3028.75,37.7286462725149
3029,37.7486404666786
3029.25,37.7686346608424
3029.5,37.7886288550061
3029.75,37.8086230491699
3030,37.8286172433336
3030.25,37.8486114374974
3030.5,37.8686056316612
3030.75,37.8885998258249
3031,37.9085940199887
3031.25,37.9285882141524
3031.5,37.9485824083161
3031.75,37.9685766024799
3032,37.9885707966437
3032.25,37.9914350091926
3032.5,37.9714408150288
3032.75,37.9514466208651
3033,37.9314524267013
3033.25,37.9114582325376
3033.5,37.8914640383738
3033.75,37.8714698442101
3034,37.8514756500463
3034.25,37.8314814558826
3034.5,37.8114872617188
3034.75,37.7914930675551
3035,37.7714988733913
3035.25,37.7515046792275
3035.5,37.7315104850638
3035.75,37.7115162909001
3036,37.6915220967363
3036.25,37.6715279025726
3036.5,37.6515337084088
3036.75,37.6315395142451
3037,37.6115453200813
3037.25,37.517623477696
3037.5,37.3226800845996
3037.75,37.1277366915028
3038,36.9327932984064
3038.25,36.7378499053096
3038.5,36.5429065122131
3038.75,36.3479631191167
3039,36.1530197260199
3039.25,35.9580763329235
3039.5,35.7631329398267
3039.75,35.5681895467302
3040,35.3732461536334
3040.25,35.178302760537
3040.5,34.9833593674406
3040.75,34.7884159743438
3041,34.5934725812473
3041.25,34.3985291881505
3041.5,34.2035857950541
3041.75,34.0086424019577
3042,33.8136990088609
3042.25,33.6750017279275
3042.5,33.6150191454362
3042.75,33.555036562945
3043,33.4950539804537
3043.25,33.4350713979625
3043.5,33.3750888154712
3043.75,33.3151062329799
3044,33.2551236504887
3044.25,33.1951410679974
3044.5,33.1351584855062
3044.75,33.075175903015
3045,33.0151933205237
3045.25,32.9552107380324
3045.5,32.8952281555411
3045.75,32.8352455730499
3046,32.7752629905587
3046.25,32.7152804080674
3046.5,32.6552978255762
3046.75,32.5953152430848
3047,32.5353326605936
3047.25,32.4691875976279
3047.5,32.3942093695139
3047.75,32.3192311413999
3048,32.2442529132857
3048.25,32.1692746851717
3048.5,32.0942964570575
3048.75,32.0193182289435
3049,31.9443400008295
3049.25,31.8693617727154
3049.5,31.7943835446014
3049.75,31.7194053164872
3050,31.6444270883732
3050.25,31.569448860259
3050.5,31.494470632145
3050.75,31.419492404031
3051,31.3445141759169
3051.25,31.2695359478028
3051.5,31.1945577196887
3051.75,31.1195794915747
3052,31.0446012634607
3052.25,30.9918994760924
3052.5,30.9719052819287
3052.75,30.9519110877649
3053,30.9319168936012
3053.25,30.9119226994374
3053.5,30.8919285052736
3053.75,30.8719343111099
3054,30.8519401169461
3054.25,30.8319459227824
3054.5,30.8119517286186
3054.75,30.7919575344549
3055,30.7719633402912
3055.25,30.7519691461274
3055.5,30.7319749519636
3055.75,30.7119807577999
3056,30.6919865636361
3056.25,30.6719923694724
3056.5,30.6519981753086
3056.75,30.6320039811449
3057,30.6120097869811
3057.25,30.5920155928174
3057.5,30.5720213986536
3057.75,30.5520272044899
3058,30.5320330103261
3058.25,30.5120388161623
3058.5,30.4920446219986
3058.75,30.4720504278348
3059,30.4520562336711
3059.25,30.4320620395074
3059.5,30.4120678453436
3059.75,30.3920736511799
3060,30.3720794570161
3060.25,30.3520852628523
3060.5,30.3320910686886
3060.75,30.3120968745248
3061,30.2921026803611
3061.25,30.2721084861973
3061.5,30.2521142920336
3061.75,30.2321200978698
3062,30.2121259037061
3062.25,30.2393414522883
3062.5,30.3393124231072
3062.75,30.4392833939259
3063,30.5392543647447
3063.25,30.6392253355634
3063.5,30.7391963063823
3063.75,30.839167277201
3064,30.9391382480197
3064.25,31.0391092188385
3064.5,31.1390801896572
3064.75,31.2390511604761
3065,31.3390221312948
3065.25,31.4389931021135
3065.5,31.5389640729323
3065.75,31.638935043751
3066,31.7389060145699
3066.25,31.8388769853886
3066.5,31.9388479562074
3066.75,32.0388189270261
3067,32.1387898978448
3067.25,32.1844956525345
3067.5,32.1445072642071
3067.75,32.1045188758795
3068,32.064530487552
3068.25,32.0245420992246
3068.5,31.984553710897
3068.75,31.9445653225695
3069,31.904576934242
3069.25,31.8645885459145
3069.5,31.824600157587
3069.75,31.7846117692595
3070,31.744623380932
3070.25,31.7046349926045
3070.5,31.664646604277
3070.75,31.6246582159495
3071,31.584669827622
3071.25,31.5446814392945
3071.5,31.504693050967
3071.75,31.4647046626395
3072,31.4247162743119
3072.25,31.4305442280311
3072.5,31.5105210046862
3072.75,31.5904977813411
3073,31.6704745579961
3073.25,31.7504513346511
3073.5,31.8304281113061
3073.75,31.9104048879612
3074,31.9903816646161
3074.25,32.0703584412711
3074.5,32.1503352179262
3074.75,32.2303119945811
3075,32.3102887712362
3075.25,32.3902655478912
3075.5,32.4702423245461
3075.75,32.5502191012012
3076,32.6301958778562
3076.25,32.7101726545113
3076.5,32.7901494311662
3076.75,32.8701262078213
3077,32.9501029844763
3077.25,32.962400298586
3077.5,32.8624293277671
3077.75,32.7624583569484
3078,32.6624873861296
3078.25,32.5625164153109
3078.5,32.4625454444922
3078.75,32.3625744736733
3079,32.2626035028547
3079.25,32.1626325320358
3079.5,32.0626615612171
3079.75,31.9626905903982
3080,31.8627196195795
3080.25,31.7627486487609
3080.5,31.662777677942
3080.75,31.5628067071233
3081,31.4628357363044
3081.25,31.3628647654858
3081.5,31.2628937946671
3081.75,31.1629228238482
3082,31.0629518530295
3082.25,31.0185095588947
3082.5,31.068495044304
3082.75,31.1184805297135
3083,31.1684660151228
3083.25,31.2184515005321
3083.5,31.2684369859416
3083.75,31.3184224713509
3084,31.3684079567603
3084.25,31.4183934421697
3084.5,31.468378927579
3084.75,31.5183644129885
3085,31.5683498983978
3085.25,31.6183353838072
3085.5,31.6683208692166
3085.75,31.718306354626
3086,31.7682918400354
3086.25,31.8182773254447
3086.5,31.8682628108541
3086.75,31.9182482962635
3087,31.9682337816729
3087.25,32.0054657801247
3087.5,32.0204614257475
3087.75,32.0354570713703
3088,32.0504527169931
3088.25,32.0654483626159
3088.5,32.0804440082387
3088.75,32.0954396538615
3089,32.1104352994844
3089.25,32.1254309451072
3089.5,32.14042659073
3089.75,32.1554222363528
3090,32.1704178819756
3090.25,32.1854135275984
3090.5,32.2004091732212
3090.75,32.2154048188441
3091,32.2304004644669
3091.25,32.2453961100897
3091.5,32.2603917557125
3091.75,32.2753874013353
3092,32.2903830469581
3092.25,32.305378692581
3092.5,32.3203743382038
3092.75,32.3353699838266
3093,32.3503656294494
3093.25,32.3653612750722
3093.5,32.380356920695
3093.75,32.3953525663178
3094,32.4103482119407
3094.25,32.4253438575635
3094.5,32.4403395031863
3094.75,32.4553351488091
3095,32.4703307944319
3095.25,32.4853264400547
3095.5,32.5003220856776
3095.75,32.5153177313004
3096,32.5303133769232
3096.25,32.545309022546
3096.5,32.5603046681688
3096.75,32.5753003137916
3097,32.5902959594144
3097.25,32.6194025518033
3097.5,32.6743865857535
3097.75,32.7293706197038
3098,32.7843546536542
3098.25,32.8393386876045
3098.5,32.8943227215549
3098.75,32.9493067555051
3099,33.0042907894555
3099.25,33.0592748234058
3099.5,33.1142588573561
3099.75,33.1692428913064
3100,33.2242269252567
3100.25,33.2792109592071
3100.5,33.3341949931574
3100.75,33.3891790271077
3101,33.444163061058
3101.25,33.4991470950083
3101.5,33.5541311289587
3101.75,33.609115162909
3102,33.6640991968593
3102.25,33.6757122516969
3102.5,33.6057325721238
3102.75,33.5357528925506
3103,33.4657732129775
3103.25,33.3957935334043
3103.5,33.3258138538312
3103.75,33.2558341742581
3104,33.1858544946849
3104.25,33.1158748151118
3104.5,33.0458951355386
3104.75,32.9759154559655
3105,32.9059357763925
3105.25,32.8359560968193
3105.5,32.7659764172462
3105.75,32.695996737673
3106,32.6260170580999
3106.25,32.5560373785267
3106.5,32.4860576989536
3106.75,32.4160780193805
3107,32.3460983398073
3107.25,32.2931767600669
3107.5,32.2731825659031
3107.75,32.2531883717394
3108,32.2331941775757
3108.25,32.2131999834119
3108.5,32.1932057892482
3108.75,32.1732115950844
3109,32.1532174009207
3109.25,32.1332232067569
3109.5,32.1132290125931
3109.75,32.0932348184294
3110,32.0732406242656
3110.25,32.0532464301019
3110.5,32.0332522359381
3110.75,32.0132580417744
3111,31.9932638476106
3111.25,31.9732696534469
3111.5,31.9532754592831
3111.75,31.9332812651194
3112,31.9132870709556
3112.25,31.9050303424061
3112.5,31.9200259880289
3112.75,31.9350216336517
3113,31.9500172792745
3113.25,31.9650129248973
3113.5,31.9800085705202
3113.75,31.995004216143
3114,32.0099998617658
3114.25,32.0249955073886
3114.5,32.0399911530114
3114.75,32.0549867986342
3115,32.0699824442571
3115.25,32.0849780898799
3115.5,32.0999737355027
3115.75,32.1149693811255
3116,32.1299650267483
3116.25,32.1449606723711
3116.5,32.159956317994
3116.75,32.1749519636167
3117,32.1899476092396
3117.25,32.2164775162079
3117.5,32.2664630016173
3117.75,32.3164484870267
3118,32.3664339724361
3118.25,32.4164194578455
3118.5,32.4664049432548
3118.75,32.5163904286642
3119,32.5663759140736
3119.25,32.616361399483
3119.5,32.6663468848924
3119.75,32.7163323703017
3120,32.7663178557111
3120.25,32.8163033411205
3120.5,32.8662888265299
3120.75,32.9162743119393
3121,32.9662597973486
3121.25,33.016245282758
3121.5,33.0662307681674
3121.75,33.1162162535768
3122,33.1662017389862
3122.25,33.2113310570769
3122.5,33.2463208968635
3122.75,33.28131073665
3123,33.3163005764366
3123.25,33.3512904162232
3123.5,33.3862802560097
3123.75,33.4212700957963
3124,33.4562599355828
3124.25,33.4912497753694
3124.5,33.526239615156
3124.75,33.5612294549425
3125,33.5962192947291
3125.25,33.6312091345157
3125.5,33.6661989743023
3125.75,33.7011888140888
3126,33.7361786538753
3126.25,33.771168493662
3126.5,33.8061583334485
3126.75,33.8411481732351
3127,33.8761380130216
3127.25,33.8872824539335
3127.5,33.847294065606
3127.75,33.8073056772785
3128,33.7673172889509
3128.25,33.7273289006235
3128.5,33.6873405122959
3128.75,33.6473521239684
3129,33.607363735641
3129.25,33.5673753473134
3129.5,33.527386958986
3129.75,33.4873985706584
3130,33.4474101823309
3130.25,33.4074217940035
3130.5,33.3674334056759
3130.75,33.3274450173484
3131,33.2874566290209
3131.25,33.2474682406934
3131.5,33.2074798523659
3131.75,33.1674914640384
3132,33.1275030757109
3132.25,33.1031213281542
3132.5,33.113118425236
3132.75,33.1231155223179
3133,33.1331126193998
3133.25,33.1431097164816
3133.5,33.1531068135635
3133.75,33.1631039106454
3134,33.1731010077273
3134.25,33.1830981048092
3134.5,33.193095201891
3134.75,33.2030922989729
3135,33.2130893960548
3135.25,33.2230864931367
3135.5,33.2330835902185
3135.75,33.2430806873004
3136,33.2530777843823
3136.25,33.2630748814642
3136.5,33.273071978546
3136.75,33.2830690756279
3137,33.2930661727098
3137.25,33.2969367302083
3137.5,33.2869396331265
3137.75,33.2769425360446
3138,33.2669454389627
3138.25,33.2569483418808
3138.5,33.2469512447989
3138.75,33.2369541477171
3139,33.2269570506352
3139.25,33.2169599535533
3139.5,33.2069628564714
3139.75,33.1969657593896
3140,33.1869686623077
3140.25,33.1769715652258
3140.5,33.1669744681439
3140.75,33.1569773710621
3141,33.1469802739802
3141.25,33.1369831768983
3141.5,33.1269860798164
3141.75,33.1169889827345
3142,33.1069918856527
3142.25,33.1255442971481
3142.5,33.2105196223442
3142.75,33.29549494754
3143,33.3804702727361
3143.25,33.465445597932
3143.5,33.5504209231278
3143.75,33.6353962483239
3144,33.7203715735198
3144.25,33.8053468987158
3144.5,33.8903222239117
3144.75,33.9752975491077
3145,34.0602728743036
3145.25,34.1452481994995
3145.5,34.2302235246955
3145.75,34.3151988498914
3146,34.4001741750874
3146.25,34.4851495002833
3146.5,34.5701248254792
3146.75,34.6551001506752
3147,34.7400754758711
3147.25,34.7970528469333
3147.5,34.7870557498514
3147.75,34.7770586527695
3148,34.7670615556876
3148.25,34.7570644586058
3148.5,34.7470673615239
3148.75,34.737070264442
3149,34.7270731673601
3149.25,34.7170760702783
3149.5,34.7070789731964
3149.75,34.6970818761145
3150,34.6870847790326
3150.25,34.6770876819508
3150.5,34.6670905848689
3150.75,34.657093487787
3151,34.6470963907051
3151.25,34.6370992936233
3151.5,34.6271021965414
3151.75,34.6171050994595
3152,34.6071080023776
3152.25,34.6158900208733
3152.5,34.6708740548236
3152.75,34.725858088774
3153,34.7808421227243
3153.25,34.8358261566746
3153.5,34.8908101906249
3153.75,34.9457942245752
3154,35.0007782585256
3154.25,35.0557622924758
3154.5,35.1107463264262
3154.75,35.1657303603765
3155,35.2207143943269
3155.25,35.2756984282772
3155.5,35.3306824622274
3155.75,35.3856664961778
3156,35.4406505301281
3156.25,35.4956345640785
3156.5,35.5506185980287
3156.75,35.605602631979
3157,35.6605866659294
3157.25,35.6957534454874
3157.5,35.6807577998645
3157.75,35.6657621542417
3158,35.6507665086189
3158.25,35.6357708629961
3158.5,35.6207752173733
3158.75,35.6057795717505
3159,35.5907839261277
3159.25,35.5757882805048
3159.5,35.560792634882
3159.75,35.5457969892592
3160,35.5308013436364
3160.25,35.5158056980136
3160.5,35.5008100523908
3160.75,35.485814406768
3161,35.4708187611451
3161.25,35.4558231155223
3161.5,35.4408274698995
3161.75,35.4258318242767
3162,35.4108361786539
3162.25,35.4
3162.5,35.4
3162.75,35.4
3163,35.4
3163.25,35.4
3163.5,35.4
3163.75,35.4
3164,35.4
3164.25,35.4
3164.5,35.4
3164.75,35.4
3165,35.4
3165.25,35.4
3165.5,35.4
3165.75,35.4
3166,35.4
3166.25,35.4
3166.5,35.4
3166.75,35.4
3167,35.4
3167.25,35.3728508038319
3167.5,35.2728798330132
3167.75,35.1729088621943
3168,35.0729378913757
3168.25,34.9729669205568
3168.5,34.8729959497381
3168.75,34.7730249789194
3169,34.6730540081006
3169.25,34.5730830372819
3169.5,34.473112066463
3169.75,34.3731410956443
3170,34.2731701248256
3170.25,34.1731991540068
3170.5,34.0732281831881
3170.75,33.9732572123692
3171,33.8732862415505
3171.25,33.7733152707317
3171.5,33.673344299913
3171.75,33.5733733290943
3172,33.4734023582754
3172.25,33.3548333586764
3172.5,33.1848827082844
3172.75,33.0149320578926
3173,32.8449814075008
3173.25,32.6750307571088
3173.5,32.505080106717
3173.75,32.3351294563249
3174,32.1651788059332
3174.25,31.9952281555411
3174.5,31.8252775051493
3174.75,31.6553268547576
3175,31.4853762043655
3175.25,31.3154255539737
3175.5,31.1454749035816
3175.75,30.9755242531899
3176,30.8055736027981
3176.25,30.635622952406
3176.5,30.4656723020143
3176.75,30.2957216516222
3177,30.1257710012304
3177.25,30.0025988028919
3177.5,30.0125958999737
3177.75,30.0225929970556
3178,30.0325900941375
3178.25,30.0425871912194
3178.5,30.0525842883012
3178.75,30.0625813853831
3179,30.072578482465
3179.25,30.0825755795469
3179.5,30.0925726766287
3179.75,30.1025697737106
3180,30.1125668707925
3180.25,30.1225639678744
3180.5,30.1325610649562
3180.75,30.1425581620381
3181,30.15255525912
3181.25,30.1625523562019
3181.5,30.1725494532838
3181.75,30.1825465503656
3182,30.1925436474475
3182.25,30.1822147882943
3182.5,30.1122351087213
3182.75,30.0422554291481
3183,29.972275749575
3183.25,29.9022960700019
3183.5,29.8323163904287
3183.75,29.7623367108556
3184,29.6923570312824
3184.25,29.6223773517093
3184.5,29.5523976721361
3184.75,29.482417992563
3185,29.41243831299
3185.25,29.3424586334168
3185.5,29.2724789538437
3185.75,29.2024992742705
3186,29.1325195946974
3186.25,29.0625399151243
3186.5,28.9925602355511
3186.75,28.922580555978
3187,28.8526008764048
3187.25,28.8260682047524
3187.5,28.9310377241122
3187.75,29.0360072434718
3188,29.1409767628315
3188.25,29.2459462821913
3188.5,29.3509158015509
3188.75,29.4558853209107
3189,29.5608548402703
3189.25,29.6658243596299
3189.5,29.7707938789897
3189.75,29.8757633983494
3190,29.9807329177092
3190.25,30.0857024370688
3190.5,30.1906719564286
3190.75,30.2956414757882
3191,30.4006109951478
3191.25,30.5055805145077
3191.5,30.6105500338673
3191.75,30.7155195532271
3192,30.8204890725867
3192.25,30.893938430489
3192.5,30.8689456877843
3192.75,30.8439529450796
3193,30.8189602023749
3193.25,30.7939674596702
3193.5,30.7689747169655
3193.75,30.7439819742608
3194,30.7189892315561
3194.25,30.6939964888514
3194.5,30.6690037461467
3194.75,30.644011003442
3195,30.6190182607374
3195.25,30.5940255180327
3195.5,30.569032775328
3195.75,30.5440400326233
3196,30.5190472899186
3196.25,30.4940545472139
3196.5,30.4690618045092
3196.75,30.4440690618045
3197,30.4190763190998
3197.25,30.4686305138165
3197.5,30.7585463291906
3197.75,31.0484621445654
3198,31.3383779599396
3198.25,31.6282937753137
3198.5,31.9182095906885
3198.75,32.2081254060626
3199,32.4980412214374
3199.25,32.7879570368115
3199.5,33.0778728521857
3199.75,33.3677886675605
3200,33.6577044829346
3200.25,33.9476202983094
3200.5,34.2375361136835
3200.75,34.5274519290583
3201,34.8173677444325
3201.25,35.1072835598066
3201.5,35.3971993751814
3201.75,35.6871151905555
3202,35.9770310059303
3202.25,36.2207765997152
3202.5,36.310750473452
3202.75,36.400724347189
3203,36.4906982209258
3203.25,36.5806720946628
3203.5,36.6706459683996
3203.75,36.7606198421366
3204,36.8505937158734
3204.25,36.9405675896102
3204.5,37.0305414633472
3204.75,37.120515337084
3205,37.210489210821
3205.25,37.3004630845578
3205.5,37.3904369582946
3205.75,37.4804108320316
3206,37.5703847057684
3206.25,37.6603585795054
3206.5,37.7503324532422
3206.75,37.8403063269792
3207,37.930280200716
3207.25,37.9831216046226
3207.5,37.9081433765085
3207.75,37.8331651483945
3208,37.7581869202803
3208.25,37.6832086921663
3208.5,37.6082304640523
3208.75,37.5332522359382
3209,37.4582740078241
3209.25,37.38329577971
3209.5,37.308317551596
3209.75,37.233339323482
3210,37.1583610953678
3210.25,37.0833828672538
3210.5,37.0084046391396
3210.75,36.9334264110256
3211,36.8584481829115
3211.25,36.7834699547975
3211.5,36.7084917266834
3211.75,36.6335134985693
3212,36.5585352704553
3212.25,36.4923266197592
3212.5,36.4573367799727
3212.75,36.4223469401861
3213,36.3873571003995
3213.25,36.352367260613
3213.5,36.3173774208264
3213.75,36.2823875810398
3214,36.2473977412532
3214.25,36.2124079014667
3214.5,36.1774180616801
3214.75,36.1424282218935
3215,36.107438382107
3215.25,36.0724485423204
3215.5,36.0374587025339
3215.75,36.0024688627473
3216,35.9674790229607
3216.25,35.9324891831742
3216.5,35.8974993433876
3216.75,35.862509503601
3217,35.8275196638144
3217.25,35.801067167996
3217.5,35.8060657165369
3217.75,35.8110642650779
3218,35.8160628136188
3218.25,35.8210613621598
3218.5,35.8260599107007
3218.75,35.8310584592416
3219,35.8360570077826
3219.25,35.8410555563235
3219.5,35.8460541048645
3219.75,35.8510526534054
3220,35.8560512019463
3220.25,35.8610497504873
3220.5,35.8660482990282
3220.75,35.8710468475691
3221,35.8760453961101
3221.25,35.881043944651
3221.5,35.886042493192
3221.75,35.8910410417329
3222,35.8960395902738
3222.25,35.9083051105182
3222.5,35.9482934988457
3222.75,35.9882818871732
3223,36.0282702755008
3223.25,36.0682586638282
3223.5,36.1082470521557
3223.75,36.1482354404833
3224,36.1882238288107
3224.25,36.2282122171383
3224.5,36.2682006054658
3224.75,36.3081889937932
3225,36.3481773821208
3225.25,36.3881657704483
3225.5,36.4281541587758
3225.75,36.4681425471033
3226,36.5081309354307
3226.25,36.5481193237583
3226.5,36.5881077120858
3226.75,36.6280961004133
3227,36.6680844887408
3227.25,36.6747722591615
3227.5,36.5498085456381
3227.75,36.4248448321147
3228,36.2998811185912
3228.25,36.1749174050678
3228.5,36.0499536915442
3228.75,35.9249899780209
3229,35.8000262644975
3229.25,35.6750625509739
3229.5,35.5500988374506
3229.75,35.425135123927
3230,35.3001714104036
3230.25,35.17520769688
3230.5,35.0502439833567
3230.75,34.9252802698333
3231,34.8003165563097
3231.25,34.6753528427864
3231.5,34.5503891292628
3231.75,34.4254254157394
3232,34.3004617022161
3232.25,34.1941195172862
3232.5,34.1641282260406
3232.75,34.1341369347949
3233,34.1041456435493
3233.25,34.0741543523037
3233.5,34.0441630610581
3233.75,34.0141717698125
3234,33.9841804785668
3234.25,33.9541891873212
3234.5,33.9241978960755
3234.75,33.8942066048299
3235,33.8642153135843
3235.25,33.8342240223387
3235.5,33.8042327310931
3235.75,33.7742414398474
3236,33.7442501486018
3236.25,33.7142588573561
3236.5,33.6842675661105
3236.75,33.6542762748649
3237,33.6242849836193
3237.25,33.5895384360184
3237.5,33.534554402068
3237.75,33.4795703681177
3238,33.4245863341674
3238.25,33.369602300217
3238.5,33.3146182662668
3238.75,33.2596342323164
3239,33.2046501983661
3239.25,33.1496661644158
3239.5,33.0946821304655
3239.75,33.0396980965152
3240,32.9847140625648
3240.25,32.9297300286145
3240.5,32.8747459946642
3240.75,32.8197619607139
3241,32.7647779267636
3241.25,32.7097938928132
3241.5,32.6548098588629
3241.75,32.5998258249126
3242,32.5448417909623
3242.25,32.4990779779102
3242.5,32.4940794293692
3242.75,32.4890808808283
3243,32.4840823322874
3243.25,32.4790837837464
3243.5,32.4740852352055
3243.75,32.4690866866645
3244,32.4640881381236
3244.25,32.4590895895827
3244.5,32.4540910410417
3244.75,32.4490924925008
3245,32.4440939439599
3245.25,32.4390953954189
3245.5,32.434096846878
3245.75,32.429098298337
3246,32.4240997497961
3246.25,32.4191012012552
3246.5,32.4141026527142
3246.75,32.4091041041733
3247,32.4041055556324
3247.25,32.4142878865373
3247.5,32.4942646631923
3247.75,32.5742414398474
3248,32.6542182165023
3248.25,32.7341949931573
3248.5,32.8141717698124
3248.75,32.8941485464673
3249,32.9741253231224
3249.25,33.0541020997774
3249.5,33.1340788764325
3249.75,33.2140556530874
3250,33.2940324297424
3250.25,33.3740092063975
3250.5,33.4539859830524
3250.75,33.5339627597075
3251,33.6139395363625
3251.25,33.6939163130174
3251.5,33.7738930896725
3251.75,33.8538698663274
3252,33.9338466429825
3252.25,34.0120954921828
3252.5,34.082075171756
3252.75,34.1520548513291
3253,34.2220345309022
3253.25,34.2920142104754
3253.5,34.3619938900485
3253.75,34.4319735696217
3254,34.5019532491947
3254.25,34.5719329287678
3254.5,34.641912608341
3254.75,34.7118922879141
3255,34.7818719674873
3255.25,34.8518516470604
3255.5,34.9218313266335
3255.75,34.9918110062067
3256,35.0617906857798
3256.25,35.131770365353
3256.5,35.201750044926
3256.75,35.2717297244993
3257,35.3417094040723
3257.25,35.4091842800071
3257.5,35.4641683139575
3257.75,35.5191523479078
3258,35.5741363818581
3258.25,35.6291204158084
3258.5,35.6841044497587
3258.75,35.7390884837091
3259,35.7940725176594
3259.25,35.8490565516097
3259.5,35.90404058556
3259.75,35.9590246195104
3260,36.0140086534607
3260.25,36.0689926874109
3260.5,36.1239767213613
3260.75,36.1789607553116
3261,36.233944789262
3261.25,36.2889288232122
3261.5,36.3439128571625
3261.75,36.3988968911129
3262,36.4538809250632
3262.25,36.4830759873378
3262.5,36.3781064679781
3262.75,36.2731369486183
3263,36.1681674292587
3263.25,36.0631979098991
3263.5,35.9582283905393
3263.75,35.8532588711797
3264,35.7482893518198
3264.25,35.6433198324602
3264.5,35.5383503131006
3264.75,35.4333807937408
3265,35.3284112743812
3265.25,35.2234417550214
3265.5,35.1184722356617
3265.75,35.0135027163019
3266,34.9085331969423
3266.25,34.8035636775827
3266.5,34.6985941582229
3266.75,34.5936246388633
3267,34.4886551195035
3267.25,34.4031075047345
3267.5,34.4231016988982
3267.75,34.443095893062
3268,34.4630900872258
3268.25,34.4830842813895
3268.5,34.5030784755533
3268.75,34.523072669717
3269,34.5430668638808
3269.25,34.5630610580445
3269.5,34.5830552522083
3269.75,34.603049446372
3270,34.6230436405358
3270.25,34.6430378346995
3270.5,34.6630320288633
3270.75,34.683026223027
3271,34.7030204171908
3271.25,34.7230146113546
3271.5,34.7430088055183
3271.75,34.763002999682
3272,34.7829971938458
3272.25,34.8007478470024
3272.5,34.8057463955433
3272.75,34.8107449440843
3273,34.8157434926252
3273.25,34.8207420411661
3273.5,34.8257405897071
3273.75,34.830739138248
3274,34.835737686789
3274.25,34.8407362353299
3274.5,34.8457347838708
3274.75,34.8507333324118
3275,34.8557318809527
3275.25,34.8607304294936
3275.5,34.8657289780346
3275.75,34.8707275265755
3276,34.8757260751165
3276.25,34.8807246236574
3276.5,34.8857231721983
3276.75,34.8907217207393
3277,34.8957202692802
3277.25,34.9021564534635
3277.5,34.9171520990863
3277.75,34.9321477447091
3278,34.9471433903319
3278.25,34.9621390359547
3278.5,34.9771346815775
3278.75,34.9921303272003
3279,35.0071259728232
3279.25,35.022121618446
3279.5,35.0371172640688
3279.75,35.0521129096916
3280,35.0671085553144
3280.25,35.0821042009372
3280.5,35.09709984656
3280.75,35.1120954921828
3281,35.1270911378057
3281.25,35.1420867834285
3281.5,35.1570824290513
3281.75,35.1720780746741
3282,35.1870737202969
3282.25,35.1931021136009
3282.5,35.1431166281915
3282.75,35.0931311427821
3283,35.0431456573728
3283.25,34.9931601719633
3283.5,34.943174686554
3283.75,34.8931892011447
3284,34.8432037157352
3284.25,34.7932182303259
3284.5,34.7432327449164
3284.75,34.6932472595071
3285,34.6432617740978
3285.25,34.5932762886883
3285.5,34.543290803279
3285.75,34.4933053178695
3286,34.4433198324602
3286.25,34.3933343470508
3286.5,34.3433488616414
3286.75,34.2933633762321
3287,34.2433778908227
3287.25,34.1953746837893
3287.5,34.1603848440027
3287.75,34.1253950042162
3288,34.0904051644296
3288.25,34.055415324643
3288.5,34.0204254848565
3288.75,33.9854356450699
3289,33.9504458052833
3289.25,33.9154559654967
3289.5,33.8804661257102
3289.75,33.8454762859237
3290,33.8104864461371
3290.25,33.7754966063505
3290.5,33.7405067665639
3290.75,33.7055169267774
3291,33.6705270869908
3291.25,33.6355372472042
3291.5,33.6005474074177
3291.75,33.5655575676311
3292,33.5305677278445
3292.25,33.5063173027744
3292.5,33.5563027881837
3292.75,33.6062882735931
3293,33.6562737590025
3293.25,33.7062592444118
3293.5,33.7562447298213
3293.75,33.8062302152306
3294,33.85621570064
3294.25,33.9062011860494
3294.5,33.9561866714587
3294.75,34.0061721568682
3295,34.0561576422775
3295.25,34.1061431276869
3295.5,34.1561286130963
3295.75,34.2061140985056
3296,34.2560995839151
3296.25,34.3060850693244
3296.5,34.3560705547338
3296.75,34.4060560401432
3297,34.4560415255525
3297.25,34.4957810923266
3297.5,34.4607912525401
3297.75,34.4258014127535
3298,34.3908115729669
3298.25,34.3558217331803
3298.5,34.3208318933938
3298.75,34.2858420536073
3299,34.2508522138207
3299.25,34.2158623740341
3299.5,34.1808725342475
3299.75,34.145882694461
3300,34.1108928546744
3300.25,34.0759030148878
3300.5,34.0409131751013
3300.75,34.0059233353147
3301,33.9709334955282
3301.25,33.9359436557416
3301.5,33.900953815955
3301.75,33.8659639761685
3302,33.8309741363819
3302.25,33.8114734382991
3302.5,33.9114444091179
3302.75,34.0114153799366
3303,34.1113863507553
3303.25,34.2113573215742
3303.5,34.3113282923929
3303.75,34.4112992632117
3304,34.5112702340304
3304.25,34.6112412048491
3304.5,34.711212175668
3304.75,34.8111831464867
3305,34.9111541173055
3305.25,35.0111250881242
3305.5,35.1110960589431
3305.75,35.2110670297618
3306,35.3110380005804
3306.25,35.4110089713993
3306.5,35.510979942218
3306.75,35.6109509130369
3307,35.7109218838555
3307.25,35.7863839316572
3307.5,35.6614202181336
3307.75,35.5364565046103
3308,35.4114927910867
3308.25,35.2865290775633
3308.5,35.1615653640397
3308.75,35.0366016505164
3309,34.911637936993
3309.25,34.7866742234694
3309.5,34.6617105099461
3309.75,34.5367467964225
3310,34.4117830828991
3310.25,34.2868193693758
3310.5,34.1618556558522
3310.75,34.0368919423288
3311,33.9119282288053
3311.25,33.7869645152819
3311.5,33.6620008017583
3311.75,33.537037088235
3312,33.4120733747116
3312.25,33.3
3312.5,33.3
3312.75,33.3
3313,33.3
3313.25,33.3
3313.5,33.3
3313.75,33.3
3314,33.3
3314.25,33.3
3314.5,33.3
3314.75,33.3
3315,33.3
3315.25,33.3
3315.5,33.3
3315.75,33.3
3316,33.3
3316.25,33.3
3316.5,33.3
3316.75,33.3
3317,33.3
3317.25,33.298053662515
3317.5,33.2780594683513
3317.75,33.2580652741875
3318,33.2380710800238
3318.25,33.21807688586
3318.5,33.1980826916963
3318.75,33.1780884975325
3319,33.1580943033688
3319.25,33.138100109205
3319.5,33.1181059150413
3319.75,33.0981117208775
3320,33.0781175267138
3320.25,33.05812333255
3320.5,33.0381291383863
3320.75,33.0181349442225
3321,32.9981407500588
3321.25,32.978146555895
3321.5,32.9581523617313
3321.75,32.9381581675675
3322,32.9181639734038
3322.25,32.9
3322.5,32.9
3322.75,32.9
3323,32.9
3323.25,32.9
3323.5,32.9
3323.75,32.9
3324,32.9
3324.25,32.9
3324.5,32.9
3324.75,32.9
3325,32.9
3325.25,32.9
3325.5,32.9
3325.75,32.9
3326,32.9
3326.25,32.9
3326.5,32.9
3326.75,32.9
3327,32.9
3327.25,32.8991429479825
3327.5,32.8891458509006
3327.75,32.8791487538187
3328,32.8691516567368
3328.25,32.859154559655
3328.5,32.8491574625731
3328.75,32.8391603654912
3329,32.8291632684093
3329.25,32.8191661713275
3329.5,32.8091690742456
3329.75,32.7991719771637
3330,32.7891748800818
3330.25,32.779177783
3330.5,32.7691806859181
3330.75,32.7591835888362
3331,32.7491864917543
3331.25,32.7391893946725
3331.5,32.7291922975906
3331.75,32.7191952005087
3332,32.7091981034268
3332.25,32.6956055348973
3332.5,32.640621500947
3332.75,32.5856374669966
3333,32.5306534330463
3333.25,32.475669399096
3333.5,32.4206853651457
3333.75,32.3657013311954
3334,32.310717297245
3334.25,32.2557332632947
3334.5,32.2007492293444
3334.75,32.1457651953941
3335,32.0907811614437
3335.25,32.0357971274934
3335.5,31.9808130935432
3335.75,31.9258290595928
3336,31.8708450256425
3336.25,31.8158609916921
3336.5,31.7608769577419
3336.75,31.7058929237916
3337,31.6509088898412
3337.25,31.6055570146942
3337.5,31.6805352428084
3337.75,31.7555134709224
3338,31.8304916990365
3338.25,31.9054699271505
3338.5,31.9804481552646
3338.75,32.0554263833787
3339,32.1304046114927
3339.25,32.2053828396069
3339.5,32.2803610677209
3339.75,32.3553392958349
3340,32.430317523949
3340.25,32.5052957520631
3340.5,32.5802739801772
3340.75,32.6552522082912
3341,32.7302304364054
3341.25,32.8052086645194
3341.5,32.8801868926334
3341.75,32.9551651207476
3342,33.0301433488616
3342.25,33.1023900692553
3342.5,33.1373799090419
3342.75,33.1723697488284
3343,33.207359588615
3343.25,33.2423494284016
3343.5,33.2773392681882
3343.75,33.3123291079747
3344,33.3473189477613
3344.25,33.3823087875478
3344.5,33.4172986273344
3344.75,33.452288467121
3345,33.4872783069075
3345.25,33.5222681466941
3345.5,33.5572579864807
3345.75,33.5922478262672
3346,33.6272376660538
3346.25,33.6622275058404
3346.5,33.697217345627
3346.75,33.7322071854135
3347,33.7671970252
3347.25,33.8071854135275
3347.5,33.922152029969
3347.75,34.0371186464107
3348,34.1520852628522
3348.25,34.2670518792939
3348.5,34.3820184957354
3348.75,34.4969851121769
3349,34.6119517286186
3349.25,34.7269183450601
3349.5,34.8418849615018
3349.75,34.9568515779433
3350,35.0718181943847
3350.25,35.1867848108264
3350.5,35.3017514272679
3350.75,35.4167180437096
3351,35.5316846601511
3351.25,35.6466512765928
3351.5,35.7616178930343
3351.75,35.8765845094758
3352,35.9915511259175
3352.25,36.098016339282
3352.5,36.0630264994954
3352.75,36.0280366597089
3353,35.9930468199224
3353.25,35.9580569801358
3353.5,35.9230671403492
3353.75,35.8880773005626
3354,35.8530874607761
3354.25,35.8180976209895
3354.5,35.7831077812029
3354.75,35.7481179414164
3355,35.7131281016298
3355.25,35.6781382618433
3355.5,35.6431484220566
3355.75,35.6081585822701
3356,35.5731687424836
3356.25,35.538178902697
3356.5,35.5031890629104
3356.75,35.4681992231238
3357,35.4332093833373
3357.25,35.399236947236
3357.5,35.3842413016132
3357.75,35.3692456559904
3358,35.3542500103676
3358.25,35.3392543647448
3358.5,35.3242587191219
3358.75,35.3092630734991
3359,35.2942674278763
3359.25,35.2792717822535
3359.5,35.2642761366307
3359.75,35.2492804910079
3360,35.2342848453851
3360.25,35.2192891997623
3360.5,35.2042935541394
3360.75,35.1892979085166
3361,35.1743022628938
3361.25,35.159306617271
3361.5,35.1443109716482
3361.75,35.1293153260254
3362,35.1143196804026
3362.25,35.0986480695595
3362.5,35.0686567783139
3362.75,35.0386654870682
3363,35.0086741958226
3363.25,34.978682904577
3363.5,34.9486916133313
3363.75,34.9187003220857
3364,34.8887090308401
3364.25,34.8587177395944
3364.5,34.8287264483488
3364.75,34.7987351571032
3365,34.7687438658576
3365.25,34.7387525746119
3365.5,34.7087612833663
3365.75,34.6787699921207
3366,34.648778700875
3366.25,34.6187874096294
3366.5,34.5887961183838
3366.75,34.5588048271382
3367,34.5288135358925
3367.25,34.5015703404708
3367.5,34.5415587287983
3367.75,34.5815471171258
3368,34.6215355054533
3368.25,34.6615238937808
3368.5,34.7015122821083
3368.75,34.7415006704359
3369,34.7814890587633
3369.25,34.8214774470908
3369.5,34.8614658354184
3369.75,34.9014542237458
3370,34.9414426120734
3370.25,34.9814310004008
3370.5,35.0214193887284
3370.75,35.0614077770559
3371,35.1013961653833
3371.25,35.1413845537109
3371.5,35.1813729420384
3371.75,35.2213613303659
3372,35.2613497186934
3372.25,35.3013381070209
3372.5,35.3413264953484
3372.75,35.3813148836759
3373,35.4213032720034
3373.25,35.4612916603309
3373.5,35.5012800486584
3373.75,35.5412684369859
3374,35.5812568253134
3374.25,35.6212452136409
3374.5,35.6612336019684
3374.75,35.701221990296
3375,35.7412103786234
3375.25,35.7811987669509
3375.5,35.8211871552785
3375.75,35.8611755436059
3376,35.9011639319335
3376.25,35.941152320261
3376.5,35.9811407085884
3376.75,36.021129096916
3377,36.0611174852435
3377.25,36.0968206134834
3377.5,35.9818539970419
3377.75,35.8668873806002
3378,35.7519207641587
3378.25,35.6369541477172
3378.5,35.5219875312755
3378.75,35.407020914834
3379,35.2920542983923
3379.25,35.1770876819509
3379.5,35.0621210655094
3379.75,34.9471544490677
3380,34.8321878326262
3380.25,34.7172212161845
3380.5,34.602254599743
3380.75,34.4872879833013
3381,34.3723213668598
3381.25,34.2573547504183
3381.5,34.1423881339766
3381.75,34.0274215175351
3382,33.9124549010934
3382.25,33.7985803348033
3382.5,33.7335992037711
3382.75,33.6686180727389
3383,33.6036369417067
3383.25,33.5386558106744
3383.5,33.4736746796423
3383.75,33.40869354861
3384,33.3437124175779
3384.25,33.2787312865457
3384.5,33.2137501555135
3384.75,33.1487690244813
3385,33.0837878934491
3385.25,33.0188067624169
3385.5,32.9538256313848
3385.75,32.8888445003525
3386,32.8238633693204
3386.25,32.7588822382881
3386.5,32.693901107256
3386.75,32.6289199762237
3387,32.5639388451916
3387.25,32.5005612308372
3387.5,32.5355510706238
3387.75,32.5705409104104
3388,32.605530750197
3388.25,32.6405205899835
3388.5,32.6755104297701
3388.75,32.7105002695567
3389,32.7454901093432
3389.25,32.7804799491298
3389.5,32.8154697889164
3389.75,32.8504596287029
3390,32.8854494684895
3390.25,32.920439308276
3390.5,32.9554291480626
3390.75,32.9904189878492
3391,33.0254088276358
