2431,761.923590860011
2431.25,761.15975584722
2431.5,760.258987173632
2431.75,760.057973518056
2432,760.764188179655
2432.25,761.362832499818
2432.5,760.703288552987
2432.75,758.50551917681
2433,756.378518727043
2433.25,756.175866193878
2433.5,758.742116424713
2433.75,762.443568570096
2434,765.274064809905
2434.25,765.808570139082
2434.5,764.150633829257
2434.75,760.652267928497
2435,755.938752876654
2435.25,751.49132541113
2435.5,748.958330938531
2435.75,749.296963221037
2436,750.997730040466
2436.25,752.001119306406
2436.5,750.920008073766
2436.75,748.738320408071
2437,746.962332118937
2437.25,746.617068149611
2437.5,746.989633437032
2437.75,746.974994061662
2438,745.89149939291
2438.25,744.532530275108
2438.5,744.012418431695
2438.75,745.008292019513
2439,746.727647283794
2439.25,748.069715466235
2439.5,748.378827404428
2439.75,748.392812176958
2440,749.121260752475
2440.25,751.205264511497
2440.5,754.15916197018
2440.75,757.282777885848
2441,760.027534292927
2441.25,762.302940585108
2441.5,764.10467755456
2441.75,765.359512231143
2442,765.768069910713
2442.25,764.984659902084
2442.5,762.892435428736
2442.75,760.262027344934
2443,758.079172699368
2443.25,757.124272658141
2443.5,757.224252785841
2443.75,757.929489477673
2444,758.815534117024
2444.25,759.586849429603
2444.5,759.989003427063
2444.75,759.892100940489
2445,759.868349319125
2445.25,760.735811038356
2445.5,763.076198798386
2445.75,765.96148706051
2446,767.87034943974
2446.25,767.536220531285
2446.5,765.570944071788
2446.75,763.422485778184
2447,762.413004007834
2447.25,762.659840671695
2447.5,763.625962622813
2447.75,764.811565428177
2448,766.204052617357
2448.25,768.095347144469
2448.5,770.718950881174
2448.75,773.443987169945
2449,775.012578659323
2449.25,774.223043342599
2449.5,771.184296434441
2449.75,767.165826139022
2450,763.46198528772
2450.25,760.9099997695
2450.5,759.821581060489
2450.75,760.46541661627
2451,762.519597763778
2451.25,764.867505242823
2451.5,766.34874626435
2451.75,766.46923819977
2452,765.731634574568
2452.25,764.71839351191
2452.5,763.845873469411
2452.75,763.235378726658
2453,762.977493860784
2453.25,763.102908857079
2453.5,763.516886278368
2453.75,764.109128634067
2454,764.835612864274
2454.25,765.812905560033
2454.5,767.181376366243
2454.75,769.040322740484
2455,771.372149667989
2455.25,774.138592192677
2455.5,777.152245430765
2455.75,779.707114789371
2456,780.98456034172
2456.25,780.441308918135
2456.5,778.810900141486
2456.75,777.196674784855
2457,776.482527437965
2457.25,776.063136296742
2457.5,774.71438600768
2457.75,771.397337986738
2458,766.883163045365
2458.25,762.957690975837
2458.5,761.293320991774
2458.75,761.856985887946
2459,763.379719975169
2459.25,764.613626451915
2459.5,765.117301675043
2459.75,765.112410294443
2460,764.837422723078
2460.25,764.470129084251
2460.5,764.130569318926
2460.75,763.929867382749
2461,763.792929151269
2461.25,763.437409411318
2461.5,762.582545228409
2461.75,761.422146105155
2462,760.761619034861
2462.25,761.43362398144
2462.5,763.574737865061
2462.75,766.292373299034
2463,768.618095632252
2463.25,770.103449149996
2463.5,771.164714184875
2463.75,772.296623094773
2464,773.535225726082
2464.25,773.988449454654
2464.5,772.653622647384
2464.75,769.201036767413
2465,765.045265332574
2465.25,761.879709123785
2465.5,760.851983770699
2465.75,761.258594922366
2466,762.00397477123
2466.25,762.243607550178
2466.5,762.115738280856
2466.75,761.99905436958
2467,762.217216176169
2467.25,762.845105745502
2467.5,763.887333332857
2467.75,765.297690062032
2468,766.764382349058
2468.25,767.889137150359
2468.5,768.327787108574
2468.75,768.072295568129
2469,767.243410607461
2469.25,766.012307270773
2469.5,764.941441594616
2469.75,764.777012696194
2470,766.157875274786
2470.25,768.661754635915
2470.5,771.265806231829
2470.75,773.018921228789
2471,773.921829916655
2471.25,774.608140484785
2471.5,775.674923806732
2471.75,776.90003293634
2472,777.374339990381
2472.25,776.208339322258
2472.5,773.613876558948
2472.75,771.001866719897
2473,769.820218430955
2473.25,770.340858676858
2473.5,771.135363401021
2473.75,770.654338438145
2474,768.439711048584
2474.25,765.988940144109
2474.5,764.999057145913
2474.75,766.314618456224
2475,768.85407830998
2475.25,771.27219641739
2475.5,772.631983385499
2475.75,773.090518601451
2476,772.986235914473
2476.25,772.669177971394
2476.5,772.529184523799
2476.75,772.964616576576
2477,774.210517577941
2477.25,775.764390274445
2477.5,776.915635938967
2477.75,777.120021932245
2478,776.827277982813
2478.25,776.854662757981
2478.5,777.904800740631
2478.75,779.70908370974
2479,781.5119287861
2479.25,782.590413089059
2479.5,782.667519557342
2479.75,781.765636663293
2480,779.93228087859
2480.25,777.618947500317
2480.5,775.656877213901
2480.75,774.871823942472
2481,775.302353226042
2481.25,775.963741439811
2481.5,775.811840982117
2481.75,774.502862306092
2482,772.880917087477
2482.25,771.903103760131
2482.5,772.040119397596
2482.75,772.664558619498
2483,772.998733732535
2483.25,772.604816513918
2483.5,772.031998722202
2483.75,772.007644484976
2484,773.0791301126
2484.25,775.107309797674
2484.5,777.789379899912
2484.75,780.790739912097
2485,783.618777998402
2485.25,785.731892517863
2485.5,786.698791835845
2485.75,786.863153231737
2486,786.900794930304
2486.25,787.414302304413
2486.5,788.156562950124
2486.75,788.339944318198
2487,787.210534734409
2487.25,784.887863512657
2487.5,782.311951391182
2487.75,780.441099210937
2488,779.609948640894
2488.25,779.280871078268
2488.5,778.853446572283
2488.75,777.998737875972
2489,776.917934077584
2489.25,775.873491854167
2489.5,775.101250355808
2489.75,774.764996246235
2490,775.016440394861
2490.25,775.858897395817
2490.5,776.750017497313
2490.75,777.02206221405
2491,776.217378653869
2491.25,774.921582985284
2491.5,774.043525327112
2491.75,774.338087125359
2492,775.49235824938
2492.25,776.741225858354
2492.5,777.400643745929
2492.75,777.571839368458
2493,777.789948993557
2493.25,778.558264804332
2493.5,779.868704209479
2493.75,781.33597710686
2494,782.566925006788
2494.25,783.189367899094
2494.5,782.85187415949
2494.75,781.216012452915
2495,778.487819504883
2495.25,775.626315065485
2495.5,773.641172949121
2495.75,772.982764228053
2496,773.01008204333
2496.25,772.956724265102
2496.5,772.363392953058
2496.75,771.555071901321
2497,770.980111349963
2497.25,770.915108283469
2497.5,771.063019034838
2497.75,771.007182352756
2498,770.45768791432
2498.25,769.668885746841
2498.5,769.04117952088
2498.75,768.884065596794
2499,769.003779268701
2499.25,769.033381835231
2499.5,768.698585982205
2499.75,768.375974657749
2500,768.720677386479
2500.25,770.303316532078
2500.5,772.925613301951
2500.75,775.982891959039
2501,778.882494598792
2501.25,781.21575917868
2501.5,782.693424190501
2501.75,783.04164850097
2502,782.226153737537
2502.25,780.419358183081
2502.5,777.807770946606
2502.75,774.824832241436
2503,772.204731851806
2503.25,770.693212503728
2503.5,770.555305728278
2503.75,771.259806079594
2504,772.201527481698
2504.25,772.911062596028
2504.5,773.201858669853
2504.75,772.923108843516
2505,772.155532639252
2505.25,771.598367347746
2505.5,772.053003104265
2505.75,773.974377554472
2506,776.605028054385
2506.25,778.922437095827
2506.5,780.146268740536
2506.75,780.599492680426
2507,780.919096457822
2507.25,781.665744654625
2507.5,782.904180646357
2507.75,784.501050330126
2508,786.32427705337
2508.25,788.259286078292
2508.5,790.20137057974
2508.75,792.023984152552
2509,793.239908039388
2509.25,793.06681196386
2509.5,790.743634253751
2509.75,786.589846833286
2510,782.282127202931
2510.25,779.576689378116
2510.5,779.383255070187
2510.75,780.944002449048
2511,783.306406135467
2511.25,785.671936892155
2511.5,787.667692420235
2511.75,788.993687595227
2512,789.462693905879
2512.25,789.348234987009
2512.5,789.041506134211
2512.75,788.847605985302
2513,788.505672663958
2513.25,787.526308928356
2513.5,785.507744119295
2513.75,783.022864400808
2514,781.249787037172
2514.25,781.316174569594
2514.5,783.171232852705
2514.75,785.682878928455
2515,787.7008519202
2515.25,788.881795541481
2515.5,789.906024433773
2515.75,791.514545114449
2516,793.871025160436
2516.25,796.051255491974
2516.5,797.010884816229
2516.75,796.150609559716
2517,794.204945155984
2517.25,792.157228450925
2517.5,790.784312046149
2517.75,789.776741721539
2518,788.469088790847
2518.25,786.316345047168
2518.5,783.855087516536
2518.75,782.192516474128
2519,782.366027253999
2519.25,784.24196438321
2519.5,786.759115064577
2519.75,788.850405315141
2520,789.992498596585
2520.25,790.263770604027
2520.5,789.775498224568
2520.75,788.762183205515
2521,787.662083619698
2521.25,786.932189064263
2521.5,786.858952197878
2521.75,787.289455701271
2522,788.000986034674
2522.25,788.81634555621
2522.5,789.73970908602
2522.75,790.820422432755
2523,792.104873300231
2523.25,793.620742808416
2523.5,795.388420779831
2523.75,797.38990415625
2524,799.189974553907
2524.25,800.097362923358
2524.5,799.45083027774
2524.75,797.360354841556
2525,794.704409565699
2525.25,792.390455853764
2525.5,791.003688303829
2525.75,790.585074103035
2526,791.122811148502
2526.25,792.401920933314
2526.5,793.653222564607
2526.75,794.01391509266
2527,792.901434616394
2527.25,790.976699086067
2527.5,789.245406528654
2527.75,788.58707460309
2528,788.916392629146
2528.25,789.702689203334
2528.5,790.434773172887
2528.75,790.888957825045
2529,791.044146296712
2529.25,790.894364541502
2529.5,790.718154186292
2529.75,791.098916204634
2530,792.626858751766
2530.25,795.307402945579
2530.5,798.179918825806
2530.75,800.194157052742
2531,800.749537694021
2531.25,800.42972654015
2531.5,800.011041670054
2531.75,800.055749302382
2532,800.10566592398
2532.25,799.398851145115
2532.5,797.292313647716
2532.75,794.208171971677
2533,791.129665763092
2533.25,789.016885498628
2533.5,788.302201037108
2533.75,788.949577301793
2534,790.894426625438
2534.25,793.551460762186
2534.5,795.633028045479
2534.75,795.807475802513
2535,793.624167530329
2535.25,790.462021619166
2535.5,787.927670536927
2535.75,787.174700251131
2536,787.757546453918
2536.25,788.877983999805
2536.5,789.838174705033
2536.75,790.500457525997
2537,790.921399668654
2537.25,791.203769046146
2537.5,791.873156261887
2537.75,793.682719189483
2538,797.316119755952
2538.25,802.244946364093
2538.5,806.930891295154
2538.75,809.82896033233
2539,810.391515811137
2539.25,809.401503409009
2539.5,807.734007477986
2539.75,806.099382882847
2540,804.78921967201
2540.25,804.029548050627
2540.5,803.922911415101
2540.75,803.947059399342
2541,803.382602651239
2541.25,801.623437235814
2541.5,799.20962455871
2541.75,797.346582280627
2542,797.198766881155
2542.25,798.767686624075
2542.5,800.873564282227
2542.75,802.291587313082
2543,802.370751496428
2543.25,801.417011255985
2543.5,799.827129173555
2543.75,798.072811001016
2544,796.849713008299
2544.25,796.895142002551
2544.5,798.696668084508
2544.75,801.383197981029
2545,803.623825999562
2545.25,804.241675424642
2545.5,803.598615169137
2545.75,802.939799084162
2546,803.472305069493
2546.25,805.254615502552
2546.5,807.178956425116
2546.75,808.091645221443
2547,807.396022367628
2547.25,805.486264140748
2547.5,802.858637933966
2547.75,799.993843588279
2548,797.318996682511
2548.25,795.249692499905
2548.5,794.16313920651
2548.75,794.185250143138
2549,795.340847141422
2549.25,797.611891261735
2549.5,800.46989829435
2549.75,803.049603478804
2550,804.500822493142
2550.25,804.521065390284
2550.5,803.39352399738
2550.75,801.431725463447
2551,799.137619885878
2551.25,797.370840053092
2551.5,797.030931921079
2551.75,798.54456885031
2552,800.711490663392
2552.25,801.981812082345
2552.5,801.18178710423
2552.75,799.421472809101
2553,798.668236236208
2553.25,800.681938068245
2553.5,804.681126641543
2553.75,808.190356604165
2554,808.775988480848
2554.25,806.051110136784
2554.5,801.909995208255
2554.75,798.361819527569
2555,796.646498553177
2555.25,796.391950895966
2555.5,797.023285656202
2555.75,798.021016967553
2556,799.07035160965
2556.25,799.903756325617
2556.5,800.260579366105
2556.75,799.925175836446
2557,798.699991048961
2557.25,796.450047822164
2557.5,793.846713468303
2557.75,792.12197187957
2558,792.473612410292
2558.25,794.734077990512
2558.5,797.166180935662
2558.75,797.958217577787
2559,796.421590124981
2559.25,793.884876010404
2559.5,791.886791022354
2559.75,791.462192900028
2560,792.08900130483
2560.25,792.945342070122
2560.5,793.394897972317
2560.75,793.749525201438
2561,794.62314439021
2561.25,796.499868639501
2561.5,798.720394803448
2561.75,800.031345455809
2562,799.256217983289
2562.25,796.621994192926
2562.5,793.534606895677
2562.75,791.422450082128
2563,791.038275615653
2563.25,792.176695858692
2563.5,794.55796133856
2563.75,797.570322821051
2564,799.858800576216
2564.25,799.967470632424
2564.5,797.120426963822
2564.75,793.081878986907
2565,790.209015462622
2565.25,790.463409749659
2565.5,793.088233904417
2565.75,796.184255008959
2566,797.984040667456
2566.25,798.32005420368
2566.5,798.067412235293
2566.75,798.099697569492
2567,798.787319482639
2567.25,799.963483498795
2567.5,801.435458549232
2567.75,803.034256266027
2568,804.63303407224
2568.25,806.109286648268
2568.5,807.356080676752
2568.75,808.315701368326
2569,808.940134563269
2569.25,809.182636319439
2569.5,809.004353782794
2569.75,808.36945986244
2570,807.258209559722
2570.25,805.874158665299
2570.5,804.584347713102
2570.75,803.752281273918
2571,803.435447702647
2571.25,803.280032843921
2571.5,802.903840643462
2571.75,802.094745317741
2572,801.052303924303
2572.25,800.037141417057
2572.5,799.28124826489
2572.75,798.88711954543
2573,798.920661349902
2573.25,799.404792939124
2573.5,799.999520880633
2573.75,800.182638893009
2574,799.47372509828
2574.25,798.142572587772
2574.5,797.095062980827
2574.75,797.241989067872
2575,798.750090448653
2575.25,800.720962828326
2575.5,802.175728001846
2575.75,802.603325138661
2576,802.61187789518
2576.25,802.973366922639
2576.5,804.190198904842
2576.75,805.575177292276
2577,806.113064206183
2577.25,804.942005867196
2577.5,802.511884184481
2577.75,799.938207839205
2578,798.303255508086
2578.25,797.922731495025
2578.5,798.405949691981
2578.75,799.337306353144
2579,800.387896921819
2579.25,801.36247409995
2579.5,802.07722732865
2579.75,802.361266548412
2580,802.077944804733
2580.25,801.096223892187
2580.5,799.447440026765
2580.75,797.961233923917
2581,797.712172837164
2581.25,799.590762373816
2581.5,802.758423757918
2581.75,805.429656793288
2582,805.893785209198
2582.25,804.094586338744
2582.5,801.483976009149
2582.75,799.560054142001
2583,799.186580441727
2583.25,800.184885486431
2583.5,802.279175965202
2583.75,805.038423727227
2584,807.585625691542
2584.25,808.964184192538
2584.5,808.416745806326
2584.75,806.251952149579
2585,803.133468799172
2585.25,799.722659090709
2585.5,796.651407585076
2585.75,794.53262767304
2586,793.953956323136
2586.25,794.803435743074
2586.5,796.191779738825
2586.75,797.193189055944
2587,797.241006257401
2587.25,796.404858279092
2587.5,794.819718833192
2587.75,792.797972433221
2588,791.185854023862
2588.25,790.929605391409
2588.5,792.687607792305
2588.75,795.634013826997
2589,798.465990336322
2589.25,800.007417906125
2589.5,800.180590523207
2589.75,799.470658854412
2590,798.376790177277
2590.25,797.567551580773
2590.5,797.857951459924
2590.75,800.046464589482
2591,803.864192726997
2591.25,807.500374869962
2591.5,809.02653985126
2591.75,807.431146422957
2592,803.968526509556
2592.25,800.236892323042
2592.5,797.596099556278
2592.75,796.221460594516
2593,795.921015685294
2593.25,796.485196418052
2593.5,797.540375640702
2593.75,798.623189066146
2594,799.292123152783
2594.25,799.535228982362
2594.5,799.723590293528
2594.75,800.234065277808
2595,801.029600733965
2595.25,801.456105998592
2595.5,800.810181209515
2595.75,798.852578730386
2596,796.544196207863
2596.25,795.037326875661
2596.5,795.237348127276
2596.75,796.880988343713
2597,799.359570869573
2597.25,802.066640838397
2597.5,804.41462900806
2597.75,805.825321310489
2598,805.765054681322
2598.25,804.47058095656
2598.5,802.830351553197
2598.75,801.743854332926
2599,801.567636282487
2599.25,801.831752117116
2599.5,801.997230504992
2599.75,801.736280056008
2600,801.292636815893
2600.25,801.005776372511
2600.5,801.134575523119
2600.75,801.532846621053
2601,801.92742792439
2601.25,802.074945016279
2601.5,802.019201463719
2601.75,801.964408473531
2602,802.10772069623
2602.25,802.454919806647
2602.5,802.826419948403
2602.75,803.035050696474
2603,802.895139049175
2603.25,802.223521315069
2603.5,800.837441521569
2603.75,798.832481135152
2604,797.150188405872
2604.25,796.892241232459
2604.5,798.836865768055
2604.75,801.949137811484
2605,804.562739542253
2605.25,805.191782334412
2605.5,804.217474700064
2605.75,803.121502199315
2606,803.348929190974
2606.25,805.061096686127
2606.5,807.068163883507
2606.75,808.121479423
2607,807.530649259141
2607.25,805.636251238428
2607.5,802.890207935393
2607.75,799.754764688273
2608,796.729189072664
2608.25,794.321045317162
2608.5,792.961716606707
2608.75,792.561762954271
2609,792.81385829065
2609.25,793.415253178318
2609.5,794.12920831087
2609.75,794.763685066483
2610,795.133361036162
2610.25,795.204068699467
2610.5,795.102345926918
2610.75,794.962050811117
2611,794.880249486068
2611.25,794.891059159374
2611.5,795.022451690706
2611.75,795.325292777274
2612,795.915263249427
2612.25,796.91943439988
2612.5,798.424699939464
2612.75,800.323493452285
2613,802.449495869152
2613.25,804.620833606555
2613.5,806.519742046337
2613.75,807.758224495049
2614,807.969646277209
2614.25,807.214881498876
2614.5,805.943302844832
2614.75,804.615201257103
2615,803.451863339558
2615.25,802.274542230038
2615.5,800.866455514764
2615.75,799.180718516286
2616,797.69842485902
2616.25,797.002929765074
2616.5,797.53720893022
2616.75,798.938859881408
2617,800.558792142111
2617.25,801.782680840922
2617.5,802.368006330742
2617.75,802.29590120755
2618,801.557657303027
2618.25,800.316705706552
2618.5,798.913714361954
2618.75,797.69714772037
2619,796.986355656743
2619.25,797.048710512013
2619.5,798.146075321635
2619.75,800.303489905862
2620,802.818961615904
2620.25,804.851446280657
2620.5,805.723775414661
2620.75,805.653571853033
2621,805.162337493383
2621.25,804.727299274483
2621.5,804.326911419058
2621.75,803.626554770274
2622,802.296833883954
2622.25,800.294281083391
2622.5,797.895349351293
2622.75,795.394638550731
2623,793.246776741898
2623.25,792.221499627183
2623.5,793.125262513548
2623.75,796.276115291854
2624,800.364157271974
2624.25,803.740716072743
2624.5,805.057496517763
2624.75,804.646194631379
2625,803.422270863617
2625.25,802.254399090868
2625.5,801.473194472479
2625.75,801.068038400224
2626,801.024026855522
2626.25,801.358034465163
2626.5,802.122109323041
2626.75,803.369402134257
2627,805.071691629348
2627.25,807.045784456958
2627.5,809.091102929009
2627.75,811.014711593565
2628,812.650378006685
2628.25,813.837698547026
2628.5,814.442942732457
2628.75,814.523791156502
2629,814.22152715795
2629.25,813.667429338509
2629.5,812.805045560964
2629.75,811.414550520216
2630,809.274960910441
2630.25,806.50511819368
2630.5,803.804167730336
2630.75,801.927967645552
2631,801.385657748241
2631.25,801.854853660758
2631.5,802.838173285019
2631.75,803.867921200454
2632,804.664123070964
2632.25,805.019968371549
2632.5,804.748018594911
2632.75,803.909648199504
2633,802.739779745191
2633.25,801.47362643813
2633.5,800.232210559511
2633.75,798.994837450235
2634,797.732960916089
2634.25,796.60324224033
2634.5,796.16483104075
2634.75,797.029709218693
2635,799.538042750207
2635.25,802.998129326273
2635.5,806.473449690811
2635.75,809.13264294624
2636,810.852003850227
2636.25,811.799699360305
2636.5,812.14217975565
2636.75,812.006767209645
2637,811.490781399973
2637.25,810.691208717712
2637.5,809.7275353061
2637.75,808.75229555353
2638,807.920626329505
2638.25,807.349234648297
2638.5,807.043781888876
2638.75,806.989989909254
2639,807.124183342529
2639.25,807.096512786675
2639.5,806.45431966488
2639.75,804.816336906173
2640,802.68641744894
2640.25,801.166004355287
2640.5,801.334307086321
2640.75,803.147247297308
2641,805.196590653304
2641.25,805.996480470817
2641.5,804.809179536543
2641.75,802.46813817923
2642,800.005000080498
2642.25,798.289781531427
2642.5,797.54152385606
2642.75,797.815400585749
2643,799.118078480276
2643.25,801.095110434393
2643.5,803.229166695486
2643.75,805.014309870995
2644,806.122798783455
2644.25,806.362001997853
2644.5,805.550048557266
2644.75,803.81097113356
2645,801.677007444338
2645.25,799.708304773035
2645.5,798.297279588638
2645.75,797.424198674919
2646,797.007168334956
2646.25,796.914352459997
2646.5,796.792580980403
2646.75,796.227389745134
2647,794.900986949937
2647.25,793.263075960738
2647.5,792.129250044124
2647.75,792.253978141548
2648,793.420207822606
2648.25,794.650938510105
2648.5,794.975878145895
2648.75,794.328650192274
2649,793.739770580184
2649.25,794.300666858032
2649.5,796.4597233356
2649.75,799.40253292194
2650,802.167704444254
2650.25,804.016238260047
2650.5,804.930941961288
2650.75,805.040807315305
2651,804.528426014011
2651.25,803.902192679637
2651.5,803.792930054812
2651.75,804.758383526072
2652,806.423384295059
2652.25,807.770134305262
2652.5,807.793922040425
2652.75,806.35366099122
2653,804.355858728627
2653.25,802.768198296333
2653.5,802.138532288768
2653.75,802.062428138476
2654,802.004151862292
2654.25,801.526200733966
2654.5,800.605616453729
2654.75,799.328775778146
2655,797.804151484683
2655.25,796.317766530344
2655.5,795.241162402417
2655.75,794.931296221584
2656,795.497935334066
2656.25,796.849350302143
2656.5,798.881337916496
2656.75,801.230449547577
2657,803.194902510543
2657.25,804.052880568061
2657.5,803.618834242267
2657.75,802.882885213802
2658,802.99105506713
2658.25,804.630850778721
2658.5,806.601547816058
2658.75,807.216422856677
2659,805.077306714939
2659.25,801.073539244959
2659.5,797.183646868443
2659.75,795.287512845146
2660,795.33213668379
2660.25,795.569741199417
2660.5,794.223967957457
2660.75,790.899392988518
2661,787.160917036605
2661.25,784.719581835691
2661.5,784.509112116807
2661.75,785.661418641926
2662,787.053818881373
2662.25,787.829631976327
2662.5,788.058095066875
2662.75,788.00978287242
2663,787.880781438795
2663.25,787.462402725525
2663.5,786.409124091137
2663.75,784.463094233942
2664,782.139441583331
2664.25,780.35513525982
2664.5,779.974308928896
2664.75,781.027475804025
2665,782.907688668166
2665.25,784.999768996902
2665.5,786.886581271325
2665.75,788.358251493203
2666,789.21783565337
2666.25,789.441244215203
2666.5,789.263007779386
2666.75,788.938716828448
2667,788.691844472504
2667.25,788.672292420051
2667.5,789.01969895543
2667.75,789.732863079449
2668,790.302773372535
2668.25,790.106007487307
2668.5,788.704768491623
2668.75,786.733043342596
2669,785.20864529339
2669.25,785.038427111712
2669.5,786.050891072834
2669.75,787.469775981462
2670,788.537045925727
2670.25,788.90064201132
2670.5,788.538980520213
2670.75,787.450986685098
2671,785.999383633082
2671.25,784.987408569649
2671.5,785.237709822477
2671.75,786.900986061886
2672,788.908431820143
2672.25,790.063290482736
2672.5,789.714317272773
2672.75,788.675196609584
2673,788.002977558059
2673.25,788.506011520101
2673.5,789.919875719363
2673.75,791.690953530258
2674,793.264871181992
2674.25,794.08208200583
2674.5,793.580865562637
2674.75,791.295082743264
2675,787.918595123477
2675.25,784.917485332398
2675.5,783.717593696794
2675.75,784.391640852593
2676,785.597642647709
2676.25,785.942878023476
2676.5,784.896630407168
2676.75,783.216590338377
2677,781.764526441942
2677.25,781.124765546057
2677.5,781.2678024652
2677.75,782.081837778547
2678,783.351532022304
2678.25,784.530447163395
2678.5,785.006101931435
2678.75,784.39318285213
2679,783.37174176835
2679.25,782.933873888854
2679.5,783.894856330026
2679.75,785.792207032889
2680,787.602027546004
2680.25,788.399889955006
2680.5,788.410202829082
2680.75,788.582004570881
2681,789.826772292095
2681.25,792.044356975982
2681.5,794.182260314675
2681.75,795.164432548174
2682,794.557553447021
2682.25,792.838801309341
2682.5,790.55470306299
2682.75,788.315716048
2683,786.880159779695
2683.25,787.027190825765
2683.5,789.080508509449
2683.75,791.664553782135
2684,793.007559968511
2684.25,791.7896819479
2684.5,789.328025469549
2684.75,787.893440810476
2685,789.486136454037
2685.25,793.330875729015
2685.5,797.02953206821
2685.75,798.277704745947
2686,796.857489215338
2686.25,794.375853581843
2686.5,792.485539882184
2686.75,792.049522608574
2687,792.788535529944
2687.25,794.334224087962
2687.5,796.364155045171
2687.75,798.662052234275
2688,801.026594751246
2688.25,803.203315445178
2688.5,804.732312655158
2688.75,805.104053978667
2689,803.939273340166
2689.25,801.798794711859
2689.5,799.656086966694
2689.75,798.430083821092
2690,798.153989326142
2690.25,798.156333108016
2690.5,797.758107256137
2690.75,796.769446716031
2691,795.650290237731
2691.25,794.904277537433
2691.5,794.778067057253
2691.75,794.944194176234
2692,794.997393866544
2692.25,794.636544086405
2692.5,793.953370497351
2692.75,793.132213764117
2693,792.324684437874
2693.25,791.469031763075
2693.5,790.418001709797
2693.75,789.060920984567
2694,787.713554756395
2694.25,786.966095007748
2694.5,787.384943884036
2694.75,788.907658639902
2695,790.85536483729
2695.25,792.528209242163
2695.5,793.469991690689
2695.75,793.57660503009
2696,792.772042553765
2696.25,791.125818172797
2696.5,789.039777381339
2696.75,786.96194266882
2697,785.256715829443
2697.25,783.973231011205
2697.5,783.086336270107
2697.75,782.557018906375
2698,782.264511433386
2698.25,782.058175761488
2698.5,781.813949756841
2698.75,781.647530206549
2699,781.801568639762
2699.25,782.486598657512
2699.5,783.437818750639
2699.75,784.035727639962
2700,783.67374949617
2700.25,782.277568391265
2700.5,780.328039201735
2700.75,778.332352124616
2701,776.815350588728
2701.25,776.328200135778
2701.5,777.42030253733
2701.75,780.070487822036
2702,783.092778188036
2702.25,785.159892691702
2702.5,785.53054952857
2702.75,785.087455346252
2703,784.992329570628
2703.25,786.097067208198
2703.5,787.953169419077
2703.75,789.77101932592
2704,790.827440577348
2704.25,790.826444414487
2704.5,789.641094735309
2704.75,787.220830484565
2705,784.344697583325
2705.25,782.30267181419
2705.5,782.325294441348
2705.75,784.289142761337
2706,786.812384691045
2706.25,788.488247629621
2706.5,788.797393031566
2706.75,788.373054126588
2707,787.922506007622
2707.25,787.787718462495
2707.5,787.597484641915
2707.75,786.898285047116
2708,785.451634488763
2708.25,783.665264499616
2708.5,782.067798346491
2708.75,781.123547781214
2709,780.996225100128
2709.25,781.761787780533
2709.5,783.431047941313
2709.75,785.563461252123
2710,787.527365411031
2710.25,788.741852429458
2710.5,789.171771355281
2710.75,789.110756624146
2711,788.849686399382
2711.25,788.539902315361
2711.5,788.20712478237
2711.75,787.870571363108
2712,787.463208950998
2712.25,786.801223788227
2712.5,785.694063616037
2712.75,784.178028516317
2713,782.752011111946
2713.25,781.971140453088
2713.5,782.168355361879
2713.75,782.993415061772
2714,783.96520258873
2714.25,784.645080718319
2714.5,784.785804264472
2714.75,784.194005837452
2715,782.775140795857
2715.25,781.11039194401
2715.5,780.063681505179
2715.75,780.413113551474
2716,782.003739809807
2716.25,784.112735491214
2716.5,786.034176335896
2716.75,787.486332101285
2717,788.54220714454
2717.25,789.287226041271
2717.5,789.856609881856
2717.75,790.445606044049
2718,791.250710801594
2718.25,792.240892272715
2718.5,792.969612164141
2718.75,792.946199423994
2719,791.80601380791
2719.25,789.549667564206
2719.5,786.243562097209
2719.75,782.103879492911
2720,778.071816524526
2720.25,775.307642103677
2720.5,774.757418695864
2720.75,775.745579743754
2721,776.854532077402
2721.25,776.793376605483
2721.5,775.654112741424
2721.75,774.360940424215
2722,773.814347972808
2722.25,774.356028282329
2722.5,775.879815498216
2722.75,778.252394280975
2723,780.987119171653
2723.25,783.233431581333
2723.5,784.141179005497
2723.75,783.606671627222
2724,782.546463766086
2724.25,781.946866882417
2724.5,782.314302441906
2724.75,783.209611304106
2725,784.083437086168
2725.25,784.70078125289
2725.5,785.716118570339
2725.75,787.940143068252
2726,791.784960870909
2726.25,795.973789730458
2726.5,798.78260639214
2726.75,798.776630728143
2727,796.471442172912
2727.25,793.18849566466
2727.5,790.193380506719
2727.75,787.982033476341
2728,786.507135095011
2728.25,785.708464853485
2728.5,785.48496509784
2728.75,785.690822712419
2729,786.177106249682
2729.25,786.739929944832
2729.5,787.087352204155
2729.75,786.920140705306
2730,786.122056481988
2730.25,785.012536933177
2730.5,783.974461784461
2730.75,783.342545097309
2731,783.2748652746
2731.25,783.889020320284
2731.5,785.233666546902
2731.75,786.97651668707
2732,788.654431532603
2732.25,789.850535888128
2732.5,790.542316260141
2732.75,790.90642191853
2733,791.119486796726
2733.25,791.335069984115
2733.5,791.689017238119
2733.75,792.307494061404
2734,793.025622282953
2734.25,793.335512975298
2734.5,792.713411809801
2734.75,791.023262254836
2735,788.843582675509
2735.25,786.829742440563
2735.5,785.445804315169
2735.75,784.582631181786
2736,784.02418582182
2736.25,783.615832331888
2736.5,783.489053389923
2736.75,783.85860661088
2737,784.88018489495
2737.25,786.290941910824
2737.5,787.64728019542
2737.75,788.538279569331
2738,788.926688964793
2738.25,789.009611056815
2738.5,788.983569758996
2738.75,788.959188451084
2739,788.966670942993
2739.25,789.031911344871
2739.5,789.123776958634
2739.75,789.130803773178
2740,788.936078677711
2740.25,788.530319011558
2740.5,788.135597986785
2740.75,788.003951510866
2741,788.237435442345
2741.25,788.432724231184
2741.5,788.080154523068
2741.75,786.788220379546
2742,784.794093366899
2742.25,782.543211358292
2742.5,780.44000365114
2742.75,778.534850596648
2743,776.697538076679
2743.25,774.829444445936
2743.5,773.279668982331
2743.75,772.719597338362
2744,773.779379069745
2744.25,776.082091811971
2744.5,778.298609863804
2744.75,779.092968336958
2745,778.131948386941
2745.25,776.287856325898
2745.5,774.49849358677
2745.75,773.284471720728
2746,772.484531545529
2746.25,771.875050974218
2746.5,771.342298019012
2746.75,771.008601639255
2747,771.026822405018
2747.25,771.519777084746
2747.5,772.527419781639
2747.75,774.075534724945
2748,776.097784705363
2748.25,778.202518774799
2748.5,779.92631197402
2748.75,780.845314807004
2749,780.722069095674
2749.25,779.373939948355
2749.5,776.710962532469
2749.75,773.274246878661
2750,769.868005791151
2750.25,767.245628144491
2750.5,765.644533622645
2750.75,765.005624616918
2751,765.24624791092
2751.25,766.020864179441
2751.5,766.798803589288
2751.75,767.079173937965
2752,766.920755314582
2752.25,766.8438981445
2752.5,767.359087634388
2752.75,768.447175073948
2753,769.567314015344
2753.25,770.17391260366
2753.5,770.26572909199
2753.75,770.481858025438
2754,771.487547445355
2754.25,773.414957360384
2754.5,775.622159885154
2754.75,777.410483919405
2755,778.477154195044
2755.25,779.239700431879
2755.5,780.191127107147
2755.75,781.521303570682
2756,782.675396432194
2756.25,782.986300732496
2756.5,781.991735307171
2756.75,779.943478619524
2757,777.24881958032
2757.25,774.339572987828
2757.5,771.774688409204
2757.75,770.154184764843
2758,769.955591625889
2758.25,770.768222362142
2758.5,771.789924406793
2758.75,772.291915700214
2759,772.253920716698
2759.25,772.045192510254
2759.5,772.010615773724
2759.75,772.128076935794
2760,772.119951963651
2760.25,771.720997353293
2760.5,770.988771759481
2760.75,770.264080554747
2761,769.889956315913
2761.25,770.005044345391
2761.5,770.52235427871
2761.75,771.344567611556
2762,772.431534472598
2762.25,773.820950178117
2762.5,775.553750949459
2762.75,777.487246531862
2763,779.165936853717
2763.25,780.105099330177
2763.5,780.096318416803
2763.75,779.550797043384
2764,778.963985949636
2764.25,778.623156994994
2764.5,778.156111009248
2764.75,777.060371483391
2765,775.014671604344
2765.25,772.509587176921
2765.5,770.262954606666
2765.75,768.87953968924
2766,768.259997934107
2766.25,768.034431574395
2766.5,767.873268729097
2766.75,767.77535832476
2767,767.897681771958
2767.25,768.362225286446
2767.5,768.92225951412
2767.75,769.114896915489
2768,768.521917618198
2768.25,767.355716275871
2768.5,766.276763073146
2768.75,765.92003082785
2769,766.28802117413
2769.25,766.834491742182
2769.5,767.020898140574
2769.75,766.932169273748
2770,767.29249182005
2770.25,768.830532655785
2770.5,771.434871124907
2770.75,773.965258358354
2771,775.235588530027
2771.25,774.96217765596
2771.5,774.197645430399
2771.75,774.096866533288
2772,775.129096426983
2772.25,776.4338491938
2772.5,776.999273937704
2772.75,776.291938201739
2773,774.992471233381
2773.25,773.971185104673
2773.5,773.881416805183
2773.75,774.621497664559
2774,775.925642165952
2774.25,777.506750430739
2774.5,778.978821319621
2774.75,779.927188622116
2775,780.031677361358
2775.25,779.574698369756
2775.5,779.075342604933
2775.75,778.989705783477
2776,779.175391841125
2776.25,779.161523626586
2776.5,778.529054229033
2776.75,777.651158663321
2777,777.493960265016
2777.25,778.992598121177
2777.5,782.014127833879
2777.75,785.342659288487
2778,787.730508882261
2778.25,788.640794097354
2778.5,788.502979367711
2778.75,787.814245302034
2779,786.876520059807
2779.25,785.596264593913
2779.5,783.832222822161
2779.75,781.608358793535
2780,779.465012737684
2780.25,778.043128668233
2780.5,777.770382877289
2780.75,778.07355934257
2781,778.086075830882
2781.25,777.107228790763
2781.5,775.534089055959
2781.75,774.209630771863
2782,773.867004591974
2782.25,774.17955879458
2782.5,774.232975828588
2782.75,773.18638079096
2783,771.273097947893
2783.25,769.496719242049
2783.5,768.833943812938
2783.75,769.388718618933
2784,770.459917553516
2784.25,771.335033743622
2784.5,771.839778062362
2784.75,772.405220826996
2785,773.489826964994
2785.25,775.327103961387
2785.5,777.835086832018
2785.75,780.905502193679
2786,784.179622032619
2786.25,786.849367003615
2786.5,788.060950075249
2786.75,787.380743105077
2787,785.427665268138
2787.25,782.98279248246
2787.5,780.735018007735
2787.75,779.012250120974
2788,778.054046758823
2788.25,778.009625342375
2788.5,778.50081865986
2788.75,778.958627542225
2789,778.889619175957
2789.25,778.432209152224
2789.5,778.038591552538
2789.75,778.113119915608
2790,778.434399484726
2790.25,778.355797160762
2790.5,777.279329057678
2790.75,775.719842051387
2791,775.207364973897
2791.25,777.271333963055
2791.5,782.155534285137
2791.75,788.532458882653
2792,794.987022930757
2792.25,800.640215529253
2792.5,805.475856673522
2792.75,809.556597789866
2793,813.29641715401
2793.25,818.01954859983
2793.5,825.195709946851
2793.75,835.759393132366
2794,847.848202142286
2794.25,858.689170729521
2794.5,865.686272116068
2794.75,868.822734317118
2795,870.029299309763
2795.25,871.28273950882
2795.5,873.828453928235
2795.75,877.081356424435
2796,880.174639670314
2796.25,882.313141160236
2796.5,883.508704831505
2796.75,884.281799883608
2797,885.160379890926
2797.25,886.468327989721
2797.5,888.007061627339
2797.75,889.495568565134
2798,890.681018239315
2798.25,891.713686520704
2798.5,893.044927483839
2798.75,895.133291246983
2799,898.151055407128
2799.25,901.288915001005
2799.5,903.527350495602
2799.75,903.88907285787
2800,902.511371572142
2800.25,900.732050361288
2800.5,899.948360320232
2800.75,901.267305009743
2801,903.995900407341
2801.25,906.752085830364
2801.5,908.158488002317
2801.75,907.534563985805
2802,905.532478893095
2802.25,902.954675688526
2802.5,900.583655824251
2802.75,898.929776992975
2803,898.306558566848
2803.25,899.023135940032
2803.5,901.179340770009
2803.75,904.076222498838
2804,906.824306018822
2804.25,908.554876018665
2804.5,909.11968857115
2804.75,909.259207596891
2805,909.768769332171
2805.25,911.264407832978
2805.5,912.983545526183
2805.75,913.524151331295
2806,911.482634730224
2806.25,906.360788716347
2806.5,900.002877104256
2806.75,894.626984555272
2807,892.365607796217
2807.25,893.380898353029
2807.5,895.863649403773
2807.75,897.918863562564
2808,898.026865380615
2808.25,896.533361857497
2808.5,894.362480962141
2808.75,892.428582148268
2809,891.060070209941
2809.25,889.68324887602
2809.5,887.647533689103
2809.75,884.405879129931
2810,880.27180137547
2810.25,875.985270527089
2810.5,872.287074092235
2810.75,869.527112391231
2811,867.221139253161
2811.25,864.777703145061
2811.5,861.683798195422
2811.75,858.171887572065
2812,854.886576254573
2812.25,852.473980984121
2812.5,851.291159756149
2812.75,851.160762894784
2813,851.847646672448
2813.25,853.126549485066
2813.5,854.833406322341
2813.75,856.827548550558
2814,858.966486425536
2814.25,861.052143052029
2814.5,862.822782116562
2814.75,864.013175723413
2815,864.434226527458
2815.25,864.187010028381
2815.5,863.44172510867
2815.75,862.36010349888
2816,860.954784244931
2816.25,859.110978062775
2816.5,856.709850497264
2816.75,853.692141657453
2817,850.171439937931
2817.25,846.292503821967
2817.5,842.190165910676
2817.75,837.8893545976
2818,833.346612448707
2818.25,828.519118258552
2818.5,823.492869485955
2818.75,818.572090117466
2819,814.082126392531
2819.25,810.310175183194
2819.5,807.3815198377
2819.75,805.378495863266
2820,804.328411639475
2820.25,803.736216797902
2820.5,802.818315284036
2820.75,800.828656309913
2821,797.935922137739
2821.25,795.213297547929
2821.5,793.761222786177
2821.75,793.781058543903
2822,793.935035454464
2822.25,792.735351990159
2822.5,789.47473474496
2822.75,785.631460734891
2823,783.06343900993
2823.25,783.107730285141
2823.5,784.668609211621
2823.75,785.94063581084
2824,785.363307056402
2824.25,783.0944177284
2824.5,780.027124553895
2824.75,776.999131856584
2825,774.185164235462
2825.25,771.338787855165
2825.5,768.234343855299
2825.75,765.137995386858
2826,762.740283719159
2826.25,761.709142444184
2826.5,761.771820529876
2826.75,761.655439445673
2827,760.069086063887
2827.25,756.726319693519
2827.5,752.551336016499
2827.75,748.529728555731
2828,745.19115966025
2828.25,742.448447442825
2828.5,740.17603893365
2828.75,738.479676911109
2829,737.778008854668
2829.25,738.486545507029
2829.5,740.145606067889
2829.75,741.218568088573
2830,740.168590622853
2830.25,737.226686535943
2830.5,734.542404231986
2830.75,734.269071246267
2831,736.479774536716
2831.25,739.192609756738
2831.5,740.427345703431
2831.75,739.716800190532
2832,737.858248810184
2832.25,735.669184994937
2832.5,733.697757131883
2832.75,732.289486411158
2833,731.741475221371
2833.25,731.834484316222
2833.5,732.010860610707
2833.75,731.744807574485
2834,730.858562755102
2834.25,729.36220884557
2834.5,727.332104346176
2834.75,725.313605177783
2835,724.059450927223
2835.25,724.107263630839
2835.5,724.785621580245
2835.75,725.002731411198
2836,724.032854360084
2836.25,722.647850810918
2836.5,722.001777778995
2836.75,722.767348648889
2837,724.156947164959
2837.25,725.109810800482
2837.5,725.114226372939
2837.75,724.866705750228
2838,725.216412211806
2838.25,726.398261511715
2838.5,727.619781885382
2838.75,728.006024179982
2839,727.260747711348
2839.25,725.829696027646
2839.5,724.199884885777
2839.75,722.683730605684
2840,721.415834675052
2840.25,720.491746540274
2840.5,719.529123338907
2840.75,717.770936328577
2841,714.596306680893
2841.25,710.846705684432
2841.5,708.205454067699
2841.75,708.03237419285
2842,709.522832706143
2842.25,711.008510419606
2842.5,711.240560085725
2842.75,710.611543387503
2843,709.912371566895
2843.25,709.608324747986
2843.5,709.362973779079
2843.75,708.725783021361
2844,707.696401349573
2844.25,706.987675242244
2844.5,707.344856836658
2844.75,708.767937031181
2845,710.490328957601
2845.25,711.776426048615
2845.5,712.673565322275
2845.75,713.741610801237
2846,715.434552857675
2846.25,717.403700463422
2846.5,718.957635701422
2846.75,719.566317109072
2847,719.430583871006
2847.25,718.956436325253
2847.5,718.481598205572
2847.75,718.131938222263
2848,717.991864027826
2848.25,718.051572022731
2848.5,718.096471909276
2848.75,717.88902842923
2849,717.421667378396
2849.25,717.039454169703
2849.5,717.106947778899
2849.75,717.705583296028
2850,718.606898195324
2850.25,719.551685235964
2850.5,720.054343624481
2850.75,719.453798951817
2851,717.229046882165
2851.25,714.245712580964
2851.5,712.141347267453
2851.75,712.284627988586
2852,714.270096684478
2852.25,716.993141789619
2852.5,719.518710736129
2852.75,721.601955747165
2853,723.17186619044
2853.25,724.142299063266
2853.5,724.385846026219
2853.75,723.769827795794
2854,722.394881622509
2854.25,720.830601875909
2854.5,719.695981155352
2854.75,719.227565374105
2855,719.081978854729
2855.25,718.876989311378
2855.5,718.495481564535
2855.75,718.113413058249
2856,717.911511674269
2856.25,717.905779897783
2856.5,717.980528202793
2856.75,718.025632358845
2857,718.022018388674
2857.25,718.002381906744
2857.5,717.995336145705
2857.75,717.999185694235
2858,718.000161125554
2858.25,718.028379929336
2858.5,718.306361599026
2858.75,719.109166119321
2859,720.523562839235
2859.25,722.073090478888
2859.5,723.178456281177
2859.75,723.591419810748
2860,723.758873388913
2860.25,724.211782857585
2860.5,725.25997700019
2860.75,726.867246196486
2861,728.954440484732
2861.25,731.031840318859
2861.5,732.121656524227
2861.75,731.275315631423
2862,728.743543364842
2862.25,725.909974018487
2862.5,724.130704120594
2862.75,723.659448361592
2863,723.887479084093
2863.25,724.211234353067
2863.5,724.324219939358
2863.75,724.098109753464
2864,723.430280045521
2864.25,722.391351122484
2864.5,721.130048256283
2864.75,719.810198651817
2865,718.674797629857
2865.25,717.993332980419
2865.5,717.904255092961
2865.75,718.049279047859
2866,717.953154171142
2866.25,717.477562814026
2866.5,717.360389828355
2866.75,718.472775103062
2867,720.97651234364
2867.25,723.743287687798
2867.5,725.531398469999
2867.75,725.99437552638
2868,725.942461355505
2868.25,726.227085904724
2868.5,726.891185993815
2868.75,727.173555322184
2869,726.34502095626
2869.25,724.681368721284
2869.5,723.235890782467
2869.75,722.938102302971
2870,723.178345746764
2870.25,722.414448645983
2870.5,719.428149003176
2870.75,715.506292701207
2871,713.064362743161
2871.25,713.854252918078
2871.5,716.119633148035
2871.75,716.958381693925
2872,714.533586409407
2872.25,710.590893518591
2872.5,707.623263543738
2872.75,707.020906198472
2873,707.645173358031
2873.25,708.022197447377
2873.5,707.578055594768
2873.75,707.044197628877
2874,707.215136173973
2874.25,708.082399045438
2874.5,708.887745646552
2874.75,708.929845381038
2875,708.396614899181
2875.25,708.002980567351
2875.5,708.309709779099
2875.75,708.899471043754
2876,708.987716738604
2876.25,708.084489161726
2876.5,706.778106590008
2876.75,705.900432184999
2877,705.703030381317
2877.25,705.122177816956
2877.5,702.940544005165
2877.75,699.227678648649
2878,695.860575515621
2878.25,694.754574153693
2878.5,696.0728697297
2878.75,698.458660454041
2879,700.614340435318
2879.25,702.122278733916
2879.5,702.988358150282
2879.75,703.219838389755
2880,702.818303552323
2880.25,701.784239760379
2880.5,700.259307037528
2880.75,698.731378288814
2881,697.736392864327
2881.25,697.606865911743
2881.5,698.38046945415
2881.75,700.053292664941
2882,702.304864708451
2882.25,704.548676941431
2882.5,706.247856146082
2882.75,707.336328621814
2883,707.977050168152
2883.25,708.303640248841
2883.5,708.306518378192
2883.75,707.934630493424
2884,707.159427317834
2884.25,706.015703704596
2884.5,704.550681083803
2884.75,702.929551111592
2885,701.524811435579
2885.25,700.713992650267
2885.5,700.442004559363
2885.75,700.181857190131
2886,699.444733197862
2886.25,698.473527948823
2886.5,697.988205633894
2886.75,698.503053029935
2887,699.235339958894
2887.25,698.916128662965
2887.5,696.861680975268
2887.75,694.286061442727
2888,692.77782561549
2888.25,693.0665791371
2888.5,694.323069285698
2888.75,695.571248437865
2889,696.242152166186
2889.25,696.170909004913
2889.5,695.266127001001
2889.75,693.971973918977
2890,693.029607880629
2890.25,693.036440334043
2890.5,693.883692786359
2890.75,695.25066844377
2891,696.820450692482
2891.25,698.285482442382
2891.5,699.338701189782
2891.75,699.634681058751
2892,698.776414917632
2892.25,696.423974165162
2892.5,693.17914460747
2892.75,690.386092910532
2893,689.239406410308
2893.25,689.675284516254
2893.5,691.064297959848
2893.75,692.740653634027
2894,693.918759764012
2894.25,693.7928198245
2894.5,692.172432960467
2894.75,689.983342014928
2895,688.235961895168
2895.25,687.174138940028
2895.5,686.273263512639
2895.75,685.055589714078
2896,683.759739724487
2896.25,683.000254019192
2896.5,683.168417495644
2896.75,683.746769093406
2897,683.994332114325
2897.25,683.6097573931
2897.5,683.106395073486
2897.75,683.073396025554
2898,683.849190285482
2898.25,685.541065564292
2898.5,688.129363389842
2898.75,690.717779964251
2899,692.016261706954
2899.25,691.185749941326
2899.5,688.922980753033
2899.75,686.24720250899
2900,683.942353346252
2900.25,682.37949831389
2900.5,681.871253616847
2900.75,682.409776243313
2901,683.697973261002
2901.25,685.379582216344
2901.5,686.750536454694
2901.75,686.95590828647
2902,685.604391224871
2902.25,683.787957969391
2902.5,682.880669790173
2902.75,683.409080553157
2903,684.564878546286
2903.25,685.464022611206
2903.5,685.856743153257
2903.75,685.987527454268
2904,686.106315414837
2904.25,686.415811224521
2904.5,687.100555208669
2904.75,688.274346338337
2905,689.847779805645
2905.25,691.694043343934
2905.5,693.6313442366
2905.75,695.399229300729
2906,696.732872592936
2906.25,697.392657724158
2906.5,697.158402098505
2906.75,695.859630324181
2907,693.671972006402
2907.25,690.919571953374
2907.5,688.075021836158
2907.75,686.155595208849
2908,686.293343882701
2908.25,688.494587206307
2908.5,690.6589151466
2908.75,690.565140240111
2909,688.314880444634
2909.25,686.216963627982
2909.5,686.383634803767
2909.75,688.501162999634
2910,691.025753757829
2910.25,692.729100731496
2910.5,693.638762026279
2910.75,694.084530105406
2911,694.275074204404
2911.25,694.182295213917
2911.5,693.754782633425
2911.75,693.049433417766
2912,692.239762243313
2912.25,691.520997381006
2912.5,691.255452862943
2912.75,691.905165504657
2913,693.676763645143
2913.25,695.500390480489
2913.5,695.912029125133
2913.75,694.125895741417
2914,691.052189343886
2914.25,687.852506148221
2914.5,685.268401471725
2914.75,683.459779630419
2915,682.519643685101
2915.25,682.206061459881
2915.5,682.032376138241
2915.75,681.610757363562
2916,681.139530656163
2916.25,681.020796695847
2916.5,681.417515157081
2916.75,681.894406145482
2917,681.934614512718
2917.25,681.350213484754
2917.5,680.342179429513
2917.75,679.151547150979
2918,678.196095041397
2918.25,677.995669971236
2918.5,678.9049966281
2918.75,680.588809518313
2919,682.534872814935
2919.25,684.410333688386
2919.5,686.206877828783
2919.75,687.952520242899
2920,689.715480090729
2920.25,691.599448485215
2920.5,693.662822024038
2920.75,695.620245108486
2921,697.03229111878
2921.25,697.484687379684
2921.5,696.65721192252
2921.75,694.256382595036
2922,690.680096730029
2922.25,687.691166233467
2922.5,687.145756874582
2922.75,689.075137816929
2923,691.506314942069
2923.25,692.546948239714
2923.5,692.093525172839
2923.75,691.052869992245
2924,690.186335454641
2924.25,689.521869535703
2924.5,688.873595892353
2924.75,688.135705996253
2925,687.389237256302
2925.25,686.737213171332
2925.5,686.130086093104
2925.75,685.334245911522
2926,684.163780833595
2926.25,683.082421106286
2926.5,682.958110965677
2926.75,684.376874667068
2927,686.545888068909
2927.25,688.262635778937
2927.5,688.793295012687
2927.75,688.426046654307
2928,687.587633760882
2928.25,686.816130376911
2928.5,686.774399964153
2928.75,687.979301597797
2929,689.395675773011
2929.25,689.083332039053
2929.5,685.700480341394
2929.75,680.685896901197
2930,676.267118756392
2930.25,673.938605441487
2930.5,673.5607186001
2930.75,674.746930075258
2931,676.489870726975
2931.25,677.148864665586
2931.5,675.376906145124
2931.75,672.235939750229
2932,669.878114563065
2932.25,669.673089148754
2932.5,670.568646069906
2932.75,671.071503186992
2933,670.530737311299
2933.25,669.365622952088
2933.5,668.064847125137
2933.75,667.119553177773
2934,667.022220257673
2934.25,668.060123242794
2934.5,669.810566161953
2934.75,671.701934074054
2935,673.359807017741
2935.25,674.679419135839
2935.5,675.562509318891
2935.75,675.775597828543
2936,675.004688350629
2936.25,673.059318691204
2936.5,670.252585524996
2936.75,667.024440809557
2937,663.788320456327
2937.25,660.912299801929
2937.5,658.745434527812
2937.75,657.438650489882
2938,656.999944097747
2938.25,657.325986293377
2938.5,657.860408500161
2938.75,657.938799515106
2939,657.435248143447
2939.25,657.008217680711
2939.5,657.296862351868
2939.75,658.170364424795
2940,659.073131171121
2940.25,659.539334863233
2940.5,659.385801066933
2940.75,658.496561108663
2941,657.157560570809
2941.25,656.100013179129
2941.5,655.983446072656
2941.75,656.819856509186
2942,658.349981692812
2942.25,660.186079887807
2942.5,661.656420399941
2942.75,662.097167801457
2943,661.629311548821
2943.25,661.02952447944
2943.5,660.87971679456
2943.75,660.67089671118
2944,659.556443261677
2944.25,657.41354605902
2944.5,655.425863520949
2944.75,654.807094429685
2945,655.381816947076
2945.25,656.004530290553
2945.5,655.833577377053
2945.75,655.257961444564
2946,654.949882752269
2946.25,655.20697251414
2946.5,655.831160101623
2946.75,656.575860056051
2947,657.077892793109
2947.25,656.918467278815
2947.5,656.012975090839
2947.75,655.139344102164
2948,655.17713942835
2948.25,656.264983940766
2948.5,657.840093518915
2948.75,659.357004237057
2949,660.512291851761
2949.25,661.087111181946
2949.5,661.202747905213
2949.75,661.607380702848
2950,663.02607448471
2950.25,664.953450866019
2950.5,665.997582570449
2950.75,665.166116655357
2951,663.262427254474
2951.25,661.559674054714
2951.5,660.561706907598
2951.75,659.513656526128
2952,657.631175639111
2952.25,655.146058370641
2952.5,652.948304766224
2952.75,651.696134992474
2953,651.157665962019
2953.25,650.908764900229
2953.5,650.93394105337
2953.75,651.725070676512
2954,653.671219282231
2954.25,656.208904562758
2954.5,658.36567239065
2954.75,659.637426286863
2955,660.553338534813
2955.25,661.737392160796
2955.5,663.102630353973
2955.75,663.975044107766
2956,663.863775055572
2956.25,663.271218773672
2956.5,663.003750998187
2956.75,663.608530693519
2957,665.16023641801
2957.25,667.683895600906
2957.5,671.211801681005
2957.75,675.781535232437
2958,681.29763630873
2958.25,687.059280292539
2958.5,692.197143541985
2958.75,696.244305084034
2959,699.508116319522
2959.25,702.401259019029
2959.5,705.756675323708
2959.75,710.839313655677
2960,718.740558354388
2960.25,728.451375890793
2960.5,737.674139215255
2960.75,744.476445689148
2961,749.476843690483
2961.25,754.334071101759
2961.5,760.410462961064
2961.75,767.333071147801
2962,774.105407366864
2962.25,779.856245932407
2962.5,784.491458281844
2962.75,788.212725134309
2963,791.239613887086
2963.25,793.938596403377
2963.5,796.750226124832
2963.75,800.085181143892
2964,803.901500364219
2964.25,807.810243177805
2964.5,811.41668829383
2964.75,814.438601134579
2965,816.73621871348
2965.25,818.179526273011
2965.5,818.827973962515
2965.75,819.201519832074
2966,819.888742804931
2966.25,821.245260205133
2966.5,822.35772824541
2966.75,821.882842311675
2967,818.591054712762
2967.25,812.845821335269
2967.5,806.180946847226
2967.75,800.144292120076
2968,795.506788894904
2968.25,791.836465831351
2968.5,788.598099167527
2968.75,785.304235929377
2969,781.599104918174
2969.25,777.149430472452
2969.5,771.815022200631
2969.75,766.301292559941
2970,761.545074778885
2970.25,758.251280431654
2970.5,755.714222052642
2970.75,752.697850736462
2971,748.174841273901
2971.25,742.581629346663
2971.5,736.978545244173
2971.75,732.258858654494
2972,728.103053508722
2972.25,723.662938180108
2972.5,718.254121521646
2972.75,712.189098406893
2973,706.15079028852
2973.25,700.69348296638
2973.5,695.812407185604
2973.75,691.352070213851
2974,687.332687123902
2974.25,684.226220049173
2974.5,682.561100829867
2974.75,682.209904388464
2975,682.151829034848
2975.25,681.365757532992
2975.5,679.618208408731
2975.75,677.206897976326
2976,674.495659579253
2976.25,672.132424709568
2976.5,670.850647764849
2976.75,670.65418578082
2977,669.981782843841
2977.25,667.162824145531
2977.5,662.391394654234
2977.75,657.585430665918
2978,654.398497709836
2978.25,652.433687412162
2978.5,650.509713914607
2978.75,648.042614017929
2979,645.690839542281
2979.25,644.207364878517
2979.5,643.522748087043
2979.75,642.970404590167
2980,641.964828336027
2980.25,640.25364606643
2980.5,637.685174055104
2980.75,634.833483587929
2981,633.057047112914
2981.25,633.25042534394
2981.5,633.703122286227
2981.75,631.911299813967
2982,627.425950239931
2982.25,622.595641220954
2982.5,619.645834793299
2982.75,618.762564727571
2983,619.334145197971
2983.25,620.498059625849
2983.5,621.034390394894
2983.75,619.942682317073
2984,617.615962735132
2984.25,614.930699586447
2984.5,612.587143047412
2984.75,611.057373558357
2985,610.582560170473
2985.25,610.364961592991
2985.5,609.339643840821
2985.75,607.505420879583
2986,605.940515248163
2986.25,605.453961394534
2986.5,605.776032735012
2986.75,606.430208785504
2987,607.23522019646
2987.25,608.219400163075
2987.5,609.389207816742
2987.75,610.693375905876
2988,612.060774593002
2988.25,613.322237737079
2988.5,614.258501511043
2988.75,614.471261842594
2989,613.283076602604
2989.25,610.317757786157
2989.5,607.102695192707
2989.75,605.796116564533
2990,606.538860533013
2990.25,607.00071844377
2990.5,605.487285767212
2990.75,603.463958496263
2991,603.059362684695
2991.25,604.209712987295
2991.5,605.029947997417
2991.75,604.287690438812
2992,602.526601598424
2992.25,600.533478891603
2992.5,598.816272850161
2992.75,597.729425361009
2993,597.295923457178
2993.25,597.023467929776
2993.5,596.516416424709
2993.75,596.059255053563
2994,596.124532081283
2994.25,596.88875342661
2994.5,598.268693194004
2994.75,600.047530976165
2995,601.702530133924
2995.25,602.755998251412
2995.5,603.460490089087
2995.75,604.4101468399
2996,605.744190824964
2996.25,606.953566110424
2996.5,607.490523936366
2996.75,606.856350472317
2997,604.627645729891
2997.25,601.646625707478
2997.5,599.947221950868
2997.75,600.629618218995
2998,601.871642791646
2998.25,601.543587764115
2998.5,599.947839339711
2998.75,598.813631589713
2999,598.861415887881
2999.25,599.026492776545
2999.5,598.337332226658
2999.75,597.314722322493
3000,596.944293757536
3000.25,597.174073040849
3000.5,596.911729349206
3000.75,595.579155698493
3001,594.208941832674
3001.25,593.971868900972
3001.5,594.610523802618
3001.75,595.084761448685
3002,594.835130843532
3002.25,594.033177362425
3002.5,593.029621626845
3002.75,592.702306978722
3003,593.982937416855
3003.25,596.382770326952
3003.5,598.296709205452
3003.75,598.619113450396
3004,597.365095519493
3004.25,594.772992362688
3004.5,591.627917476814
3004.75,588.930529286078
3005,587.323538335552
3005.25,587.02903175037
3005.5,587.927705438143
3005.75,588.897414853223
3006,588.764852277884
3006.25,587.714237326641
3006.5,586.65675908009
3006.75,586.10384341985
3007,586.002388629164
3007.25,586.175384206246
3007.5,586.142194954653
3007.75,585.429401235025
3008,584.408849886219
3008.25,583.963504071041
3008.5,584.376055282624
3008.75,585.001607789555
3009,585.336336260143
3009.25,585.744512554453
3009.5,586.722401472102
3009.75,587.790489584176
3010,587.848789628108
3010.25,586.768566863648
3010.5,586.001548298501
3010.75,586.666577749256
3011,587.782882415083
3011.25,587.872371376927
3011.5,586.571229971858
3011.75,584.324310616794
3012,581.8034097075
3012.25,580.063089761555
3012.5,579.904379951565
3012.75,580.680528951571
3013,581.339468330459
3013.25,581.385617786176
3013.5,580.742978585688
3013.75,579.671936795295
3014,579.00525243459
3014.25,579.336463413507
3014.5,579.932753918399
3014.75,579.769658901954
3015,578.799236504655
3015.25,577.633109848279
3015.5,576.676822403657
3015.75,575.991588497213
3016,575.641775775289
3016.25,575.819287982696
3016.5,576.678126405725
3016.75,577.694594681452
3017,577.978966099517
3017.25,577.436089726333
3017.5,576.988218434349
3017.75,577.274888589694
3018,577.886033793245
3018.25,578.301817409326
3018.5,578.670912642729
3018.75,579.439116229327
3019,580.716081471384
3019.25,582.251376970747
3019.5,583.753866547771
3019.75,584.874394822746
3020,585.360989254355
3020.25,585.670745052768
3020.5,586.530797826692
3020.75,588.17675896228
3021,590.341173192613
3021.25,592.788309403184
3021.5,595.423369776285
3021.75,598.115431882616
3022,600.282877361893
3022.25,601.160034066973
3022.5,600.93040786303
3022.75,600.999847332252
3023,602.472007844529
3023.25,604.918874012185
3023.5,607.543400193399
3023.75,609.763561891466
3024,611.1660376349
3024.25,611.762933229239
3024.5,612.583368208615
3024.75,614.614074873121
3025,617.03279024174
3025.25,618.039781359271
3025.5,616.97676930897
3025.75,615.269226133315
3026,614.282836006136
3026.25,613.345620118793
3026.5,610.90260411768
3026.75,606.527868813391
3027,601.50290548025
3027.25,597.072169395337
3027.5,593.503498113877
3027.75,590.728031406724
3028,588.578670297734
3028.25,586.788322777345
3028.5,585.115692166304
3028.75,583.403468096797
3029,581.513887785794
3029.25,579.350090222208
3029.5,576.842405573852
3029.75,574.151990415877
3030,571.706745285041
3030.25,569.78592605695
3030.5,568.226079341207
3030.75,566.816159948244
3031,565.516018480406
3031.25,564.356709243005
3031.5,563.429599173381
3031.75,562.874807528942
3032,562.758953980076
3032.25,563.025593665917
3032.5,563.542598798023
3032.75,563.963084228175
3033,563.981114604812
3033.25,563.908228558243
3033.5,564.284973397799
3033.75,564.897669661269
3034,564.885775980909
3034.25,564.349160153499
3034.5,565.070282593097
3034.75,567.93551819686
3035,570.022724833935
3035.25,568.188315401926
3035.5,564.337688638277
3035.75,562.657221633916
3036,564.140642050789
3036.25,566.548184230269
3036.5,568.231935723332
3036.75,568.994420303894
3037,568.879115249115
3037.25,568.231241275037
3037.5,567.503037872339
3037.75,567.42124015384
3038,568.834612556728
3038.25,571.363251834034
3038.5,573.160538716018
3038.75,572.981155406028
3039,571.295264035733
3039.25,568.920817806937
3039.5,567.179939952051
3039.75,567.473358652797
3040,569.491396848708
3040.25,571.562798122103
3040.5,572.684572866602
3040.75,573.000142161495
3041,572.845267025071
3041.25,572.873449946002
3041.5,573.68338716826
3041.75,574.73373973849
3042,574.911241746425
3042.25,574.005723323368
3042.5,572.845894831479
3042.75,572.114189932911
3043,571.968481368988
3043.25,572.403534144862
3043.5,572.922010656873
3043.75,572.880136975828
3044,572.337969963589
3044.25,571.94023598317
3044.5,571.966035443939
3044.75,572.001422661111
3045,571.682828798532
3045.25,571.156507718216
3045.5,570.677446210338
3045.75,570.262092245066
3046,569.790634723668
3046.25,569.290828842071
3046.5,568.975958323007
3046.75,568.951217235289
3047,569.002051628593
3047.25,568.925253297817
3047.5,568.909253440114
3047.75,569.260040150634
3048,569.803724304999
3048.25,569.988953303842
3048.5,569.781565096135
3048.75,570.021596336179
3049,571.17361205397
3049.25,572.022903303507
3049.5,571.181971127887
3049.75,569.118928773653
3050,567.235071537134
3050.25,566.229363309303
3050.5,566.012987312319
3050.75,566.238315658967
3051,566.055899430724
3051.25,564.829418314167
3051.5,563.344461370841
3051.75,562.728975235082
3052,562.894205105029
3052.25,562.967413698662
3052.5,562.555187171364
3052.75,561.889688870775
3053,561.124179601553
3053.25,560.111273632864
3053.5,558.743663375263
3053.75,557.370463532344
3054,556.455714006037
3054.25,556.063238828062
3054.5,555.999474287696
3054.75,556.045370237516
3055,555.957621742509
3055.25,555.589809323299
3055.5,555.004652690212
3055.75,554.347708654698
3056,553.99349032957
3056.25,554.243460149568
3056.5,554.338336257462
3056.75,553.082211556321
3057,550.630551803317
3057.25,548.294972680999
3057.5,546.795201958857
3057.75,545.894398283997
3058,545.334241028149
3058.25,545.009018503361
3058.5,544.775979571548
3058.75,544.215453074866
3059,542.941958368384
3059.25,541.449650159144
3059.5,540.584091338962
3059.75,540.252124338669
3060,539.666500091219
3060.25,538.660879997755
3060.5,537.809727239967
3060.75,537.364862078208
3061,536.927984258411
3061.25,536.298400116733
3061.5,535.998334441403
3061.75,536.429242538151
3062,536.964353312601
3062.25,536.843534189627
3062.5,536.216742994929
3062.75,535.574823579281
3063,535.127955181661
3063.25,534.91275422375
3063.5,534.916386184613
3063.75,535.073352895971
3064,534.90728291966
3064.25,533.427877158381
3064.5,530.71383004401
3064.75,528.896950929369
3065,529.237081114717
3065.25,530.00328537031
3065.5,529.615168596846
3065.75,529.012835585831
3066,529.388236369801
3066.25,529.982098796454
3066.5,529.556458782771
3066.75,528.390049383745
3067,527.434344583006
3067.25,527.02507644886
3067.5,527.071611071702
3067.75,527.171822823068
3068,526.675335802877
3068.25,525.61249190774
3068.5,524.819035363982
3068.75,524.735461163357
3069,525.110321783385
3069.25,525.639277401969
3069.5,526.03350641776
3069.75,526.113972310063
3070,525.995864159465
3070.25,525.86349025702
3070.5,525.973158307219
3070.75,526.482335002014
3071,526.963344923224
3071.25,526.881970131653
3071.5,526.251025088351
3071.75,525.317699773949
3072,524.339961637631
3072.25,523.571164720236
3072.5,523.113857104391
3072.75,522.952059128191
3073,522.977045551119
3073.25,522.996814426629
3073.5,522.969893124783
3073.75,523.042505890807
3074,523.150661498447
3074.25,522.881965622312
3074.5,522.223852058076
3074.75,522.037953314954
3075,522.693223243673
3075.25,522.982139140119
3075.5,522.036727487975
3075.75,521.018872680755
3076,521.141511478517
3076.25,521.909197104788
3076.5,522.492930418385
3076.75,522.905521856475
3077,523.412387772792
3077.25,523.899970339102
3077.5,524.106858474995
3077.75,524.052720649719
3078,523.924447021227
3078.25,523.909039606562
3078.5,524.181880694589
3078.75,524.694084687277
3079,525.174882919348
3079.25,525.305699877741
3079.5,524.726628659173
3079.75,523.601016162862
3080,522.95801454093
3080.25,523.343353860417
3080.5,524.077556548996
3080.75,524.581297985983
3081,525.010635021453
3081.25,525.546282203028
3081.5,525.979273964249
3081.75,526.08389827324
3082,526.01119294442
3082.25,525.994201054272
3082.5,526.008761289795
3082.75,525.945424305008
3083,525.933523617931
3083.25,526.217245701214
3083.5,526.740054337782
3083.75,527.230234398643
3084,527.666886321714
3084.25,528.278430024509
3084.5,529.186706251356
3084.75,530.357858748991
3085,531.520426185163
3085.25,532.004670356196
3085.5,531.71162931885
3085.75,532.04360216878
3086,533.941482204808
3086.25,535.892364117305
3086.5,536.223248961648
3086.75,535.290783238658
3087,534.070061326788
3087.25,533.168454482817
3087.5,532.983701726923
3087.75,533.529073583785
3088,534.536143225584
3088.25,535.579435782521
3088.5,536.090480745032
3088.75,536.015420579725
3089,536.054577585794
3089.25,536.561208714217
3089.5,537.017189075096
3089.75,537.031389834497
3090,536.989809388849
3090.25,537.321411710192
3090.5,537.877419625362
3090.75,538.365997652493
3091,538.808966921573
3091.25,539.357591181785
3091.5,539.867585484118
3091.75,539.997184297315
3092,539.880249225542
3092.25,540.169119515982
3092.5,541.09400373279
3092.75,542.137672037198
3093,542.829337777059
3093.25,543.002842541311
3093.5,542.632809452165
3093.75,542.086324605883
3094,541.741602090722
3094.25,541.29949495527
3094.5,540.22084464808
3094.75,538.715669620982
3095,537.502721003773
3095.25,536.967428250088
3095.5,537.123525204718
3095.75,537.700027951452
3096,538.001414026293
3096.25,537.628890304973
3096.5,536.986345465186
3096.75,536.476093868147
3097,536.054127610375
3097.25,535.596509325133
3097.5,535.121769974501
3097.75,534.68689486264
3098,534.226442972402
3098.25,533.62884307705
3098.5,533.098655642104
3098.75,533.075707558194
3099,533.583217945546
3099.25,534.171614420134
3099.5,534.61831155668
3099.75,535.102691740744
3100,535.675226491923
3100.25,536.004378802276
3100.5,535.914713831587
3100.75,535.961501725204
3101,536.69244929549
3101.25,537.762797994859
3101.5,538.535031787283
3101.75,538.415881109097
3102,536.919838651825
3102.25,534.806242068425
3102.5,533.734766484095
3102.75,534.209006401364
3103,535.406901515189
3103.25,536.543365889009
3103.5,537.008284896563
3103.75,536.590532754562
3104,535.986737856722
3104.25,535.821225418425
3104.5,535.975226239771
3104.75,536.161002418832
3105,536.093094810603
3105.25,535.562167690212
3105.5,535.0304253831
3105.75,535.24187738963
3106,535.878952943774
3106.25,535.842863143035
3106.5,535.163623969005
3106.75,535.137729466606
3107,536.168917734044
3107.25,537.099774158521
3107.5,537.183123894081
3107.75,536.998167735338
3108,537.183530509588
3108.25,537.879812084634
3108.5,539.010602336307
3108.75,539.910059955151
3109,539.788301566145
3109.25,538.672368980411
3109.5,537.045519770781
3109.75,535.534149615872
3110,534.866735996127
3110.25,535.268775442488
3110.5,536.331974721384
3110.75,537.496632203093
3111,538.00136711611
3111.25,537.525557403124
3111.5,537.003190919514
3111.75,537.278212645293
3112,537.912884505272
3112.25,538.217659289209
3112.5,538.101306184064
3112.75,537.718380946569
3113,537.225792802723
3113.25,536.787827770417
3113.5,536.698323328021
3113.75,537.356837300488
3114,538.507198188447
3114.25,538.992512596632
3114.5,538.405960963946
3114.75,538.009325195734
3115,538.750511285239
3115.25,539.921951946793
3115.5,540.658193464704
3115.75,540.961535119268
3116,541.082046168263
3116.25,541.061569336317
3116.5,540.839911422285
3116.75,540.377036115333
3117,539.659652997016
3117.25,539.013247193672
3117.5,539.157260187187
3117.75,540.192207866612
3118,541.055413762032
3118.25,541.070342295302
3118.5,540.98988478805
3118.75,541.604802983368
3119,542.739595376239
3119.25,543.94846796219
3119.5,544.829962232655
3119.75,545.026977957247
3120,544.515329881461
3120.25,543.520219720626
3120.5,542.457529392429
3120.75,541.956595810687
3121,542.297095120679
3121.25,543.081161333016
3121.5,544.082868137638
3121.75,545.818237672975
3122,548.573975834145
3122.25,550.781229195667
3122.5,550.620307175292
3122.75,549.265168102861
3123,549.363818941689
3123.25,551.37408721241
3123.5,553.749511989352
3123.75,555.180066035792
3124,554.829265248674
3124.25,552.577105706339
3124.5,550.159595579355
3124.75,549.272155877203
3125,549.728764432022
3125.25,550.741803375909
3125.5,551.701633367402
3125.75,552.125202798767
3126,552.052375768871
3126.25,552.028896246352
3126.5,552.190804368849
3126.75,551.942745275345
3127,550.974228631455
3127.25,550.058316503631
3127.5,549.943757786232
3127.75,550.072473184693
3128,549.524663901009
3128.25,548.468867602376
3128.5,547.726525442366
3128.75,547.673499217005
3129,548.209423218872
3129.25,549.12956039339
3129.5,550.08690905646
3129.75,550.768704791854
3130,551.006183658059
3130.25,550.719432479942
3130.5,550.165247643362
3130.75,549.71246690462
3131,549.715779472479
3131.25,550.478715635267
3131.5,551.303741561304
3131.75,550.500674553577
3132,547.883070068641
3132.25,545.918650716465
3132.5,546.218218581201
3132.75,546.990531450916
3133,546.333693571259
3133.25,545.166721346968
3133.5,545.127124140514
3133.75,545.836289929405
3134,545.847797593644
3134.25,544.847530539083
3134.5,543.548856862372
3134.75,542.498815938311
3135,541.94713487673
3135.25,541.924438112868
3135.5,541.999526951675
3135.75,541.761255394811
3136,541.13294721558
3136.25,540.225658746081
3136.5,539.838828404351
3136.75,540.887261227518
3137,542.54617907012
3137.25,542.996196512452
3137.5,542.2640576723
3137.75,542.121115981995
3138,543.157462294886
3138.25,544.100787446185
3138.5,544.153990036364
3138.75,544.000163430949
3139,544.216777724816
3139.25,544.120576473347
3139.5,542.937419632436
3139.75,541.383211078829
3140,540.689876409879
3140.25,540.853672071309
3140.5,541.062904421548
3140.75,541.028510580977
3141,541.01284534917
3141.25,541.08252893699
3141.5,540.953240356285
3141.75,540.488867432229
3142,540.001412569293
3142.25,539.805284244139
3142.5,539.946293934893
3142.75,540.318031441934
3143,540.25870278597
3143.25,539.019497182883
3143.5,537.397348745092
3143.75,537.086779277296
3144,538.200181920461
3144.25,539.335599828111
3144.5,539.812820113163
3144.75,540.05731864105
3145,540.440519650781
3145.25,541.037076876958
3145.5,541.864641727512
3145.75,542.877898126403
3146,543.978846708785
3146.25,544.849589274381
3146.5,545.113104590897
3146.75,544.56247170855
3147,543.12610043357
3147.25,541.499481782539
3147.5,541.052139506089
3147.75,542.054177665769
3148,543.155768731965
3148.25,543.397585734399
3148.5,542.98498052662
3148.75,542.325578235003
3149,541.986345209733
3149.25,542.403177941113
3149.5,542.959422386323
3149.75,542.747449817578
3150,542.11911890876
3150.25,542.149381175088
3150.5,542.792124326138
3150.75,542.921813024399
3151,542.290491019139
3151.25,542.036192574413
3151.5,542.839949421665
3151.75,544.004768484319
3152,544.781099704839
3152.25,545.014911823348
3152.5,544.787652123221
3152.75,544.778807320864
3153,545.810030267583
3153.25,547.398004240431
3153.5,548.218605094618
3153.75,548.086997693275
3154,548.063954207818
3154.25,548.419956865593
3154.5,547.885112087519
3154.75,545.823511260421
3155,544.072729544445
3155.25,544.422092212724
3155.5,545.743657592498
3155.75,546.09772054589
3156,545.407087737254
3156.25,544.618370951895
3156.5,544.155721859954
3156.75,543.95285424608
3157,543.931200560801
3157.25,544.020760004516
3157.5,544.112034293644
3157.75,543.999776520305
3158,543.562149446972
3158.25,543.065851030355
3158.5,542.833951849244
3158.75,542.912700042321
3159,543.232009403719
3159.25,543.713611355406
3159.5,544.272198045666
3159.75,544.776437392138
3160,545.048657876806
3160.25,545.05349987977
3160.5,544.997592107824
3160.75,545.156254511301
3161,545.930979299853
3161.25,547.415447210569
3161.5,548.148330324519
3161.75,546.545825098462
3162,543.843630578998
3162.25,542.56569896322
3162.5,543.20070514816
3162.75,544.537008465754
3163,545.636686349472
3163.25,545.991321505772
3163.5,545.521431293968
3163.75,544.989317926976
3164,544.97530221029
3164.25,545.027099290139
3164.5,544.607162787753
3164.75,544.077739224966
3165,544.086827041751
3165.25,544.641731254826
3165.5,545.350162418321
3165.75,545.879257050974
3166,545.967919603744
3166.25,545.771936914329
3166.5,546.109478698903
3166.75,547.414817354655
3167,548.93898656373
3167.25,549.958817306883
3167.5,550.768737154096
3167.75,551.853100228438
3168,552.822625170875
3168.25,552.916368981696
3168.5,552.629189156561
3168.75,553.521984088108
3169,555.491829763169
3169.25,555.857014301727
3169.5,553.206300703725
3169.75,550.184921538783
3170,549.505401605811
3170.25,550.588302562139
3170.5,551.859885983828
3170.75,552.726624428184
3171,553.166954735746
3171.25,553.198617810411
3171.5,552.872778628973
3171.75,552.351133955546
3172,551.985760047241
3172.25,551.981575491347
3172.5,552.015256040691
3172.75,551.730515210275
3173,551.197043969149
3173.25,550.634107337723
3173.5,550.176309937669
3173.75,549.901808443511
3174,549.862625031316
3174.25,550.082109747847
3174.5,550.52172119396
3174.75,551.027955849642
3175,551.482669535648
3175.25,551.93026668711
3175.5,552.483613033039
3175.75,553.469487056412
3176,555.226642706001
3176.25,557.208969967146
3176.5,558.286719694697
3176.75,557.99410726722
3177,556.678042923329
3177.25,554.81193370675
3177.5,553.04514964232
3177.75,551.974753705856
3178,551.863321119606
3178.25,552.77210057506
3178.5,553.831123847348
3178.75,553.774076117826
3179,552.681101224238
3179.25,551.806970801445
3179.5,551.751003769894
3179.75,552.034825738751
3180,552.19004748506
3180.25,552.031315550643
3180.5,551.511620365293
3180.75,551.045155489929
3181,551.134082526659
3181.25,551.687379331679
3181.5,552.283761739548
3181.75,552.738260150816
3182,553.103320464979
3182.25,553.484665809961
3182.5,554.06174648425
3182.75,554.927195651363
3183,555.882294610237
3183.25,556.610845840792
3183.5,556.433306655994
3183.75,554.657224294084
3184,552.104421950038
3184.25,550.591043565621
3184.5,550.622411329058
3184.75,551.073723933672
3185,551.15467214465
3185.25,550.997333990877
3185.5,550.847758159016
3185.75,550.937145794399
3186,551.419876327159
3186.25,551.925634755696
3186.5,551.895820328216
3186.75,551.362912069748
3187,550.806219212145
3187.25,550.638811048339
3187.5,551.171565692576
3187.75,552.458388530623
3188,553.985373265815
3188.25,555.227017578952
3188.5,555.933055280594
3188.75,555.996843742976
3189,555.896407799773
3189.25,556.336527938078
3189.5,557.011428346107
3189.75,556.741921129899
3190,555.282041567425
3190.25,553.908426059187
3190.5,553.464036213658
3190.75,553.093417934538
3191,551.944865274467
3191.25,550.993830887951
3191.5,551.682434892626
3191.75,553.370351877407
3192,554.141073395812
3192.25,553.571079774301
3192.5,552.887107454917
3192.75,552.825148718709
3193,553.005208441916
3193.25,553.04390067742
3193.5,553.003238262552
3193.75,553.068599204862
3194,553.588907713623
3194.25,554.915792525623
3194.5,556.4752826839
3194.75,557.03471576855
3195,556.444904717236
3195.25,555.989808493639
3195.5,556.279891470002
3195.75,556.056421692809
3196,554.287010516041
3196.25,552.311158250663
3196.5,551.930602916654
3196.75,552.707300305562
3197,553.016743248462
3197.25,552.46631575093
3197.5,551.859017538021
3197.75,551.724257404834
3198,552.048279975646
3198.25,552.650262192257
3198.5,553.002268591579
3198.75,552.668899581351
3199,552.105073137607
3199.25,552.025364478541
3199.5,552.554264435409
3199.75,553.442160068015
3200,554.409385025213
3200.25,555.151747241617
3200.5,555.57989414866
3200.75,556.019333858225
3201,556.657706160108
3201.25,557.015612026416
3201.5,556.564734618501
3201.75,555.502334778161
3202,554.331139497823
3202.25,553.388428068352
3202.5,552.873786473355
3202.75,552.822903302139
3203,553.04201964398
3203.25,553.397671444927
3203.5,553.956745207249
3203.75,554.702840158801
3204,555.066109755267
3204.25,554.431704457794
3204.5,553.343169078265
3204.75,552.946130852137
3205,553.462419030072
3205.25,554.192774687473
3205.5,554.691224459012
3205.75,555.021352751259
3206,555.332202396635
3206.25,555.883126037079
3206.5,556.91110144192
3206.75,558.376844292509
3207,560.085587806594
3207.25,561.185563023475
3207.5,560.395262415702
3207.75,557.894039206821
3208,555.79712537142
3208.25,555.462450081629
3208.5,555.965150983213
3208.75,556.213535992667
3209,556.08469549225
3209.25,555.748339737622
3209.5,555.283952939908
3209.75,554.722450481119
3210,554.204459382092
3210.25,553.985009736594
3210.5,554.070599436675
3210.75,553.985846610071
3211,553.443672064028
3211.25,553.008997138466
3211.5,553.337717393879
3211.75,554.431657834438
3212,556.001117841828
3212.25,557.477698603896
3212.5,558.107502451561
3212.75,557.941476975334
3213,558.095104764084
3213.25,559.118284097963
3213.5,559.97894514276
3213.75,559.737156603295
3214,559.093008568839
3214.25,559.136513964799
3214.5,559.741279177761
3214.75,560.061198098494
3215,559.695689871079
3215.25,558.758055481834
3215.5,557.595980532747
3215.75,557.000312597896
3216,557.554540238184
3216.25,558.715054089652
3216.5,559.684984902345
3216.75,560.074346600689
3217,559.729492436567
3217.25,559.086072431556
3217.5,559.136969964564
3217.75,560.146527501563
3218,561.016089464842
3218.25,560.871812417724
3218.5,560.152242740825
3218.75,559.519462057998
3219,559.12263829365
3219.25,558.869053683928
3219.5,558.506992263292
3219.75,557.656241079319
3220,556.478720390184
3220.25,556.016358602159
3220.5,556.853241592207
3220.75,557.914518318681
3221,558.024660499999
3221.25,557.330835732679
3221.5,556.467167380014
3221.75,555.955454080044
3222,556.218008163106
3222.25,556.941969091513
3222.5,556.872312279585
3222.75,555.470847278381
3223,554.042896580362
3223.25,553.846191614196
3223.5,554.68336804275
3223.75,555.963777090651
3224,557.350044674567
3224.25,558.652249634944
3224.5,559.931068901766
3224.75,561.481684629284
3225,563.15643026011
3225.25,564.005024573553
3225.5,563.310941197909
3225.75,561.481924635431
3226,559.204790390495
3226.25,557.394665946034
3226.5,557.00625943887
3226.75,557.692770280133
3227,557.9447252493
3227.25,557.092439254429
3227.5,555.916160722542
3227.75,555.152441521504
3228,554.973778197185
3228.25,555.371016835043
3228.5,555.896869751695
3228.75,555.994886634042
3229,555.873764230966
3229.25,556.267468910382
3229.5,557.505353168933
3229.75,559.391953639746
3230,561.50290031326
3230.25,562.962087327051
3230.5,563.151793057878
3230.75,562.944546521346
3231,563.476378199064
3231.25,564.153038767041
3231.5,563.405437986387
3231.75,561.06536729941
3232,558.584892836649
3232.25,557.124330076627
3232.5,556.973617446821
3232.75,558.033781511002
3233,558.981157103229
3233.25,558.356087140466
3233.5,556.705519665757
3233.75,555.629242911308
3234,555.643409152071
3234.25,556.144935444726
3234.5,556.472437162887
3234.75,555.950316251786
3235,554.35655774264
3235.25,553.066750767877
3235.5,553.477733493984
3235.75,554.701827275904
3236,555.000244830007
3236.25,554.339794269031
3236.5,553.953470261526
3236.75,554.135255317631
3237,553.878289371288
3237.25,552.615178790422
3237.5,551.061257562885
3237.75,549.861931122252
3238,548.475445042376
3238.25,546.189175910447
3238.5,543.744030708908
3238.75,542.550448633426
3239,542.696890833892
3239.25,543.139985292155
3239.5,542.978837273488
3239.75,541.557086159147
3240,538.980042550506
3240.25,536.942951530712
3240.5,536.663713087501
3240.75,536.996819699651
3241,536.548708274025
3241.25,535.35287775714
3241.5,533.944375496569
3241.75,533.040815603956
3242,533.372184811834
3242.25,534.513049645157
3242.5,535.212685564974
3242.75,535.14422141911
3243,534.965276468582
3243.25,534.759616770911
3243.5,533.667622628709
3243.75,531.35831575883
3244,528.85761991647
3244.25,527.090151978934
3244.5,526.039023542351
3244.75,525.473485676743
3245,525.070789736704
3245.25,524.550213365976
3245.5,524.073989114711
3245.75,523.932241680016
3246,523.994708994566
3246.25,523.916418076442
3246.5,523.419517951003
3246.75,522.315135172924
3247,521.183507738264
3247.25,521.229096951171
3247.5,522.382547719225
3247.75,523.15950112005
3248,523.065170599019
3248.25,523.070344558202
3248.5,523.618959998056
3248.75,524.032659158121
3249,523.774364797013
3249.25,522.89152733833
3249.5,521.545110238285
3249.75,519.993468146397
3250,518.590035119747
3250.25,517.991857990985
3250.5,518.589246165587
3250.75,519.055457130916
3251,517.926111718183
3251.25,516.246636538157
3251.5,515.757456618155
3251.75,516.004799762932
3252,515.652783054777
3252.25,515.037987732487
3252.5,515.320320900342
3252.75,515.992700663635
3253,515.532859610363
3253.25,514.307981671638
3253.5,514.125909890469
3253.75,515.26457159768
3254,516.553876565805
3254.25,517.49235920073
3254.5,518.362506106097
3254.75,519.325962587583
3255,520.334053546236
3255.25,521.065390598401
3255.5,520.800809906171
3255.75,519.375648580935
3256,517.761592817118
3256.25,516.859208370669
3256.5,517.079172145439
3256.75,518.296347124104
3257,518.996686593935
3257.25,518.093188248601
3257.5,517.020945548669
3257.75,517.275992701609
3258,517.964454426208
3258.25,517.793053484585
3258.5,517.109900818713
3258.75,516.749268646761
3259,516.8939432394
3259.25,517.415306485384
3259.5,517.924644459916
3259.75,517.968520556399
3260,517.884705401587
3260.25,518.447471911137
3260.5,519.536701605513
3260.75,520.377547472449
3261,520.801122496459
3261.25,521.190876944326
3261.5,521.37009371348
3261.75,520.525793094784
3262,518.834549502526
3262.25,517.907242446037
3262.5,518.400768832882
3262.75,519.096643459965
3263,519.157902497412
3263.25,518.982230003299
3263.5,518.955290245146
3263.75,519.002174496174
3264,519.010964064335
3264.25,519.000081428089
3264.5,519.002865885151
3264.75,519.001427899626
3265,518.97834248491
3265.25,518.989246159934
3265.5,519.142986715567
3265.75,519.743196857111
3266,521.077090208963
3266.25,522.615141359727
3266.5,523.501432672786
3266.75,523.846322754694
3267,524.323003159276
3267.25,524.884033406797
3267.5,524.908158083059
3267.75,524.026010815473
3268,522.161102271883
3268.25,519.940701595845
3268.5,518.901729364989
3268.75,519.465292319607
3269,520.039547410334
3269.25,519.629778016262
3269.5,518.913674107396
3269.75,518.620134473402
3270,519.05491987673
3270.25,520.172463748698
3270.5,520.99689763884
3270.75,520.723476066015
3271,520.046103999136
3271.25,519.850499503848
3271.5,519.98098301032
3271.75,520.007387933254
3272,519.983418705005
3272.25,520.157079030349
3272.5,520.706957864187
3272.75,521.727705378659
3273,522.759907462016
3273.25,523.02891612884
3273.5,522.457883235244
3273.75,521.531513400691
3274,520.558520143998
3274.25,519.652953391387
3274.5,519.044741908561
3274.75,519.117682423553
3275,519.743786873737
3275.25,519.96336557704
3275.5,519.40225701608
3275.75,518.985663328256
3276,519.352285734857
3276.25,520.061605924719
3276.5,520.638540495032
3276.75,521.002354230701
3277,521.141527371623
3277.25,521.020642414371
3277.5,520.714138443481
3277.75,520.875946993973
3278,522.128239864711
3278.25,523.712770118437
3278.5,524.494056921321
3278.75,524.808613967952
3279,525.632633987559
3279.25,526.714661606531
3279.5,527.045857852748
3279.75,526.477924990382
3280,525.606140891926
3280.25,525.002481225817
3280.5,525.176681068907
3280.75,526.153295476619
3281,527.242120855764
3281.25,527.897991219733
3281.5,527.97132913661
3281.75,527.513964293703
3282,526.988552840661
3282.25,526.8102701398
3282.5,526.975388712403
3282.75,527.380244039316
3283,527.900650351216
3283.25,528.415928989611
3283.5,528.87615107264
3283.75,529.274928968121
3284,529.73956713168
3284.25,530.463064394501
3284.5,531.436383761731
3284.75,532.488781265868
3285,533.463588906594
3285.25,534.222054559934
3285.5,534.483145281702
3285.75,533.749031357983
3286,532.104989481374
3286.25,530.972994277074
3286.5,531.314482547627
3286.75,531.98418981515
3287,531.757601190789
3287.25,531.094444156288
3287.5,530.833707648364
3287.75,530.949738420669
3288,531.066385865647
3288.25,531.047700364966
3288.5,530.895623883745
3288.75,530.46382946786
3289,529.499030812396
3289.25,528.350237498693
3289.5,528.061206885683
3289.75,528.975020630876
3290,530.25225373173
3290.25,531.263710904455
3290.5,532.067408654118
3290.75,532.720355028409
3291,533.000408670996
3291.25,532.723187806812
3291.5,532.112740618792
3291.75,531.490717898331
3292,531.065048475644
3292.25,530.966799888215
3292.5,531.019182601656
3292.75,530.877175092154
3293,530.39714715354
3293.25,529.605132296897
3293.5,528.631082206802
3293.75,527.716674678946
3294,527.107512423077
3294.25,527.044529176193
3294.5,527.526152893668
3294.75,528.042464535555
3295,528.182324146437
3295.25,527.999443244213
3295.5,527.718905374336
3295.75,527.919778221259
3296,529.085830263465
3296.25,530.678247661264
3296.5,531.901627782798
3296.75,532.737213025104
3297,533.496145306464
3297.25,533.998598870524
3297.5,533.759059917789
3297.75,532.775354002981
3298,531.507159835051
3298.25,530.421160140534
3298.5,529.964846034172
3298.75,530.108063814648
3299,529.915787627855
3299.25,528.740005126524
3299.5,526.96598315455
3299.75,525.174768785442
3300,524.045201180658
3300.25,524.091780565388
3300.5,524.84541449099
3300.75,525.57490226574
3301,525.967952241303
3301.25,525.941113166334
3301.5,525.886318722597
3301.75,526.417489661466
3302,527.467333008624
3302.25,528.463532795274
3302.5,528.998768865266
3302.75,528.851399208254
3303,528.252824798866
3303.25,528.014597256256
3303.5,528.263666830656
3303.75,527.825929506093
3304,526.215890203178
3304.25,524.972588787047
3304.5,525.267361098818
3304.75,525.983307386629
3305,525.849421166017
3305.25,525.118361842862
3305.5,524.42248594948
3305.75,524.033725021312
3306,524.034557346855
3306.25,524.078136870431
3306.5,523.662897187107
3306.75,523.088516103254
3307,523.140892664979
3307.25,523.740986186965
3307.5,524.083299453535
3307.75,524.007630133142
3308,524.077548884691
3308.25,524.545031672511
3308.5,525.172651374146
3308.75,525.723500753002
3309,526.028166746753
3309.25,525.869268392828
3309.5,524.897285006891
3309.75,523.021005645118
3310,521.049569483501
3310.25,519.768064275846
3310.5,519.060256506708
3310.75,518.583443219049
3311,518.106304998543
3311.25,517.49525652655
3311.5,517.036547753108
3311.75,517.145192379039
3312,517.748912475418
3312.25,518.508313820135
3312.5,518.992666632087
3312.75,518.765448984729
3313,518.156943593099
3313.25,518.054611954578
3313.5,518.611699566064
3313.75,519.28403314722
3314,519.776260492575
3314.25,520.111000574761
3314.5,520.485953942175
3314.75,521.311788679151
3315,522.486429091545
3315.25,523.000751923364
3315.5,522.268075664005
3315.75,520.811151644726
3316,519.23465482251
3316.25,517.965507511406
3316.5,517.277682369431
3316.75,517.005589037251
3317,516.924145495774
3317.25,516.985217725857
3317.5,517.140278169632
3317.75,517.066668735281
3318,516.480087098661
3318.25,515.992638981257
3318.5,516.408653600795
3318.75,517.007944705059
3319,516.474898722421
3319.25,515.292091433026
3319.5,514.926634546109
3319.75,515.579990852115
3320,516.557554810076
3320.25,517.526219052692
3320.5,518.474645210754
3320.75,519.430712066177
3321,520.438644387649
3321.25,521.129192205588
3321.5,520.653690509893
3321.75,519.061208278765
3322,517.765579684605
3322.25,517.602361847795
3322.5,518.129487111865
3322.75,518.774474729567
3323,518.984036392598
3323.25,518.515846317778
3323.5,517.984760304997
3323.75,517.91472198455
3324,518.00007705181
3324.25,517.908242902127
3324.5,517.967383800325
3324.75,518.515536449566
3325,518.989076093955
3325.25,518.695126523926
3325.5,518.089884050087
3325.75,518.022866383668
3326,518.671452999292
3326.25,519.830168609966
3326.5,520.844132644632
3326.75,520.863096532337
3327,520.204408138769
3327.25,520.010447105171
3327.5,520.195791279119
3327.75,519.536670038175
3328,517.936083190893
3328.25,516.641127123702
3328.5,516.171585050975
3328.75,515.9004012995
3329,515.424334734974
3329.25,514.876469936922
3329.5,514.379079551098
3329.75,513.924628674482
3330,513.654384788811
3330.25,514.1077730709
3330.5,515.358738378245
3330.75,515.989948130882
3331,515.046021415208
3331.25,514.00205747346
3331.5,514.274281232048
3331.75,514.976063821579
3332,514.99678052661
3332.25,514.954905755759
3332.5,515.743049728876
3332.75,516.846032001846
3333,517.356821517553
3333.25,517.142911207134
3333.5,516.403199505713
3333.75,515.357762769764
3334,514.237118158818
3334.25,513.2739360703
3334.5,512.701372295457
3334.75,512.741783632574
3335,513.547723036423
3335.25,514.230190285443
3335.5,513.141361621701
3335.75,510.826829901676
3336,509.859465079827
3336.25,510.611837220375
3336.5,510.989923071706
3336.75,510.350572635714
3337,509.963033894505
3337.25,510.435321202935
3337.5,511.311280361825
3337.75,512.27127327183
3338,513.320339005139
3338.25,514.373718796912
3338.5,515.147396308979
3338.75,515.586754085225
3339,516.128413657636
3339.25,516.863809779149
3339.5,516.942831711231
3339.75,515.778110778042
3340,513.897040221478
3340.25,512.038604164469
3340.5,511.001571577055
3340.75,511.266895012443
3341,511.9752254626
3341.25,512.169917771618
3341.5,512.015331002612
3341.75,511.932743348532
3342,511.984731305564
3342.25,512.093158384814
3342.5,512.048094810884
3342.75,511.708522781922
3343,511.794006437209
3343.25,513.172467606915
3343.5,514.781007672908
3343.75,514.840430224635
3344,514.069238194321
3344.25,514.466063411778
3344.5,516.181460773896
3344.75,518.138048324599
3345,519.604906708273
3345.25,520.153644251045
3345.5,519.661797276976
3345.75,518.298718776457
3346,516.670262368977
3346.25,515.849782986883
3346.5,515.978966730484
3346.75,515.870961388386
3347,515.178864512234
3347.25,515.109444837037
3347.5,516.154545775226
3347.75,517.105354926788
3348,517.169723535417
3348.25,516.994531801769
3348.5,517.087687024273
3348.75,516.980873475692
3349,516.354054822912
3349.25,515.997283428407
3349.5,516.659581926168
3349.75,517.894249947148
3350,519.031930750901
3350.25,519.892245646242
3350.5,520.472356700625
3350.75,520.90116228079
3351,521.3440426445
3351.25,521.836563376208
3351.5,522.313585017517
3351.75,522.30706180458
3352,521.178717395498
3352.25,519.527943890086
3352.5,518.873361000668
3352.75,519.47590388245
3353,520.339399045103
3353.25,520.865600758509
3353.5,521.005473589809
3353.75,520.930525751081
3354,521.089302335154
3354.25,521.620898062994
3354.5,522.04431125307
3354.75,522.066844952708
3355,522.000742164013
3355.25,522.074820996327
3355.5,521.998856734475
3355.75,521.64466526557
3356,521.912758480547
3356.25,523.605589511822
3356.5,525.712349060322
3356.75,526.848308377235
3357,527.035007300143
3357.25,526.827102569592
3357.5,526.31372375345
3357.75,525.360700807083
3358,524.322344897951
3358.25,523.895843808925
3358.5,524.363470394986
3358.75,525.581769771428
3359,526.837939553636
3359.25,526.749699802893
3359.5,525.140626831589
3359.75,523.85642064579
3360,524.077705649437
3360.25,525.131057046205
3360.5,526.236086793754
3360.75,527.00615642253
3361,527.220900534053
3361.25,527.030659574544
3361.5,526.725048313613
3361.75,526.860335715284
3362,527.897655630609
3362.25,528.924020326132
3362.5,528.612888623423
3362.75,527.879737131123
3363,528.833837472228
3363.25,530.710529564657
3363.5,530.451579905857
3363.75,527.755288534049
3364,525.4298467209
3364.25,524.868792725759
3364.5,525.042683827455
3364.75,525.100183309336
3365,524.973592930441
3365.25,524.644700665491
3365.5,523.971040507332
3365.75,522.933700961412
3366,522.03765157994
3366.25,521.769959444658
3366.5,521.95575074751
3366.75,522.280834144434
3367,522.81610643699
3367.25,523.729006679487
3367.5,524.734182990527
3367.75,525.371096784833
3368,525.77184788561
3368.25,526.425902426729
3368.5,527.418431147259
3368.75,528.494315883452
3369,529.468753426292
3369.25,530.241710927987
3369.5,530.511509854786
3369.75,529.677052408009
3370,527.715989328833
3370.25,525.834304869084
3370.5,524.990005206962
3370.75,525.002696312714
3371,525.477131980984
3371.25,525.969896347652
3371.5,526.115777984376
3371.75,526.023328831269
3372,525.937411667955
3372.25,525.963721978097
3372.5,526.118648647386
3372.75,526.132980434149
3373,525.622938596552
3373.25,525.012579198587
3373.5,525.321343746713
3373.75,526.787087771164
3374,528.834745114871
3374.25,530.868395451055
3374.5,532.316386519477
3374.75,532.922281930187
3375,532.989564266047
3375.25,532.730641739871
3375.5,531.977748762033
3375.75,530.640873555355
3376,529.146615625048
3376.25,527.965950893434
3376.5,527.144456881799
3376.75,526.578529721281
3377,526.140593322287
3377.25,525.699705700438
3377.5,525.217465444606
3377.75,524.715760155292
3378,524.232873197076
3378.25,523.81539403365
3378.5,523.38180674765
3378.75,522.718957769379
3379,522.039326234156
3379.25,522.15804578359
3379.5,523.22208048853
3379.75,524.092407842353
3380,524.106889248784
3380.25,524.011643593705
3380.5,524.427788445178
3380.75,524.998610703008
3381,525.258929857829
3381.25,525.051153063507
3381.5,524.330615574816
3381.75,523.245542183066
3382,522.035413795411
3382.25,521.132075060575
3382.5,521.005475362703
3382.75,521.631043076545
3383,522.685852692556
3383.25,523.700877116873
3383.5,524.13395665605
3383.75,524.046905059776
3384,524.048502581292
3384.25,524.47961325442
3384.5,525.337509824126
3384.75,526.394568755832
3385,527.1135419156
3385.25,527.210656852087
3385.5,526.958440973992
3385.75,526.733760203988
3386,527.017431199315
3386.25,528.144650825276
3386.5,529.846180745956
3386.75,531.745306281573
3387,533.632716529146
3387.25,535.294329404173
3387.5,536.081182548448
3387.75,535.271425582229
3388,533.606851905234
3388.25,532.73617232677
3388.5,533.227434484425
3388.75,534.590737901612
3389,535.907659730965
3389.25,535.747157949639
3389.5,533.77534158991
3389.75,531.864321960182
3390,531.45510753204
3390.25,531.98440584102
3390.5,532.528902802297
3390.75,532.184666679225
3391,530.352307961911
