3641,918.863614377252
3641.25,920.785052498557
3641.5,922.867688717711
3641.75,924.159062304957
3642,924.710473451968
3642.25,924.888038893646
3642.5,925.056812486843
3642.75,925.410809849856
3643,925.795011672871
3643.25,926.011840045272
3643.5,925.873424886333
3643.75,925.384797695491
3644,924.728386923511
3644.25,924.093221098913
3644.5,923.653510975224
3644.75,923.483345507564
3645,923.615366899593
3645.25,924.082086979297
3645.5,924.917237696896
3645.75,926.157852040397
3646,927.841515784828
3646.25,929.994578901857
3646.5,932.28749812992
3646.75,933.970426219449
3647,934.269286118713
3647.25,932.53975764001
3647.5,929.385850834093
3647.75,926.108504105808
3648,924.016244892133
3648.25,924.032212138176
3648.5,925.464319661323
3648.75,927.197385475893
3649,928.123817492175
3649.25,927.781918477999
3649.5,926.839373775783
3649.75,926.077727236747
3650,926.23801599565
3650.25,927.395159819664
3650.5,929.078759197314
3650.75,930.802371148887
3651,932.118786488616
3651.25,932.81158096651
3651.5,932.748437391663
3651.75,931.797535073684
3652,929.998189397304
3652.25,927.831303252496
3652.5,925.848044558461
3652.75,924.591541911754
3653,924.327587887669
3653.25,924.980837792551
3653.5,926.454975626164
3653.75,928.620015308031
3654,931.022561258489
3654.25,933.028889596347
3654.5,934.003321179318
3654.75,933.511529519165
3655,931.894020037654
3655.25,929.677649561496
3655.5,927.387509067518
3655.75,925.382694442031
3656,923.722820331123
3656.25,922.436087895007
3656.5,921.544658082954
3656.75,920.966503102268
3657,920.53168338522
3657.25,920.067504022107
3657.5,919.455652757408
3657.75,918.893342468
3658,918.691298607764
3658.25,919.159247573426
3658.5,920.35438782448
3658.75,921.766002840159
3659,922.805832479672
3659.25,922.913513269584
3659.5,922.110586509459
3659.75,920.969136378854
3660,920.082865310242
3660.25,919.966889775365
3660.5,920.607210457866
3660.75,921.771491487787
3661,923.226760732463
3661.25,924.762210699457
3661.5,926.224117821143
3661.75,927.467823006374
3662,928.34876238703
3662.25,928.72507103489
3662.5,928.457900119316
3662.75,927.408559709796
3663,925.504592534726
3663.25,923.258750651237
3663.5,921.488851931448
3663.75,921.015332051093
3664,922.293370808772
3664.25,924.472604494219
3664.5,926.411095189751
3664.75,926.983517014967
3665,925.929792883619
3665.25,924.260396618937
3665.5,923.087243953958
3665.75,923.424432862445
3666,925.057829695842
3666.25,926.935374318573
3666.5,927.988845945451
3666.75,927.434201341513
3667,925.793467484964
3667.25,923.963653180633
3667.5,922.839012752142
3667.75,922.947569648335
3668,924.089903277919
3668.25,925.980712647592
3668.5,928.322990378709
3668.75,930.604440127248
3669,932.123769151861
3669.25,932.173264822421
3669.5,930.238411786732
3669.75,927.054769253698
3670,923.855470138857
3670.25,921.874378104913
3670.5,921.837518386783
3670.75,923.02246669694
3671,924.45025224129
3671.25,925.16142884921
3671.5,924.850454871235
3671.75,924.004981202551
3672,923.160367009436
3672.25,922.804018517919
3672.5,922.971040290131
3672.75,923.447963261304
3673,924.018747945913
3673.25,924.50175036199
3673.5,924.839500013451
3673.75,925.002538617101
3674,924.961453464215
3674.25,924.689471191224
3674.5,924.163855641494
3674.75,923.362211734761
3675,922.283738512908
3675.25,921.206323615353
3675.5,920.60172200594
3675.75,920.945614961005
3676,922.532555105453
3676.25,924.806020260182
3676.5,926.959740310716
3676.75,928.191628803855
3677,928.151876135015
3677.25,927.339513225769
3677.5,926.347096245094
3677.75,925.739905424466
3678,925.583013440784
3678.25,925.503131672466
3678.5,925.112132391547
3678.75,924.122343354221
3679,922.886683444165
3679.25,922.009675803917
3679.5,922.095676943819
3679.75,923.387157559784
3680,925.187381202062
3680.25,926.649223248096
3680.5,926.951300895828
3680.75,925.996916599682
3681,924.496427566977
3681.25,923.202466598258
3681.5,922.761467678543
3681.75,922.898063135158
3682,922.863322149943
3682.25,921.904497834132
3682.5,919.652091561526
3682.75,917.022172089449
3683,915.200061392353
3683.25,915.352620468895
3683.5,917.788649704894
3683.75,921.613508572438
3684,925.842532242232
3684.25,929.539525305138
3684.5,932.249862518159
3684.75,933.794684922348
3685,933.998387809942
3685.25,932.821869674159
3685.5,930.767016269947
3685.75,928.469715324578
3686,926.563673593495
3686.25,925.458580847516
3686.5,925.149005537786
3686.75,925.58449286923
3687,926.700026099402
3687.25,928.17318987298
3687.5,929.461047315026
3687.75,930.013530348055
3688,929.400555847024
3688.25,927.936799440585
3688.5,926.222282877968
3688.75,924.857222336113
3689,924.215051108968
3689.25,924.061115527515
3689.5,924.059905988065
3689.75,923.885853862967
3690,923.52979395668
3690.25,923.357104239347
3690.5,923.754835427133
3690.75,925.042306708357
3691,926.928166052631
3691.25,928.797431841144
3691.5,930.032175111634
3691.75,930.211637263346
3692,929.607342445706
3692.25,928.642668863638
3692.5,927.738471641867
3692.75,927.153059065523
3693,926.886155027816
3693.25,926.914445413528
3693.5,927.207356990985
3693.75,927.630567787923
3694,927.972309136166
3694.25,928.018955034288
3694.5,927.633250004164
3694.75,927.086319367415
3695,926.785228294753
3695.25,927.135541899935
3695.5,928.167218597346
3695.75,929.05269295788
3696,928.845288076063
3696.25,926.644472332124
3696.5,922.695943942614
3696.75,918.44087384688
3697,915.376432310163
3697.25,914.805589368392
3697.5,916.459331435218
3697.75,919.306778444596
3698,922.312278204721
3698.25,924.669585003528
3698.5,926.230619706932
3698.75,926.964600183197
3699,926.848196104332
3699.25,926.110454714604
3699.5,925.288184093091
3699.75,924.936857627678
3700,925.530653477466
3700.25,926.750191284155
3700.5,927.827934798513
3700.75,927.991286338172
3701,926.776797391967
3701.25,924.898949525356
3701.5,923.352729657623
3701.75,923.123312345667
3702,924.462281296956
3702.25,926.391974976383
3702.5,927.817430873033
3702.75,927.723959807095
3703,926.241209378709
3703.25,924.351569176524
3703.5,923.057797051233
3703.75,923.12838522471
3704,924.066299386636
3704.25,924.949102003415
3704.5,924.856970146868
3704.75,923.429417201492
3705,921.524677429398
3705.25,920.161448636561
3705.5,920.319057600687
3705.75,922.106589241553
3706,924.782053019964
3706.25,927.567921244238
3706.5,929.764806056609
3706.75,931.200590898978
3707,931.921166240381
3707.25,931.973226967757
3707.5,931.501948018832
3707.75,930.931238199557
3708,930.733976504709
3708.25,931.370818351064
3708.5,932.794005929992
3708.75,934.275445720658
3709,935.039518937307
3709.25,934.386472702364
3709.5,932.50449104496
3709.75,930.157480428489
3710,928.11907200121
3710.25,927.012481751449
3710.5,926.706601402628
3710.75,926.834360051635
3711,927.029563068438
3711.25,927.099053454784
3711.5,927.222033193423
3711.75,927.626028223156
3712,928.529601609262
3712.25,929.949931651919
3712.5,931.705422079612
3712.75,933.606035813843
3713,935.444079883389
3713.25,936.878428851395
3713.5,937.506980558953
3713.75,936.927362692287
3714,935.012559487362
3714.25,932.564027868803
3714.5,930.578717193401
3714.75,930.043945902775
3715,931.254476414661
3715.25,933.359880324018
3715.5,935.402329892462
3715.75,936.477911152202
3716,936.524733751409
3716.25,936.147648496466
3716.5,935.969763698598
3716.75,936.477473060652
3717,937.281847626679
3717.25,937.64889103864
3717.5,936.844120890261
3717.75,934.581855681954
3718,931.9045106076
3718.25,930.098997800656
3718.5,930.431272903683
3718.75,933.074560100342
3719,936.596798468645
3719.25,939.437682156183
3719.5,940.150508161843
3719.75,938.781601257786
3720,936.429258945682
3720.25,934.213766444704
3720.5,933.070034623683
3720.75,932.845775961584
3721,932.993586651833
3721.25,932.966004617551
3721.5,932.49754505739
3721.75,932.073767080606
3722,932.303904401457
3722.25,933.777099266748
3722.5,936.327264769796
3722.75,938.821929615309
3723,940.065493696946
3723.25,938.989303969777
3723.5,935.962902347828
3723.75,932.266167272648
3724,929.193380922187
3724.25,927.785100372086
3724.5,927.766284560541
3724.75,928.436790390795
3725,929.097457631038
3725.25,929.309321567371
3725.5,929.217320652627
3725.75,929.045924612808
3726,929.011727323714
3726.25,929.13389778313
3726.5,929.224688160504
3726.75,929.08657507264
3727,928.570455036271
3727.25,927.926804890819
3727.5,927.60293388422
3727.75,928.047509202699
3728,929.517670594618
3728.25,931.611160246673
3728.5,933.78392097196
3728.75,935.495971565623
3729,936.443535009071
3729.25,936.684225933612
3729.5,936.3062006825
3729.75,935.405507176649
3730,934.197089227011
3730.25,932.987835310417
3730.5,932.087023332447
3730.75,931.753082723337
3731,931.927889511398
3731.25,932.431705217095
3731.5,933.084504997006
3731.75,933.682113915797
3732,933.953906057
3732.25,933.617925217521
3732.5,932.401390423675
3732.75,930.400151843462
3733,928.195951294319
3733.25,926.403720147535
3733.5,925.592761306165
3733.75,925.793910058005
3734,926.686748633763
3734.25,927.944829407206
3734.5,929.253067266318
3734.75,930.347844051222
3735,930.980106516218
3735.25,930.90325908904
3735.5,930.178045717052
3735.75,929.467604715973
3736,929.505058825054
3736.25,930.98097321383
3736.5,933.704156769407
3736.75,936.652437895046
3737,938.771253783435
3737.25,939.157015080091
3737.5,938.011949619133
3737.75,936.030040803124
3738,933.907501344891
3738.25,932.246397420248
3738.5,931.321493486025
3738.75,931.336473468956
3739,932.488720623711
3739.25,934.528615255559
3739.5,936.470819751609
3739.75,937.261419737465
3740,935.933545687253
3740.25,932.914686632122
3740.5,929.754750652588
3740.75,928.035499061827
3741,929.028064666896
3741.25,931.949735563705
3741.5,935.184068900206
3741.75,937.113125129127
3742,936.795883303342
3742.25,935.171637104311
3742.5,933.503529343607
3742.75,933.037472064425
3743,934.239867702783
3743.25,936.496060993774
3743.5,939.111827061526
3743.75,941.419181902299
3744,943.0826307326
3744.25,943.994979496559
3744.5,944.053509670857
3744.75,943.216576037603
3745,941.790156017625
3745.25,940.203045961359
3745.5,938.884108211386
3745.75,938.180593260464
3746,938.202440476851
3746.25,939.016695010206
3746.5,940.682429782857
3746.75,942.83735104601
3747,944.496852749325
3747.25,944.626241966798
3747.5,942.289117135354
3747.75,938.070274030634
3748,933.751889485927
3748.25,931.148503051277
3748.5,931.752121284497
3748.75,934.786915383298
3749,938.504245103828
3749.25,941.152114377712
3749.5,941.604749112557
3749.75,940.643117081265
3750,939.40977990435
3750.25,939.03526951946
3750.5,939.898364831716
3750.75,941.195058847809
3751,942.017518102796
3751.25,941.517819344063
3751.5,939.852791366763
3751.75,938.012158374233
3752,937.010803858204
3752.25,937.687490443793
3752.5,939.595387443634
3752.75,941.71767846641
3753,943.035041810661
3753.25,942.882086975909
3753.5,941.791097223917
3753.75,940.547442092257
3754,939.930075854352
3754.25,940.150766860637
3754.5,940.417347738039
3754.75,939.834854903851
3755,937.567030022364
3755.25,933.986646874867
3755.5,930.601915698266
3755.75,928.96501464254
3756,930.384083803177
3756.25,934.167032886376
3756.5,938.642086903497
3756.75,942.130813865341
3757,943.402415599354
3757.25,942.757756208507
3757.5,940.8250256656
3757.75,938.232846170987
3758,935.647966172792
3758.25,933.804569711142
3758.5,933.443739413173
3758.75,935.250080365261
3759,938.767014081382
3759.25,942.478116409784
3759.5,944.826781126339
3759.75,944.507441553891
3760,942.115794390272
3760.25,939.117996210729
3760.5,936.984716633074
3760.75,936.722756801716
3761,937.551574510257
3761.25,938.26020339804
3761.5,937.645837367009
3761.75,935.364344081628
3762,932.674159834398
3762.25,931.009073825667
3762.5,931.730312596692
3762.75,934.624952006227
3763,937.956844344035
3763.25,939.927468116938
3763.5,939.04304480205
3763.75,936.145794658176
3764,933.158636536456
3764.25,932.010337234913
3764.5,933.944810204919
3764.75,937.692645887233
3765,941.408032149557
3765.25,943.258381651267
3765.5,942.427671979545
3765.75,939.819285340319
3766,936.50268536173
3766.25,933.533027414822
3766.5,931.677042464138
3766.75,931.433968686874
3767,933.2929297774
3767.25,937.577129603212
3767.5,943.339019596183
3767.75,949.043604391672
3768,953.152765880116
3768.25,954.551480555542
3768.5,953.568966491568
3768.75,950.842338954109
3769,947.009490128951
3769.25,942.811206443552
3769.5,939.193077939957
3769.75,937.124933744063
3770,937.538605767658
3770.25,940.241675229438
3770.5,943.757842906294
3770.75,946.540709885207
3771,947.20449533773
3771.25,946.014581451556
3771.5,944.207273724633
3771.75,943.03130421428
3772,943.476054866082
3772.25,945.183725931596
3772.5,947.360452693308
3772.75,949.212639626997
3773,950.203382207799
3773.25,950.472272817553
3773.5,950.269039809294
3773.75,949.841041547992
3774,949.30506121356
3774.25,948.581905557283
3774.5,947.576251251691
3774.75,946.210804424826
3775,944.74620275332
3775.25,943.743187825478
3775.5,943.772931718248
3775.75,945.278539973958
3776,947.616094819207
3776.25,949.593476736251
3776.5,950.014367799057
3776.75,948.096857295197
3777,944.810676719248
3777.25,941.588289294308
3777.5,939.859480388827
3777.75,940.327211931159
3778,941.987017225123
3778.25,943.589494508954
3778.5,943.91861258339
3778.75,942.903261423792
3779,941.877035410076
3779.25,942.259538156633
3779.5,945.317824523109
3779.75,950.404359537572
3780,955.565852664866
3780.25,958.823850449592
3780.5,958.621164080321
3780.75,955.869112714767
3781,952.375399645542
3781.25,949.948968936091
3781.5,949.879130104037
3781.75,951.600003950793
3782,954.131865775431
3782.25,956.497985622834
3782.5,958.131058003438
3782.75,959.285599909719
3783,960.314380696946
3783.25,961.564603642554
3783.5,963.184070978565
3783.75,965.070972285541
3784,967.10772968553
3784.25,969.167946768246
3784.5,970.976321921717
3784.75,972.133584811219
3785,972.23668644182
3785.25,970.974281097317
3785.5,968.987627291163
3785.75,967.482662811586
3786,967.672728931539
3786.25,970.458911923105
3786.5,974.509334167352
3786.75,977.519833511678
3787,977.182240939612
3787.25,971.91500053744
3787.5,963.634735590931
3787.75,955.309479563278
3788,949.907446571782
3788.25,949.417133574866
3788.5,952.249792298539
3788.75,956.000442022818
3789,958.271744396164
3789.25,957.798433581038
3789.5,955.635316391832
3789.75,953.121526977238
3790,951.571000407064
3790.25,951.309738328923
3790.5,951.375548278164
3790.75,950.719657659584
3791,948.371225903441
3791.25,944.569856972823
3791.5,940.510174446843
3791.75,937.412747687046
3792,936.306899177563
3792.25,936.765568515001
3792.5,937.691746982174
3792.75,937.984904097838
3793,936.903971015631
3793.25,934.97288824177
3793.5,932.993724467381
3793.75,931.762189365077
3794,931.543471774995
3794.25,931.680958813819
3794.5,931.425854040408
3794.75,930.078969664927
3795,927.804491179159
3795.25,925.499169601295
3795.5,924.08298148233
3795.75,924.291418126713
3796,925.655045949415
3796.25,927.220724472589
3796.5,928.034961181765
3796.75,927.626417644058
3797,926.788270375771
3797.25,926.518482148044
3797.5,927.784621089043
3797.75,930.563949618025
3798,933.648155850896
3798.25,935.75908259503
3798.5,935.758882308869
3798.75,933.846695679936
3799,930.962433425068
3799.25,928.053876530014
3799.5,925.885579313341
3799.75,924.44207885924
3800,923.500382988417
3800.25,922.839158358646
3800.5,922.407391542805
3800.75,922.469550629267
3801,923.324302065851
3801.25,925.226409564198
3801.5,927.705100952534
3801.75,929.693767169116
3802,930.108152018562
3802.25,928.188432748455
3802.5,925.043661498736
3802.75,922.450696123614
3803,922.18463821699
3803.25,925.03517844205
3803.5,929.326646452997
3803.75,933.004097207214
3804,934.077686727384
3804.25,932.27547079814
3804.5,929.175690761941
3804.75,926.448191836424
3805,925.582295660487
3805.25,926.418477826067
3805.5,927.914167560501
3805.75,929.018425517868
3806,929.011442173904
3806.25,928.377890523889
3806.5,927.876229956635
3806.75,928.257276589005
3807,929.749438185212
3807.25,931.73239619661
3807.5,933.508067723111
3807.75,934.405740533452
3808,934.158092459108
3808.25,932.805213015832
3808.5,930.394921351793
3808.75,927.075360860624
3809,923.593507709457
3809.25,920.917585422758
3809.5,920.014979697343
3809.75,921.301420103537
3810,923.76616711322
3810.25,926.170980483033
3810.5,927.31363509303
3810.75,926.959222559381
3811,925.924300632391
3811.25,925.078308783293
3811.5,925.183737631782
3811.75,926.102940658269
3812,927.247500878627
3812.25,928.02566745672
3812.5,928.002004355349
3812.75,927.263427045272
3813,926.005831708012
3813.25,924.426515943726
3813.5,922.798502491714
3813.75,921.507617933257
3814,920.948877244478
3814.25,921.461660125523
3814.5,922.693494002036
3814.75,923.823161465152
3815,924.020562320046
3815.25,922.73047650142
3815.5,920.621361640432
3815.75,918.702060801833
3816,917.975130171791
3816.25,918.803517315898
3816.5,920.369059101111
3816.75,921.72604640846
3817,921.99179399025
3817.25,921.239854095548
3817.5,920.286709662387
3817.75,919.96835234087
3818,920.895784802097
3818.25,922.494433671585
3818.5,923.800614333158
3818.75,923.85451075973
3819,922.315893641935
3819.25,920.120929384584
3819.5,918.363173789524
3819.75,918.094842393871
3820,919.548802984818
3820.25,922.205577434313
3820.5,925.517778297833
3820.75,928.907588445319
3821,931.611495577155
3821.25,932.79595202691
3821.5,931.628948030223
3821.75,927.940799171589
3822,923.231589986949
3822.25,919.260448215682
3822.5,917.741341334536
3822.75,918.898892767866
3823,921.164335698946
3823.25,922.862275189526
3823.5,922.534068511001
3823.75,920.564465338837
3824,918.269379522773
3824.25,916.971787824461
3824.5,917.504067183383
3824.75,919.082623797117
3825,920.591625516487
3825.25,920.936812915911
3825.5,919.87717684299
3825.75,918.288637774741
3826,917.122626470725
3826.25,917.219193256223
3826.5,918.3199064675
3826.75,919.540931855837
3827,919.991216983984
3827.25,919.145335364321
3827.5,917.75521533196
3827.75,916.851568274192
3828,917.446126313756
3828.25,919.63558369648
3828.5,922.213884316871
3828.75,923.875403943572
3829,923.453780375027
3829.25,921.233743546849
3829.5,918.362228608322
3829.75,915.997554833196
3830,915.025836795955
3830.25,915.248987052481
3830.5,916.199016958859
3830.75,917.40925828943
3831,918.489952116297
3831.25,919.16923607
3831.5,919.185237515105
3831.75,918.316333093418
3832,916.803939605538
3832.25,915.185918880499
3832.5,914.004971600564
3832.75,913.700281265348
3833,914.288951814945
3833.25,915.680525998612
3833.5,917.780044655563
3833.75,920.230696518322
3834,922.274479596174
3834.25,923.119422120918
3834.5,922.072936297583
3834.75,919.584966864114
3835,916.836540678503
3835.25,915.020600981574
3835.5,915.027853363815
3835.75,916.456807139387
3836,918.560697837195
3836.25,920.596553366541
3836.5,922.07671993069
3836.75,922.926006556565
3837,923.106731678572
3837.25,922.600759919074
3837.5,921.642609563748
3837.75,920.642749464613
3838,920.01522170787
3838.25,920.072867995144
3838.5,920.6524191176
3838.75,921.450717912991
3839,922.16465476856
3839.25,922.498004835927
3839.5,922.167338836878
3839.75,920.890620344596
3840,918.433303868415
3840.25,915.336822695131
3840.5,912.775266885526
3840.75,911.941177845781
3841,913.690479878321
3841.25,917.048397462017
3841.5,920.42079425052
3841.75,922.220458277174
3842,921.754933546125
3842.25,920.068231520542
3842.5,918.403693924281
3842.75,917.942235486139
3843,918.775695502949
3843.25,920.070453874285
3843.5,920.963458808473
3843.75,920.753408710254
3844,919.639928159747
3844.25,918.134467009243
3844.5,916.748050729257
3844.75,915.849743928737
3845,915.497559178575
3845.25,915.708288333879
3845.5,916.489542304717
3845.75,917.671576998653
3846,918.924260626183
3846.25,919.91168467463
3846.5,920.361025927644
3846.75,920.368315387801
3847,920.163249504785
3847.25,919.975304462048
3847.5,919.941681808432
3847.75,919.990598929975
3848,920.021508362726
3848.25,919.937327775962
3848.5,919.715420366732
3848.75,919.40478867473
3849,919.057338876096
3849.25,918.744652566207
3849.5,918.668514377903
3849.75,919.083604029329
3850,920.244109795252
3850.25,922.156818096098
3850.5,924.208410862731
3850.75,925.689979474761
3851,925.921969710986
3851.25,924.971798638577
3851.5,923.696077295005
3851.75,922.989223657654
3852,923.600564467863
3852.25,925.116622015471
3852.5,926.565103845356
3852.75,926.970353576524
3853,925.770759715174
3853.25,923.697741526821
3853.5,921.734430751436
3853.75,920.846880411512
3854,921.228143807962
3854.25,921.999031005166
3854.5,922.201408466759
3854.75,920.994263726633
3855,918.783720107067
3855.25,916.729318178678
3855.5,916.001043858899
3855.75,917.368950886298
3856,920.018908124701
3856.25,922.744586495128
3856.5,924.351513909932
3856.75,924.326910018177
3857,923.197868710111
3857.25,921.579006208863
3857.5,920.070810857481
3857.75,919.094842210866
3858,918.94983941987
3858.25,919.932135850224
3858.5,922.152894610894
3858.75,924.886691924243
3859,927.171955380715
3859.25,928.053896977696
3859.5,927.20263981573
3859.75,925.407969473154
3860,923.576097225476
3860.25,922.568988729032
3860.5,922.493470365907
3860.75,922.823435720039
3861,923.013213084298
3861.25,922.64085896029
3861.5,922.005514669628
3861.75,921.666832538707
3862,922.183228326945
3862.25,923.69393334309
3862.5,925.359082240395
3862.75,926.199259265012
3863,925.28185079631
3863.25,922.772319482162
3863.5,919.946355461904
3863.75,918.128881344968
3864,918.422073538495
3864.25,920.238088531965
3864.5,922.214131355049
3864.75,922.984041252485
3865,921.733087427309
3865.25,919.192644761294
3865.5,916.363026027819
3865.75,914.229847009347
3866,913.291594389045
3866.25,913.458775675411
3866.5,914.606807246075
3866.75,916.573375480966
3867,918.886822287555
3867.25,920.923937916814
3867.5,922.060744650558
3867.75,921.964368967125
3868,921.146659485227
3868.25,920.271817841843
3868.5,919.990006766639
3868.75,920.465459594509
3869,921.263755330977
3869.25,921.913581051111
3869.5,922.009097451186
3869.75,921.733268068618
3870,921.58044735243
3870.25,922.047793684348
3870.5,923.427116834276
3870.75,925.307803611576
3871,927.129175248632
3871.25,928.33663691325
3871.5,928.67066626848
3871.75,928.292855928991
3872,927.397094946411
3872.25,926.185625671405
3872.5,924.962988127653
3872.75,924.102272166641
3873,923.977830431106
3873.25,924.805980862715
3873.5,926.056172287824
3873.75,926.977431368507
3874,926.823151719066
3874.25,925.386627939745
3874.5,923.513846877241
3874.75,922.172320578479
3875,922.27461796069
3875.25,923.681638304579
3875.5,925.308440897878
3875.75,926.036382492796
3876,924.977894041272
3876.25,922.691257337189
3876.5,920.292830378219
3876.75,918.89913763284
3877,919.15904914692
3877.25,920.514951547297
3877.5,922.217294736387
3877.75,923.535211884931
3878,924.227762532024
3878.25,924.579919246249
3878.5,924.902546534091
3878.75,925.46143504869
3879,926.16803715129
3879.25,926.766291211159
3879.5,926.999205316744
3879.75,926.764828657286
3880,926.44838347591
3880.25,926.530532818068
3880.5,927.47846647451
3880.75,929.14141494147
3881,930.506674084785
3881.25,930.49757142848
3881.5,928.179715199479
3881.75,924.282171408901
3882,920.611706395425
3882.25,918.993251510042
3882.5,920.761707473263
3882.75,924.940706773232
3883,929.873099281039
3883.25,933.907815070079
3883.5,936.016142715247
3883.75,936.316118988235
3884,935.049279792531
3884.25,932.468830045366
3884.5,929.054613362749
3884.75,925.492091256767
3885,922.47417760201
3885.25,920.644257136868
3885.5,920.281262753351
3885.75,921.501402715272
3886,924.419680529792
3886.25,928.726852625592
3886.5,932.901539803973
3886.75,935.207278339381
3887,933.958269931425
3887.25,929.249041282749
3887.5,923.382911556687
3887.75,918.800810030568
3888,917.71147730467
3888.25,919.728468297673
3888.5,922.839123809401
3888.75,925.005762462592
3889,924.767218262097
3889.25,922.929776159349
3889.5,920.857092272441
3889.75,919.901310604803
3890,920.56357321684
3890.25,921.924487223081
3890.5,922.929780892497
3890.75,922.596287486159
3891,920.903360778856
3891.25,918.522634325693
3891.5,916.140951573383
3891.75,914.365322939686
3892,913.413106313695
3892.25,913.382958920929
3892.5,914.371650131061
3892.75,916.289693108352
3893,918.705025536493
3893.25,921.148774022942
3893.5,923.177042093867
3893.75,924.699759467366
3894,925.889398738459
3894.25,926.924641669847
3894.5,927.944330274019
3894.75,928.888209442587
3895,929.633955858117
3895.25,930.059980793337
3895.5,930.173206739143
3895.75,930.253157945977
3896,930.61414936018
3896.25,931.557461867754
3896.5,933.081979955525
3896.75,934.882732874781
3897,936.64142404708
3897.25,938.040188665213
3897.5,938.764630983917
3897.75,938.502025964097
3898,936.939662564919
3898.25,933.960589477306
3898.5,930.171557165563
3898.75,926.346515619453
3899,923.255642727366
3899.25,921.318829457401
3899.5,920.326367532689
3899.75,920.002820063138
3900,920.081407323297
3900.25,920.434353097724
3900.5,921.045944643112
3900.75,921.903659861731
3901,922.963307507411
3901.25,924.010699549897
3901.5,924.774851369154
3901.75,924.986003868346
3902,924.598897377718
3902.25,924.049197901774
3902.5,923.834658389776
3902.75,924.424207200143
3903,925.66719169072
3903.25,926.816563264176
3903.5,927.101087855881
3903.75,925.883104350166
3904,923.454995287757
3904.25,920.504635791441
3904.5,917.721227300772
3904.75,915.668679421702
3905,914.550120762547
3905.25,914.504134118691
3905.5,915.656727147365
3905.75,917.740926205525
3906,920.028690633977
3906.25,921.765678419878
3906.5,922.301031432051
3906.75,921.802774698604
3907,920.828240034474
3907.25,919.937036211493
3907.5,919.53247694659
3907.75,919.540976332306
3908,919.79831102671
3908.25,920.140486244171
3908.5,920.41184035218
3908.75,920.46722785766
3909,920.162175843574
3909.25,919.39426759747
3909.5,918.451187405103
3909.75,917.832154547878
3910,918.038453005551
3910.25,919.324053764258
3910.5,921.094029197717
3910.75,922.57145673479
3911,922.993649563017
3911.25,922.225884942593
3911.5,920.995143824296
3911.75,920.090863084749
3912,920.221365244429
3912.25,921.219206159579
3912.5,922.382280002673
3912.75,923.000839401348
3913,922.609422293546
3913.25,921.69842233532
3913.5,920.991991149316
3913.75,921.205913793822
3914,922.482549953572
3914.25,924.031745359449
3914.5,924.977794604816
3914.75,924.527795563383
3915,922.98561315466
3915.25,921.432111894562
3915.5,920.964614717659
3915.75,922.362661372789
3916,924.843981481068
3916.25,927.147294095214
3916.5,928.017393683241
3916.75,926.96759541044
3917,925.013649466523
3917.25,923.345309411778
3917.5,923.092360585338
3917.75,924.211532032963
3918,925.590768246664
3918.25,926.078956513795
3918.5,924.767164496535
3918.75,922.304790373601
3919,919.958362993769
3919.25,918.994824092333
3919.5,920.075655971801
3919.75,922.259591672155
3920,924.343180721519
3920.25,925.155855679202
3920.5,924.428973172238
3920.75,922.884994503884
3921,921.297149854544
3921.25,920.337335095513
3921.5,919.835299862144
3921.75,919.203503763582
3922,917.851561371253
3922.25,915.545313512347
3922.5,913.173133760565
3922.75,911.843953395599
3923,912.638126956609
3923.25,915.57625856056
3923.5,919.331191365034
3923.75,922.488544018562
3924,923.799811530822
3924.25,923.412444282966
3924.5,922.172897785287
3924.75,920.932784440155
3925,920.330662777824
3925.25,920.309889927669
3925.5,920.672257130955
3925.75,921.219721933263
3926,921.761351172224
3926.25,922.115837902999
3926.5,922.102559410699
3926.75,921.569602558308
3927,920.661099998458
3927.25,919.695680541646
3927.5,918.994222187408
3927.75,918.797089936384
3928,919.03435010564
3928.25,919.561326195737
3928.5,920.232071217164
3928.75,920.826097324955
3929,921.008338944245
3929.25,920.433985774273
3929.5,918.812281149268
3929.75,916.50454171405
3930,914.304310637706
3930.25,913.012871249385
3930.5,913.219266921239
3930.75,914.601799828441
3931,916.594533839581
3931.25,918.634686806691
3931.5,920.361284956056
3931.75,921.733500163235
3932,922.73892015053
3932.25,923.360641125723
3932.5,923.526812040777
3932.75,923.128789379251
3933,922.057253172974
3933.25,920.32149935667
3933.5,918.464572188961
3933.75,917.17958051765
3934,917.153948141466
3934.25,918.519916867753
3934.5,920.396808496309
3934.75,921.796193659359
3935,921.801324505543
3935.25,920.547398264112
3935.5,918.968982006132
3935.75,918.020612433624
3936,918.432077392966
3936.25,919.778793337505
3936.5,921.266578613904
3936.75,922.10373825583
3937,921.835980803049
3937.25,920.673278808563
3937.5,918.903192367482
3937.75,916.822376768974
3938,914.889687038659
3938.25,913.703704790062
3938.5,913.867580838119
3938.75,915.799054121737
3939,918.866495608004
3939.25,922.069512194184
3939.5,924.410004344258
3939.75,925.295064863954
3940,924.965079948225
3940.25,923.76297834748
3940.5,922.034822183026
3940.75,920.188605866376
3941,918.689099522642
3941.25,918.003172888618
3941.5,918.485838224077
3941.75,919.767020795841
3942,921.187556494663
3942.25,922.088553381968
3942.5,922.142894106425
3942.75,921.830351653508
3943,921.75101557777
3943.25,922.481460100523
3943.5,924.007389012395
3943.75,925.6944351393
3944,926.878871606909
3944.25,926.98426598538
3944.5,926.092820502194
3944.75,924.587295555233
3945,922.851979794264
3945.25,921.254658169679
3945.5,920.111966746891
3945.75,919.730662398362
3946,920.407699936633
3946.25,922.044423827858
3946.5,924.019684032357
3946.75,925.676534407437
3947,926.422019241503
3947.25,926.29293404946
3947.5,925.684010238834
3947.75,924.994105419154
3948,924.555105102551
3948.25,924.438798457869
3948.5,924.65384224156
3948.75,925.207872884689
3949,926.035559102133
3949.25,926.951141151491
3949.5,927.757593292982
3949.75,928.263524170842
3950,928.358607534201
3950.25,927.993303588801
3950.5,927.119545532564
3950.75,925.727923605513
3951,924.019370985783
3951.25,922.266018168942
3951.5,920.739625316857
3951.75,919.608920243016
3952,918.806272375198
3952.25,918.23104136414
3952.5,917.792917498995
3952.75,917.632449938233
3953,918.117360085271
3953.25,919.624962597166
3953.5,922.371768654603
3953.75,925.508299110375
3954,927.751328077798
3954.25,927.818013173668
3954.5,925.10761024869
3954.75,920.751436134256
3955,916.151642051693
3955.25,912.689133484172
3955.5,911.093340337442
3955.75,911.336416663979
3956,913.347960390159
3956.25,916.943148623806
3956.5,921.053685023775
3956.75,924.199993834614
3957,924.901435666398
3957.25,922.470707331938
3957.5,918.377710188165
3957.75,914.455538877105
3958,912.495208580777
3958.25,912.912657400337
3958.5,914.475271960894
3958.75,915.853099816647
3959,915.891900824413
3959.25,914.829014292505
3959.5,913.563816059323
3959.75,912.99940980529
3960,913.755436231112
3960.25,915.644617217455
3960.5,918.337047454263
3960.75,921.496842453142
3961,924.623195256981
3961.25,927.033543731618
3961.5,928.035970052088
3961.75,927.087705604059
3962,924.811165577666
3962.25,922.376664872597
3962.5,920.957570438015
3962.75,921.271096385204
3963,922.557841138654
3963.25,923.760157012231
3963.5,923.839293698007
3963.75,922.551071681514
3964,920.719564392302
3964.25,919.243986629886
3964.5,918.939074647315
3964.75,919.719491958805
3965,920.955910987092
3965.25,922.011452953959
3965.5,922.374320738798
3965.75,922.010905137564
3966,921.001852062221
3966.25,919.43126614739
3966.5,917.600313931338
3966.75,916.152210287162
3967,915.760258274637
3967.25,917.018208892099
3967.5,919.526580290787
3967.75,922.21102518321
3968,923.984313796447
3968.25,924.051368852532
3968.5,922.84582059165
3968.75,921.124265187432
3969,919.63875549207
3969.25,918.750867976903
3969.5,918.137271570618
3969.75,917.405310433287
3970,916.19835514908
3970.25,914.683313312582
3970.5,913.422316804963
3970.75,912.987223793761
3971,913.777569318115
3971.25,915.366059130523
3971.5,917.077711257448
3971.75,918.240821076222
3972,918.468749261757
3972.25,917.874603877389
3972.5,916.622041985091
3972.75,914.883283305101
3973,912.951069918656
3973.25,911.207182497592
3973.5,910.035486120735
3973.75,909.713436585622
3974,910.026359640897
3974.25,910.617407697841
3974.5,911.13304392835
3974.75,911.454118404197
3975,911.846414188239
3975.25,912.6114910891
3975.5,914.006066956894
3975.75,915.767728877541
3976,917.300162255134
3976.25,918.00153407722
3976.5,917.506441475822
3976.75,916.351230260757
3977,915.287197000362
3977.25,915.053284024712
3977.5,915.700786058271
3977.75,916.24487578441
3978,915.614983721376
3978.25,912.888050092228
3978.5,908.75223820308
3978.75,904.888051773774
3979,902.990529905752
3979.25,904.108521197467
3979.5,906.886071970073
3979.75,909.407926187793
3980,909.800479689088
3980.25,907.699014697853
3980.5,904.637368898031
3980.75,902.27025717586
3981,902.022148354658
3981.25,903.455322149503
3981.5,905.230186999742
3981.75,906.003286038354
3982,905.151348641159
3982.25,903.828622650912
3982.5,903.458758087822
3982.75,905.386566437377
3983,909.445784206486
3983.25,914.110040697619
3983.5,917.804425137377
3983.75,919.254288223906
3984,918.692940580091
3984.25,916.826063678151
3984.5,914.359173280043
3984.75,911.958813236162
3985,910.216347553469
3985.25,909.714573226674
3985.5,910.974358263758
3985.75,913.561932656901
3986,916.294056733978
3986.25,917.967350084927
3986.5,917.731754505841
3986.75,916.366810461265
3987,915.12156455555
3987.25,915.235473663628
3987.5,917.07125670106
3987.75,919.425617271526
3988,920.933054515828
3988.25,920.343074858733
3988.5,917.992357521056
3988.75,915.374438873969
3989,914.009092150015
3989.25,915.006452980652
3989.5,917.495087622062
3989.75,920.005187623815
3990,921.077455915482
3990.25,920.219050764815
3990.5,918.662477424994
3990.75,917.818828507781
3991,918.994804186378
3991.25,921.915857241517
3991.5,925.080283806649
3991.75,926.954235563198
3992,926.397871297422
3992.25,924.246587429161
3992.5,921.953451182823
3992.75,920.96739819562
3993,921.989286603594
3993.25,924.128535539055
3993.5,926.290769978242
3993.75,927.422528238699
3994,927.279724593783
3994.25,926.360643761238
3994.5,925.191051318876
3994.75,924.252151807146
3995,923.721196346691
3995.25,923.648537354093
3995.5,924.083926730849
3995.75,924.949611006386
3996,925.81582260946
3996.25,926.192559930415
3996.5,925.605811638686
3996.75,924.107690708379
3997,922.383140859928
3997.25,921.154665778881
3997.5,921.074197683728
3997.75,922.126253223172
3998,923.927775201296
3998.25,926.091877185984
3998.5,928.234368978416
3998.75,929.98058659291
3999,930.957968892894
3999.25,930.800809251117
3999.5,929.542565761231
3999.75,927.82853958391
4000,926.35586959293
4000.25,925.778150498973
4000.5,926.131216760105
4000.75,926.992059742711
4001,927.926793879561
4001.25,928.553130989238
4001.5,928.759780275737
4001.75,928.52411109023
4002,927.823642357141
4002.25,926.657507069549
4002.5,925.073372742133
4002.75,923.125522349469
4003,920.876942765787
4003.25,918.604842759838
4003.5,916.80875141239
4003.75,915.998522086498
4004,916.565088353071
4004.25,918.014377678311
4004.5,919.453249845381
4004.75,919.987582104085
4005,919.297468959889
4005.25,918.609097125764
4005.5,919.406229682574
4005.75,923.127170277388
4006,929.898571072128
4006.25,938.367990232773
4006.5,947.103886386263
4006.75,954.750858817733
4007,960.573699372341
4007.25,964.13936710714
4007.5,965.016848946626
4007.75,963.08241859888
4008,959.540822455929
4008.25,955.955730735132
4008.5,953.890194253522
4008.75,954.328815777698
4009,956.607070015309
4009.25,959.768474495513
4009.5,962.860300465664
4009.75,965.224414785727
4010,966.704416427329
4010.25,967.192803953998
4010.5,966.593544382722
4010.75,965.147861978195
4011,963.480948391186
4011.25,962.238855054004
4011.5,961.995298973669
4011.75,962.162374050589
4012,961.215585732049
4012.25,957.603767155244
4012.5,950.070975410473
4012.75,940.068583355129
4013,930.502581822566
4013.25,924.292915735996
4013.5,923.653971035774
4013.75,927.10427475316
4014,931.956310871965
4014.25,935.527685567149
4014.5,936.163120984801
4014.75,934.407446614402
4015,931.089494050034
4015.25,927.028053154063
4015.5,922.780951713105
4015.75,918.62721202008
4016,914.83224105821
4016.25,911.630656598252
4016.5,908.996750008077
4016.75,906.77394875669
4017,904.80472234461
4017.25,902.971254354055
4017.5,901.272776721308
4017.75,899.729978723286
4018,898.362424746093
4018.25,897.161597327869
4018.5,896.089611969642
4018.75,895.10720208242
4019,894.135418766115
4019.25,892.871912872776
4019.5,890.936223020183
4019.75,887.954640203591
4020,884.053597701373
4020.25,880.191516687784
4020.5,877.405459498736
4020.75,876.572171701413
4021,877.177875545915
4021.25,877.994862358519
4021.5,877.794601981875
4021.75,875.999455921546
4022,873.320125559603
4022.25,870.618770247256
4022.5,868.664781544062
4022.75,867.367312999535
4023,866.169156489565
4023.25,864.511375153921
4023.5,862.179603906113
4023.75,859.626437470821
4024,857.38078693667
4024.25,855.833986268062
4024.5,854.331657077428
4024.75,851.739164323201
4025,846.943822349407
4025.25,840.027911180837
4025.5,832.783746949291
4025.75,827.135299765208
4026,824.439606385859
4026.25,823.552902547469
4026.5,822.642090382201
4026.75,820.025299376634
4027,815.825661768173
4027.25,811.353409314054
4027.5,807.921490868501
4027.75,806.004320885642
4028,804.902052671392
4028.25,803.827542320535
4028.5,802.198840254124
4028.75,799.983819933106
4029,797.241480119515
4029.25,794.071071427365
4029.5,790.776928495782
4029.75,787.728536026928
4030,785.267769117685
4030.25,783.480694275056
4030.5,782.314898618808
4030.75,781.694598791035
4031,781.192551880265
4031.25,780.099161830415
4031.5,777.726567263031
4031.75,774.236131608588
4032,770.742263717454
4032.25,768.395954411609
4032.5,767.547421067349
4032.75,767.327137002794
4033,766.76754574906
4033.25,765.369541090907
4033.5,763.509774064021
4033.75,761.660217208993
4034,760.135731535661
4034.25,758.89666251391
4034.5,757.854863512501
4034.75,756.967952518651
4035,756.311863891983
4035.25,755.981185731027
4035.5,755.882728664988
4035.75,755.390923965156
4036,753.786760933215
4036.25,750.780342321738
4036.5,747.386541243148
4036.75,744.867124650009
4037,743.957045988552
4037.25,743.712417018576
4037.5,742.85598297927
4037.75,740.590503677342
4038,737.560802590722
4038.25,734.680914586318
4038.5,732.516273597693
4038.75,730.667257226732
4039,728.569632524274
4039.25,725.921805084065
4039.5,723.034528894929
4039.75,720.303393102431
4040,717.893867345463
4040.25,715.546449208152
4040.5,712.961701285701
4040.75,710.094708820244
4041,707.245014318534
4041.25,704.723356306706
4041.5,702.572546754783
4041.75,700.586676951375
4042,698.563689661418
4042.25,696.436394854247
4042.5,694.216193992149
4042.75,691.934964131635
4043,689.728565535874
4043.25,687.767176443028
4043.5,686.081366604606
4043.75,684.319998926945
4044,682.074028158641
4044.25,679.235703620633
4044.5,676.113461763454
4044.75,673.041386455532
4045,670.292964108635
4045.25,668.100236643767
4045.5,666.570811930866
4045.75,665.228550167795
4046,663.430115881009
4046.25,661.013174626153
4046.5,658.693024637939
4046.75,657.207943245273
4047,656.310464876875
4047.25,655.027346081088
4047.5,652.662122695686
4047.75,649.747146694072
4048,647.125730884037
4048.25,645.137242893615
4048.5,643.403017754255
4048.75,641.537964454425
4049,639.548286048639
4049.25,637.628999379266
4049.5,635.923300241514
4049.75,634.45638436649
4050,633.226699905823
4050.25,632.098347740047
4050.5,630.844703241431
4050.75,629.329201643454
4051,627.677677406535
4051.25,626.040565660679
4051.5,624.224691949235
4051.75,621.764893602025
4052,618.487039422286
4052.25,615.154081204083
4052.5,612.65896520179
4052.75,611.073721117423
4053,609.827567023282
4053.25,608.529970266724
4053.5,607.316795506912
4053.75,606.381711218669
4054,605.616644094547
4054.25,604.735522737654
4054.5,603.57743274224
4054.75,602.216298416646
4055,600.77345742516
4055.25,599.510177824718
4055.5,598.73051426993
4055.75,598.377485208719
4056,597.973384316527
4056.25,597.186068806679
4056.5,596.274221087897
4056.75,595.599328999807
4057,595.205763411423
4057.25,594.927599509643
4057.5,594.749951334021
4057.75,594.943038961745
4058,595.703669531482
4058.25,596.647724027701
4058.5,597.208341767221
4058.75,597.230383351888
4059,596.960209423932
4059.25,596.593622094771
4059.5,596.138939573315
4059.75,595.59167937037
4060,595.127704326188
4060.25,595.01667445264
4060.5,595.354630456865
4060.75,595.978713848939
4061,596.73542075969
4061.25,597.603974377278
4061.5,598.588572930067
4061.75,599.513951705681
4062,600.062377931245
4062.25,600.113758276973
4062.5,600.005533340314
4062.75,600.106999837569
4063,600.551991573615
4063.25,601.361614283456
4063.5,602.338318325437
4063.75,602.996770922052
4064,603.026448895593
4064.25,602.918216880132
4064.5,603.328473312101
4064.75,604.246418676387
4065,605.117992218694
4065.25,605.601020012148
4065.5,605.912340874525
4065.75,606.317642279487
4066,606.770970591525
4066.25,607.066072694965
4066.5,607.113825558275
4066.75,607.014318050546
4067,606.889840887307
4067.25,606.891656776138
4067.5,607.172424647693
4067.75,607.654152980487
4068,608.007048344179
4068.25,608.021579476475
4068.5,607.962448782008
4068.75,608.174926853475
4069,608.638588219633
4069.25,609.056527371065
4069.5,609.209230994837
4069.75,609.079141859422
4070,608.694716925205
4070.25,608.23253635924
4070.5,607.945745049674
4070.75,607.926606331713
4071,607.995359818382
4071.25,607.985377215366
4071.5,607.962296150467
4071.75,608.075041074612
4072,608.414800552474
4072.25,609.004849973257
4072.5,609.822234913209
4072.75,610.677972050768
4073,611.351644685469
4073.25,611.778533846944
4073.5,612.023298095016
4073.75,612.128273681832
4074,612.063644583393
4074.25,611.794765731719
4074.5,611.369959453516
4074.75,610.889246624008
4075,610.437108425388
4075.25,610.064598057495
4075.5,609.824879693257
4075.75,609.818926871095
4076,610.165322832188
4076.25,610.731269539731
4076.5,611.008076148175
4076.75,610.622279796651
4077,610.079158242228
4077.25,610.144032946554
4077.5,610.765652700388
4077.75,610.993403583999
4078,610.209630263836
4078.25,609.211849355395
4078.5,609.057240837952
4078.75,609.657282016159
4079,609.992865143074
4079.25,609.520194924615
4079.5,609.012257675012
4079.75,609.34982255676
4080,610.338281870059
4080.25,611.158957218053
4080.5,611.477530417842
4080.75,611.871544995662
4081,612.856674639341
4081.25,613.845911784262
4081.5,613.808266017699
4081.75,612.560167065226
4082,611.094911900703
4082.25,610.296672320169
4082.5,610.051943574706
4082.75,609.941989558947
4083,609.856144317851
4083.25,610.01230857856
4083.5,610.50803696042
4083.75,610.950591248348
4084,610.873739788534
4084.25,610.369922106035
4084.5,609.966141918121
4084.75,609.95902957836
4085,610.026286592713
4085.25,609.792127113458
4085.5,609.318083025849
4085.75,608.914597102429
4086,608.787744322901
4086.25,608.947205558431
4086.5,609.356612271769
4086.75,609.814152056948
4087,610.056583541191
4087.25,610.038601626056
4087.5,609.99842324394
4087.75,610.165199750414
4088,610.641581264172
4088.25,611.480674025071
4088.5,612.444367927892
4088.75,613.01811203234
4089,612.866917745628
4089.25,612.263373294491
4089.5,611.592115888777
4089.75,611.11755583595
4090,611.01680536141
4090.25,611.343894796574
4090.5,611.86363264859
4090.75,612.324078278649
4091,612.709008355252
4091.25,613.128595001876
4091.5,613.597917257332
4091.75,613.961558909292
4092,614.079845480534
4092.25,614.034621564727
4092.5,613.995878333653
4092.75,614.02005075432
4093,614.006115230243
4093.25,613.892158520017
4093.5,613.873920282367
4093.75,614.221101412137
4094,614.991244238985
4094.25,616.008953701249
4094.5,617.061008423001
4094.75,617.833078149888
4095,618.015194787434
4095.25,617.843956866289
4095.5,618.042704360485
4095.75,619.069782814434
4096,620.474655351545
4096.25,621.64001400515
4096.5,622.187185545476
4096.75,621.92130474869
4097,620.928517512419
4097.25,620.077444324693
4097.5,620.286946440481
4097.75,621.306353598147
4098,622.051121515789
4098.25,621.957466973051
4098.5,621.852419142308
4098.75,622.679170390618
4099,624.130221329193
4099.25,625.079685323383
4099.5,624.901085063344
4099.75,624.205907783999
4100,623.74243345795
4100.25,623.736368851906
4100.5,624.081449821107
4100.75,624.602244314247
4101,624.971153411056
4101.25,624.895582171731
4101.5,624.714677364498
4101.75,625.158270560872
4102,626.474966792569
4102.25,627.766288671583
4102.5,628.08830599637
4102.75,627.817492413556
4103,628.148535826393
4103.25,629.676312150521
4103.5,631.504777682388
4103.75,632.57959493139
4104,632.621892766443
4104.25,631.866446914637
4104.5,630.711540478037
4104.75,629.976943314895
4105,630.477822372355
4105.25,631.898509285918
4105.5,633.055423725572
4105.75,633.192919302538
4106,632.969180298849
4106.25,633.274559175932
4106.5,634.174730502063
4106.75,635.009990450896
4107,635.272935280668
4107.25,635.128721309381
4107.5,634.898446932254
4107.75,634.807134891687
4108,634.977853503429
4108.25,635.453351432443
4108.5,635.912194032184
4108.75,635.93677273823
4109,635.648060276045
4109.25,635.871632623428
4109.5,637.261916049136
4109.75,639.107517034136
4110,640.182729553898
4110.25,640.112151672266
4110.5,639.927429406011
4110.75,640.646846832841
4111,642.02249763128
4111.25,643.154951209526
4111.5,643.47720909431
4111.75,643.198622957926
4112,642.638098250597
4112.25,642.127433146603
4112.5,642.007892236262
4112.75,642.504162094424
4113,643.433350443716
4113.25,644.522891928815
4113.5,645.479190630227
4113.75,645.986357121758
4114,645.825771107545
4114.25,645.307987806408
4114.5,644.916879790457
4114.75,644.874292977736
4115,644.978413950967
4115.25,645.013271659985
4115.5,644.984041907111
4115.75,645.013623085728
4116,645.218246372618
4116.25,645.694630390033
4116.5,646.517410507626
4116.75,647.449366914079
4117,647.99885040555
4117.25,647.888742353923
4117.5,647.746103270786
4117.75,648.409602781965
4118,650.003431164275
4118.25,651.72844335088
4118.5,652.815924435666
4118.75,653.153198341372
4119,652.913923218629
4119.25,652.366817816546
4119.5,651.988847741383
4119.75,652.250283129303
4120,653.081494672956
4120.25,653.986288725191
4120.5,654.564391560241
4120.75,654.86936581822
4121,655.071544437467
4121.25,655.201056809998
4121.5,655.088906842794
4121.75,654.602780655187
4122,654.067329241187
4122.25,654.044488650116
4122.5,654.789744325623
4122.75,655.709494640504
4123,656.090110875051
4123.25,655.761442702901
4123.5,655.082349485547
4123.75,654.414088933264
4124,654.007959876528
4124.25,654.07535984087
4124.5,654.683352774647
4124.75,655.631096941006
4125,656.685515246418
4125.25,657.575184356021
4125.5,658.002853296917
4125.75,657.801284072439
4126,657.285315813904
4126.25,656.875826406489
4126.5,656.78264691225
4126.75,656.937509420312
4127,657.25390852752
4127.25,657.651518417207
4127.5,658.053115924096
4127.75,658.416283440094
4128,658.790983950796
4128.25,659.236964957363
4128.5,659.694038527309
4128.75,659.984164941706
4129,659.981827454357
4129.25,659.90162505076
4129.5,660.081016900715
4129.75,660.597067157003
4130,660.993257374933
4130.25,660.792132249629
4130.5,660.20506283052
4130.75,659.986578119598
4131,660.665279413388
4131.25,661.640593826016
4131.5,661.990376881674
4131.75,661.473710711354
4132,660.983036811162
4132.25,661.431971964602
4132.5,662.706524386037
4132.75,664.016029933881
4133,664.74360788293
4133.25,664.982372018522
4133.5,664.993630985277
4133.75,664.964984908129
4134,664.977357877264
4134.25,665.104087106127
4134.5,665.426361309761
4134.75,666.030006848167
4135,666.906969455044
4135.25,667.715045216648
4135.5,668.046952966243
4135.75,667.910884053025
4136,667.891164937653
4136.25,668.530043638958
4136.5,669.507603016113
4136.75,669.999794480122
4137,669.475931064415
4137.25,668.496706441088
4137.5,667.86145252041
4137.75,667.855742752537
4138,668.006213428382
4138.25,667.826472466846
4138.5,667.363877330793
4138.75,666.998579010427
4139,666.985772662187
4139.25,667.072165379636
4139.5,666.885843668059
4139.75,666.381082571524
4140,666.009464706127
4140.25,666.20676223652
4140.5,666.75051988495
4140.75,666.999150870554
4141,666.502570174396
4141.25,665.585745367085
4141.5,664.758718194989
4141.75,664.284344334151
4142,664.04876263003
4142.25,663.917638378865
4142.5,663.880783108314
4142.75,664.005353305056
4143,664.26751693467
4143.25,664.300151517127
4143.5,663.666221185698
4143.75,662.403094020688
4144,661.21905160251
4144.25,660.7873460479
4144.5,660.931038838581
4144.75,660.987495758304
4145,660.483572969376
4145.25,659.583565411944
4145.5,658.579726960952
4145.75,657.697889074819
4146,657.082858506451
4146.25,656.846982935387
4146.5,656.891022030775
4146.75,657.01779497202
4147,657.078711676402
4147.25,657.047901552923
4147.5,656.924190574926
4147.75,656.822642004843
4148,656.965218760571
4148.25,657.480289458574
4148.5,657.975097498787
4148.75,657.888121674243
4149,657.084127739392
4149.25,656.198825080231
4149.5,655.902632470357
4149.75,656.280490203697
4150,657.016356868405
4150.25,657.828538819629
4150.5,658.594024541393
4150.75,659.228038088504
4151,659.682721461141
4151.25,659.959153189457
4151.5,660.066516200384
4151.75,660.054328235092
4152,659.992507001433
4152.25,659.944675500895
4152.5,659.956179579022
4152.75,660.064090268786
4153,660.175121159961
4153.25,660.057373871312
4153.5,659.552705077094
4153.75,659.032609086232
4154,659.080937647507
4154.25,659.892953492071
4154.5,660.787170420084
4154.75,661.004929944106
4155,660.539202996496
4155.25,660.024560553327
4155.5,660.007129872053
4155.75,660.4724304962
4156,661.226277329827
4156.25,662.070707108533
4156.5,662.801083157971
4156.75,663.222529681729
4157,663.278069663168
4157.25,663.008090050264
4157.5,662.504860801235
4157.75,662.071825939674
4158,662.063171606483
4158.25,662.511965386515
4158.5,662.947534201745
4158.75,662.903699827937
4159,662.450362487478
4159.25,661.990356725353
4159.5,661.830027153156
4159.75,661.903499976394
4160,662.059817692417
4160.25,662.158018042276
4160.5,662.070790210908
4160.75,661.701982188687
4161,661.233497632049
4161.25,660.997157208592
4161.5,661.205065968116
4161.75,661.693163271284
4162,662.227496359363
4162.25,662.663215641439
4162.5,662.959381575624
4162.75,663.08833485609
4163,663.078398312262
4163.25,662.983511008837
4163.5,662.879209077602
4163.75,662.897620162377
4164,663.17151808943
4164.25,663.62625543529
4164.5,663.973875716474
4164.75,663.985487899034
4165,663.883984368987
4165.25,664.073715349856
4165.5,664.751203590294
4165.75,665.623125871016
4166,666.336735928835
4166.25,666.762783629746
4166.5,666.981176287247
4166.75,667.071868070161
4167,667.066106498299
4167.25,666.977005019379
4167.5,666.863462531168
4167.75,666.888485632463
4168,667.215337184353
4168.25,667.7182794884
4168.5,668.001216267195
4168.75,667.753042334004
4169,667.250452777923
4169.25,666.992959975446
4169.5,667.251124977521
4169.75,667.762641451695
4170,668.202566981223
4170.25,668.518270783072
4170.5,668.917145768795
4170.75,669.541286185893
4171,670.048820310751
4171.25,669.908543525816
4171.5,668.986123838149
4171.75,668.112600355994
4172,668.220516868016
4172.25,669.221851798711
4172.5,669.980611377709
4172.75,669.534508744219
4173,668.467239645442
4173.25,668.02027952553
4173.5,668.816360891353
4173.75,669.824972354179
4174,669.784719831365
4174.25,668.550346123359
4174.5,667.196334095643
4174.75,666.706419326631
4175,666.88415986439
4175.25,666.983467047023
4175.5,666.567685625011
4175.75,666.081061432107
4176,666.102257638801
4176.25,666.630738110424
4176.5,667.006230157042
4176.75,666.637585935295
4177,665.745027442782
4177.25,664.926562121593
4177.5,664.61430480015
4177.75,664.766998932074
4178,665.25582794048
4178.25,665.816778336647
4178.5,666.035083152904
4178.75,665.569718182395
4179,664.686418936789
4179.25,663.923878043489
4179.5,663.655320582896
4179.75,663.805494739122
4180,664.222521202301
4180.25,664.703045760089
4180.5,664.989256986132
4180.75,664.866337564482
4181,664.43326003328
4181.25,663.920830522413
4181.5,663.493230663327
4181.75,663.148240650758
4182,662.856237181388
4182.25,662.54199985767
4182.5,662.085484335458
4182.75,661.397557725717
4183,660.593115387421
4183.25,659.865084339332
4183.5,659.349599194497
4183.75,659.058066426326
4184,658.98032684867
4184.25,659.019774645987
4184.5,659.00717886511
4184.75,658.799036490762
4185,658.389707733293
4185.25,657.815878001973
4185.5,657.109608201771
4185.75,656.294989533249
4186,655.403815589834
4186.25,654.567942886938
4186.5,653.984444418469
4186.75,653.786526793494
4187,653.876038275223
4187.25,654.101872891244
4187.5,654.262190260863
4187.75,654.093096530442
4188,653.398532112423
4188.25,652.500019364504
4188.5,651.945234449756
4188.75,651.966452228472
4189,652.07203923574
4189.25,651.704598968211
4189.5,650.867892797406
4189.75,650.017311491603
4190,649.507503470326
4190.25,649.203685992169
4190.5,648.84385609179
4190.75,648.374765430707
4191,648.03270419047
4191.25,648.021815241987
4191.5,648.12364929358
4191.75,647.91992305519
4192,647.213838132767
4192.25,646.323592087697
4192.5,645.622373170507
4192.75,645.215222716443
4193,644.99819633075
4193.25,644.828810023024
4193.5,644.43694593967
4193.75,643.533896298425
4194,642.229457595039
4194.25,641.110146240598
4194.5,640.684586150758
4194.75,640.804126601341
4195,641.069750737305
4195.25,641.193570573887
4195.5,641.081338471164
4195.75,640.685054026236
4196,640.209500709772
4196.25,639.997183324035
4196.5,640.148738713006
4196.75,640.163175090167
4197,639.491637603973
4197.25,638.227158190452
4197.5,636.952194594482
4197.75,636.149408138906
4198,635.907949099616
4198.25,636.218362763643
4198.5,636.782058655821
4198.75,637.008060971742
4199,636.46447578708
4199.25,635.514931988261
4199.5,634.742806017829
4199.75,634.350646829609
4200,634.051195043364
4200.25,633.593540495522
4200.5,633.141362823536
4200.75,633.007988756406
4201,633.17437925727
4201.25,633.098365731336
4201.5,632.319043651449
4201.75,631.327627778243
4202,631.041381520202
4202.25,631.790433582892
4202.5,632.803468554853
4202.75,633.276148065357
4203,633.193566353811
4203.25,632.957392142484
4203.5,632.751017913005
4203.75,632.273423446966
4204,631.213668630237
4204.25,629.866842587617
4204.5,628.90861218635
4204.75,628.723374563181
4205,628.927472930298
4205.25,629.045252006292
4205.5,629.00283470697
4205.75,629.010274463192
4206,629.150947259162
4206.25,629.132287646684
4206.5,628.625300612857
4206.75,627.744890753223
4207,626.947321342027
4207.25,626.519822472851
4207.5,626.196473421402
4207.75,625.624528662201
4208,624.787538679591
4208.25,623.944457387554
4208.5,623.242710761322
4208.75,622.444203804197
4209,621.262866015789
4209.25,619.89839599793
4209.5,618.948129066355
4209.75,618.770310384645
4210,618.952464389868
4210.25,618.958126093199
4210.5,618.58657587225
4210.75,617.887253637314
4211,616.984312828992
4211.25,616.185577479259
4211.5,615.782486427821
4211.75,615.519274977368
4212,614.78732610342
4212.25,613.409086815533
4212.5,612.180236033353
4212.75,611.892001116868
4213,612.116084875472
4213.25,611.788558326659
4213.5,610.531405440629
4213.75,609.16220964079
4214,608.460459036537
4214.25,608.19980534507
4214.5,607.767543637195
4214.75,606.946004176744
4215,606.020075782723
4215.25,605.222108115277
4215.5,604.42024752827
4215.75,603.396499655683
4216,602.140396937146
4216.25,600.822100057008
4216.5,599.561861804758
4216.75,598.330631599239
4217,597.080696631001
4217.25,595.819387829901
4217.5,594.582842491589
4217.75,593.357439533663
4218,592.053574727562
4218.25,590.641101529455
4218.5,589.385703637119
4218.75,588.610425321768
4219,588.2427712941
4219.25,587.900763443663
4219.5,587.265797438031
4219.75,586.163454275006
4220,584.518868622393
4220.25,582.722682297198
4220.5,581.309180488372
4220.75,580.432921625226
4221,579.907337130057
4221.25,579.525605781863
4221.5,579.063408997302
4221.75,578.338628587305
4222,577.414574246771
4222.25,576.437803141671
4222.5,575.539178009229
4222.75,574.835876472624
4223,574.363869687572
4223.25,574.01029054501
4223.5,573.651771174382
4223.75,573.189119871273
4224,572.534606694291
4224.25,571.655377679972
4224.5,570.558697637305
4224.75,569.485366339486
4225,568.993667617066
4225.25,569.358195089226
4225.5,569.936464709953
4225.75,570.002778425134
4226,569.435413152447
4226.25,568.384541028228
4226.5,567.329330621236
4226.75,567.036891434732
4227,567.627755515503
4227.25,568.000330213647
4227.5,567.302264196842
4227.75,566.221028763359
4228,565.7308404025
4228.25,565.854428931397
4228.5,566.098078971977
4228.75,566.154615241714
4229,565.929445171315
4229.25,565.454233431992
4229.5,565.019401019071
4229.75,564.881397744695
4230,564.95896733242
4230.25,565.071884145037
4230.5,565.083675648575
4230.75,564.888001606409
4231,564.466284570632
4231.25,563.909361841595
4231.5,563.350414068508
4231.75,563.012662214022
4232,563.041426024123
4232.25,563.081603525432
4232.5,562.668823511253
4232.75,562.09161044192
4233,562.131610621043
4233.25,562.776241638899
4233.5,562.953486519782
4233.75,562.085890954204
4234,561.06966244949
4234.25,560.81204822531
4234.5,560.980454027647
4234.75,560.866653053788
4235,560.362741583776
4235.25,559.762996309244
4235.5,559.27102121194
4235.75,558.964828809316
4236,558.882948591659
4236.25,558.987112199705
4236.5,559.17966774634
4236.75,559.127149685982
4237,558.479724498784
4237.25,557.478995104927
4237.5,556.704842782775
4237.75,556.29431345069
4238,555.886167554178
4238.25,555.169544770638
4238.5,553.990410640965
4238.75,552.394390550026
4239,551.134740717593
4239.25,550.9491014337
4239.5,551.135088598022
4239.75,550.432871557022
4240,549.237874696073
4240.25,549.230177828034
4240.5,550.496364464633
4240.75,550.911561651582
4241,549.452035715345
4241.25,548.011067041648
4241.5,548.230514236698
4241.75,548.958961388291
4242,548.56888375339
4242.25,547.405705047246
4242.5,546.64704743241
4242.75,546.329162224876
4243,545.616518548535
4243.25,544.49050260632
4243.5,544.000343780831
4243.75,544.542367591565
4244,545.000654961549
4244.25,544.436231833396
4244.5,543.185235836389
4244.75,541.85827274261
4245,541.051910379381
4245.25,541.256026510623
4245.5,541.894461708626
4245.75,541.803068644962
4246,540.793710985254
4246.25,539.579825211526
4246.5,538.603365129587
4246.75,537.868949414377
4247,537.343488152529
4247.25,536.985020392429
4247.5,536.799114652366
4247.75,536.958526002972
4248,537.549242614935
4248.25,538.000689421934
4248.5,537.661513974797
4248.75,537.061065356792
4249,537.237582172593
4249.25,537.90008809513
4249.5,537.779310103278
4249.75,536.713812943833
4250,535.805637852663
4250.25,535.467440130567
4250.5,534.842022355825
4250.75,533.594949617773
4251,533.004386499752
4251.25,533.963130066682
4251.5,534.973857987598
4251.75,534.422221268345
4252,533.203127572939
4252.25,532.869708790662
4252.5,533.066910985186
4252.75,532.547946773692
4253,531.434778163619
4253.25,530.829324234532
4253.5,530.925954987434
4253.75,530.955411898664
4254,530.52032416149
4254.25,529.82697341201
4254.5,529.185246107746
4254.75,529.018890494287
4255,529.493049123634
4255.25,529.999943320962
4255.5,530.026030531327
4255.75,529.979977850854
4256,530.365716950713
4256.25,530.907988833375
4256.5,531.117038379799
4256.75,531.038580139545
4257,530.969652321948
4257.25,530.985632119415
4257.5,531.007661430745
4257.75,531.005260355229
4258,530.997738130762
4258.25,530.996896118604
4258.5,531.001677287819
4258.75,531.006234296447
4259,530.997478464654
4259.25,530.97905364981
4259.5,531.000973767907
4259.75,531.072916697853
4260,531.021931571964
4260.25,530.678720918005
4260.5,530.135258249096
4260.75,529.568339146546
4261,529.112622296601
4261.25,528.876631491549
4261.5,528.900853427819
4261.75,529.17774350536
4262,529.658771556508
4262.25,530.256206895515
4262.5,530.798694018033
4262.75,531.016222420467
4263,530.928874039284
4263.25,531.063179056962
4263.5,531.636632204739
4263.75,532.001238792207
4264,531.654635839263
4264.25,531.040979156447
4264.5,530.73133933393
4264.75,530.901888126626
4265,531.527539655001
4265.25,532.014308579316
4265.5,531.628995283993
4265.75,530.983305410801
4266,531.451540594315
4266.25,532.682165539067
4266.5,532.823594405778
4266.75,531.644273328759
4267,530.958907887997
4267.25,531.521635418437
4267.5,532.013096920716
4267.75,531.572930016963
4268,530.987942255609
4268.25,530.963064850539
4268.5,531.016324413359
4268.75,530.583706067858
4269,530.057093163348
4269.25,530.066219815236
4269.5,530.688883902918
4269.75,531.725726154151
4270,532.724340692016
4270.25,533.108130588012
4270.5,532.997774992398
4270.75,533.12075533465
4271,533.656724475281
4271.25,534.073470611662
4271.5,534.09587653359
4271.75,533.988518799536
4272,533.971046454711
4272.25,534.000217510524
4272.5,534.008816589647
4272.75,534.001059477222
4273,533.996056532726
4273.25,533.998306623122
4273.5,534.005824568214
4273.75,534.006025902305
4274,533.984016336449
4274.25,533.97460632578
4274.5,534.044898971229
4274.75,534.102254791857
4275,533.88217144101
4275.25,533.367931083963
4275.5,532.944485559065
4275.75,532.86644390752
4276,533.012126545337
4276.25,533.173834396751
4276.5,533.030655575223
4276.75,532.408923824248
4277,531.98001391055
4277.25,532.520888582695
4277.5,533.650991900043
4277.75,534.522382194093
4278,534.921317933472
4278.25,535.039438962282
4278.5,535.026685619294
4278.75,534.987597812939
4279,534.981577900229
4279.25,535.010285616799
4279.5,535.041653449848
4279.75,534.986437939278
4280,534.8591943413
4280.25,534.989532968301
4280.5,535.575409830473
4280.75,536.002717956393
4281,535.625581025273
4281.25,535.046685592063
4281.5,535.252162677318
4281.75,535.886161117915
4282,535.842899415446
4282.25,535.202359296939
4282.5,535.071367899092
4282.75,535.664268161721
4283,536.012760294482
4283.25,535.604881949582
4283.5,534.921609340743
4283.75,534.393133078447
4284,534.006272604544
4284.25,533.745832821545
4284.5,533.911974290692
4284.75,534.766061131916
4285,535.789394941358
4285.25,536.233016149818
4285.5,536.11285929416
4285.75,535.876815878627
4286,535.844439520854
4286.25,536.21195047364
4286.5,536.798661866971
4286.75,536.970730854697
4287,536.501169619991
4287.25,535.945015271664
4287.5,535.771610771266
4287.75,535.994416817609
4288,536.498880382267
4288.25,536.957103533952
4288.5,537.061546704133
4288.75,536.995888505369
4289,537.088594061338
4289.25,537.135198576875
4289.5,536.656591255324
4289.75,536.010341335596
4290,536.271069194122
4290.25,537.425561986906
4290.5,538.015674534225
4290.75,537.452302882695
4291,537.00151737789
4291.25,537.514827998248
4291.5,538.000163945617
4291.75,537.525873263228
4292,536.989926046296
4292.25,537.576135441007
4292.5,538.71945377309
4292.75,539.183069800681
4293,539.024762042182
4293.25,539.13554793978
4293.5,539.681233197927
4293.75,540.08992805033
4294,540.102467729664
4294.25,539.981583080427
4294.5,539.94484163205
4294.75,540.002192494177
4295,540.096859225437
4295.25,540.033668489915
4295.5,539.645232528758
4295.75,539.12886312008
4296,538.804077423026
4296.25,538.84138364103
4296.5,539.303621738528
4296.75,539.874921262583
4297,539.919397634843
4297.25,539.37420001669
4297.5,538.951687600594
4297.75,538.99539403724
4298,538.983278932076
4298.25,538.529968220184
4298.5,538.026440706466
4298.75,537.901724139131
4299,537.987898133016
4299.25,537.975307294036
4299.5,537.951898363668
4299.75,538.183085605337
4300,538.682093802951
4300.25,539.274624152283
4300.5,539.785080474915
4300.75,540.043420081397
4301,540.035197943074
4301.25,540.004165995559
4301.5,540.075432759782
4301.75,540.003203205045
4302,539.588434839792
4302.25,539.073092977462
4302.5,538.786782153783
4302.75,538.876370169517
4303,539.377091357991
4303.25,539.914895437066
4303.5,539.8853000792
4303.75,539.328928868678
4304,538.902779835487
4304.25,538.895305801712
4304.5,539.019736275184
4304.75,539.049791831088
4305,538.996551872698
4305.25,538.925353522903
4305.5,538.97907056693
4305.75,539.219449804418
4306,539.156507379873
4306.25,538.241748056041
4306.5,537.169247157164
4306.75,537.22408891169
4307,538.339027459914
4307.25,539.352930968341
4307.5,539.799135335933
4307.75,540.088482731907
4308,540.515599898569
4308.25,541.065996480335
4308.5,541.640688001151
4308.75,541.992839049269
4309,541.96572855507
4309.25,541.948069937795
4309.5,542.386266933366
4309.75,542.92319825107
4310,542.873545360242
4310.25,542.307132060114
4310.5,541.848622021265
4310.75,541.807953815759
4311,542.110263749992
4311.25,542.603447137929
4311.5,543.034057066125
4311.75,543.191636920567
4312,543.023864501156
4312.25,542.558873700109
4312.5,542.077952911092
4312.75,541.896115036582
4313,541.959084323444
4313.25,542.036405953041
4313.5,542.033343965474
4313.75,541.965011717185
4314,541.918649953302
4314.25,542.065064303675
4314.5,542.480917475231
4314.75,543.053220025582
4315,543.627427333705
4315.25,543.986831287301
4315.5,543.991450291585
4315.75,543.957867385551
4316,544.286981423829
4316.25,544.819674561602
4316.5,545.120367163728
4316.75,545.09429368538
4317,544.937327989177
4317.25,544.859879493551
4317.5,545.078635039383
4317.75,545.606226772384
4318,546.004240548806
4318.25,545.973893511234
4318.5,545.959643041226
4318.75,546.436820896296
4319,546.957969881753
4319.25,546.788712566738
4319.5,546.184913741586
4319.75,546.033840161059
4320,546.539322315125
4320.25,547.153519212488
4320.5,547.583658230954
4320.75,548.054830608318
4321,548.66937624884
4321.25,549.002104119092
4321.5,548.677646638551
4321.75,548.112404965723
4322,547.94997816579
4322.25,548.47566065137
4322.5,549.743697814956
4322.75,551.286201092487
4323,552.148721792632
4323.25,552.086625910303
4323.5,552.025141813651
4323.75,552.553237046575
4324,552.995205562687
4324.25,552.672587414013
4324.5,552.091533156933
4324.75,552.075060714786
4325,552.637873115365
4325.25,553.315400922929
4325.5,553.813554853828
4325.75,554.024014336859
4326,553.98875090051
4326.25,554.008263066923
4326.5,554.325103348091
4326.75,554.893457457436
4327,555.572437291703
4327.25,555.998431593609
4327.5,555.769745083735
4327.75,555.185426712515
4328,555.039837177276
4328.25,555.532627607454
4328.5,556.070309531881
4328.75,556.21320000998
4329,556.01553178959
4329.25,555.684604024863
4329.5,555.801506688101
4329.75,556.93001080406
4330,558.467905589807
4330.25,559.225833790648
4330.5,559.097994544122
4330.75,559.048572768782
4331,559.536995304657
4331.25,560.00840222487
4331.5,560.025024363602
4331.75,559.968693623431
4332,560.3148138174
4332.25,560.844837470608
4332.5,561.052910403272
4332.75,560.96893977635
4333,561.085645063954
4333.25,561.569075875118
4333.5,562.019554045387
4333.75,562.123070312745
4334,562.021997082791
4334.25,561.934306085314
4334.5,561.951224143678
4334.75,562.096937405548
4335,562.176119813805
4335.25,561.818027286169
4335.5,561.137149894977
4335.75,561.033081644999
4336,561.991087539032
4336.25,562.939250265225
4336.5,562.756656696574
4336.75,562.091688459126
4337,562.246397167828
4337.25,563.283290237926
4337.5,564.259457445859
4337.75,564.721126501147
4338,565.026541761755
4338.25,565.472392057142
4338.5,565.930492049274
4338.75,566.24480174781
4339,566.664106559822
4339.25,567.573283585409
4339.5,568.649948312079
4339.75,568.958788751851
4340,568.331244249936
4340.25,568.001606652633
4340.5,568.86171120567
4340.75,569.888641575927
4341,569.78787258725
4341.25,569.090722200601
4341.5,569.262903252338
4341.75,570.392047281446
4342,571.003535311872
4342.25,570.270373486942
4342.5,569.101621713619
4342.75,568.513224273678
4343,568.721888653748
4343.25,569.63615377355
4343.5,570.683999891324
4343.75,570.955369094922
4344,570.350602048786
4344.25,570.009335193599
4344.5,570.729373883649
4344.75,571.812252797581
4345,572.386122369939
4345.25,572.695020333125
4345.5,573.477615845436
4345.75,574.586916990108
4346,574.966965326011
4346.25,574.149774422341
4346.5,573.078603120627
4346.75,572.693882966875
4347,572.876741744287
4347.25,573.159520227777
4347.5,573.212672398071
4347.75,572.817068258525
4348,572.146109673113
4348.25,572.009048020935
4348.5,572.895526342292
4348.75,573.88096433025
4349,573.868962842645
4349.25,573.218523131366
4349.5,573.042374070599
4349.75,573.57816688636
4350,574.028110536351
4350.25,573.944849972052
4350.5,573.944539602171
4350.75,574.650839219727
4351,575.661698766709
4351.25,576.211952957068
4351.5,576.169774165393
4351.75,575.952193469686
4352,575.869089724834
4352.25,575.987304088588
4352.5,576.32593380502
4352.75,576.810731956399
4353,577.33911341739
4353.25,577.796168662292
4353.5,578.059968118726
4353.75,578.094578624137
4354,577.997096952915
4354.25,577.888078389388
4354.5,577.933184591594
4354.75,578.278434964411
4355,578.769940398681
4355.25,579.087213185327
4355.5,579.111251781357
4355.75,578.988176151807
4356,578.880147537162
4356.25,578.943852040922
4356.5,579.300390167718
4356.75,579.786875470136
4357,580.106945744948
4357.25,580.140558449848
4357.5,579.969244963733
4357.75,579.762824628015
4358,579.901160154302
4358.25,580.692047639097
4358.5,581.677548444464
4358.75,582.099106325099
4359,581.964627362975
4359.25,582.066668069575
4359.5,582.857355006426
4359.75,583.857959477957
4360,584.530226762769
4360.25,584.877887798522
4360.5,585.123932021743
4360.75,585.477369144961
4361,586.132085002553
4361.25,587.095281748088
4361.5,587.908485904946
4361.75,588.137274951263
4362,588.020786790363
4362.25,588.075155792507
4362.5,588.484657718446
4362.75,589.067253358163
4363,589.625191619309
4363.25,589.969598347404
4363.5,589.961904996403
4363.75,589.879891361862
4364,590.203257893615
4364.25,591.044845866792
4364.5,592.033150704043
4364.75,592.793949554897
4365,593.061691669596
4365.25,592.652726412064
4365.5,592.049328002502
4365.75,592.153249955812
4366,593.148865775731
4366.25,593.978103684326
4366.5,593.763178404382
4366.75,593.130112705389
4367,593.114139534836
4367.25,593.706088064383
4367.5,593.98608709449
4367.75,593.508252849802
4368,593.01859566756
4368.25,593.275100513437
4368.5,593.867552597527
4368.75,593.893759293989
4369,593.292450062264
4369.25,593.009750468142
4369.5,593.686543448083
4369.75,594.730592667866
4370,595.343100967949
4370.25,595.315377528162
4370.5,594.804536187368
4370.75,594.147675587553
4371,593.974760308574
4371.25,594.724265512389
4371.5,595.73137694286
4371.75,596.032407283059
4372,595.536007439087
4372.25,594.919791737137
4372.5,594.695818522976
4372.75,594.902248022207
4373,595.498024376073
4373.25,596.384813502932
4373.5,597.434908049712
4373.75,598.42407642339
4374,599.004283608308
4374.25,598.998729002778
4374.5,598.913922146037
4374.75,599.369683970868
4375,600.303345122108
4375.25,601.155906303797
4375.5,601.619817000851
4375.75,601.935302125137
4376,602.361490902331
4376.25,602.814090906938
4376.5,603.068316069529
4376.75,603.073772927148
4377,602.999974583725
4377.25,602.987173121379
4377.5,603.002893928528
4377.75,602.978150662445
4378,602.94745219663
4378.25,603.027333554982
4378.5,603.312169354079
4378.75,603.838136082884
4379,604.613662219269
4379.25,605.487447669295
4379.5,606.231139053284
4379.75,606.720609156457
4380,606.987651429045
4380.25,607.078200719431
4380.5,607.045522037765
4380.75,606.947179144549
4381,606.887555939785
4381.25,607.018232969805
4381.5,607.410596459035
4381.75,607.868023474507
4382,608.150989051227
4382.25,608.167985159741
4382.5,607.930081458116
4382.75,607.504427003062
4383,607.075786948678
4383.25,606.830391430965
4383.5,606.842968342012
4383.75,607.132784703263
4384,607.60256176036
4384.25,607.982237912516
4384.5,608.060745058193
4384.75,607.997568091795
4385,608.056138863071
4385.25,608.177796639097
4385.5,607.972434165056
4385.75,607.214892407592
4386,606.287407680438
4386.25,605.66365002946
4386.5,605.322413054257
4386.75,604.886749238852
4387,604.134878613695
4387.25,603.207566923898
4387.5,602.283299560588
4387.75,601.453001715264
4388,600.766180265821
4388.25,600.269229569294
4388.5,600.004504096211
4388.75,599.975607837187
4389,600.015479026537
4389.25,599.914625761713
4389.5,599.548129894546
4389.75,598.862732260577
4390,597.930103731324
4390.25,597.12378210838
4390.5,596.80710367977
4390.75,596.888068287836
4391,597.055058708234
4391.25,597.108051682986
4391.5,597.001288137493
4391.75,596.708014739772
4392,596.233788136799
4392.25,595.607452087439
4392.5,595.078170487709
4392.75,595.06001252674
4393,595.60633936584
4393.25,596.004076856918
4393.5,595.627153054317
4393.75,595.039304962804
4394,595.243603318441
4394.25,596.262882613187
4394.5,597.024080176228
4394.75,596.801990356663
4395,596.157899878816
4395.25,595.84281555708
4395.5,595.914325633683
4395.75,596.012304948445
4396,595.976588602072
4396.25,595.990519348217
4396.5,596.177216784652
4396.75,596.190028701572
4397,595.569662235384
4397.25,594.546763980226
4397.5,593.975966053629
4397.75,594.308120834931
4398,594.910312123398
4398.25,595.085694219542
4398.5,594.976457700696
4398.75,595.113842518996
4399,595.605641432539
4399.25,596.00351066576
4399.5,595.996425341732
4399.75,595.935583941468
4400,596.27935427746
4400.25,596.83505277672
4400.5,596.955800501782
4400.75,596.446847889227
4401,596.009677811839
4401.25,596.277918407119
4401.5,596.847729045439
4401.75,596.951057350482
4402,596.468909998936
4402.25,595.969888038826
4402.5,595.8632733702
4402.75,595.97024786774
4403,596.024036175777
4403.25,596.00061903426
4403.5,596.015078508962
4403.75,596.074704026034
4404,596.011977116165
4404.25,595.692557024334
4404.5,595.217111121517
4404.75,594.750360361692
4405,594.338544172546
4405.25,593.925225427436
4405.5,593.484729342462
4405.75,593.073303777117
4406,592.73530469677
4406.25,592.337517213828
4406.5,591.673918627479
4406.75,590.775438145151
4407,589.960506214475
4407.25,589.4537690112
4407.5,589.107105341795
4407.75,588.713638082455
4408,588.267480069706
4408.25,587.882509166227
4408.5,587.717119766349
4408.75,587.994652014129
4409,588.814743001444
4409.25,589.746095547907
4409.5,590.25426343511
4409.75,590.234085713986
4410,589.878794223605
4410.25,589.397885859531
4410.5,589.019241298661
4410.75,588.916399061483
4411,588.975596053754
4411.25,589.001658818545
4411.5,588.974513758011
4411.75,589.022004699362
4412,589.144346188236
4412.25,589.052183762317
4412.5,588.525321376053
4412.75,588.019580816958
4413,588.224104678671
4413.25,589.148546303728
4413.5,590.114131086162
4413.75,590.654957608881
4414,590.943716864901
4414.25,591.239334356667
4414.5,591.66674317506
4414.75,592.280777218403
4415,592.887166476276
4415.25,592.984429946546
4415.5,592.368841121805
4415.75,591.923738555487
4416,592.618546753862
4416.25,593.79050188056
4416.5,593.777566112944
4416.75,592.236673853059
4417,591.018927063465
4417.25,591.619768720862
4417.5,592.814297438695
4417.75,592.680366405419
4418,591.441689664945
4418.25,591.097956316925
4418.5,592.646451785413
4418.75,594.723878778893
4419,595.867729239454
4419.25,596.073411583197
4419.5,595.921697684684
4419.75,595.829662216265
4420,596.028583145598
4420.25,596.574569527503
4420.5,596.989679612606
4420.75,596.762979079813
4421,596.188684777856
4421.25,596.044908263849
4421.5,596.555601600668
4421.75,596.992584506447
4422,596.732320489268
4422.25,596.167071274224
4422.5,595.990838288221
4422.75,596.396482517168
4423,597.110699665932
4423.25,597.914809357536
4423.5,598.779501519693
4423.75,599.694666776218
4424,600.552888309888
4424.25,601.200153077608
4424.5,601.617599026668
4424.75,601.982126448523
4425,602.432168655786
4425.25,602.860763058511
4425.5,603.098185703524
4425.75,603.109105057725
4426,602.97684910031
4426.25,602.82973632271
4426.5,602.905608750128
4426.75,603.40100294109
4427,603.947754474357
4427.25,603.87290461017
4427.5,603.017682090299
4427.75,602.07243237684
4428,601.682469280316
4428.25,601.815168041437
4428.5,602.209461200282
4428.75,602.660638004682
4429,603.022322866368
4429.25,603.176650566423
4429.5,603.087107479927
4429.75,602.745443356304
4430,602.28545187439
4430.25,601.931463776764
4430.5,601.827413094536
4430.75,601.96088903609
4431,602.250429607633
4431.25,602.288149753729
4431.5,601.558785089052
4431.75,600.172983847832
4432,598.973105170864
4432.25,598.524092449476
4432.5,598.233407871817
4432.75,597.335672770503
4433,596.23148557755
4433.25,596.130136877185
4433.5,597.425136911303
4433.75,598.868515288803
4434,599.278022741024
4434.25,599.04569914086
4434.5,599.12846185263
4434.75,599.685139726996
4435,599.998070867723
4435.25,599.613000740297
4435.5,599.07996544056
4435.75,599.089874466202
4436,599.602303423189
4436.25,600.10929114835
4436.5,600.268464192384
4436.75,600.053750142836
4437,599.525843577317
4437.25,599.057699403323
4437.5,599.115960658811
4437.75,599.640941164424
4438,600.007843353687
4438.25,599.869059964696
4438.5,599.847170970315
4438.75,600.67006467595
4439,602.089147002937
4439.25,603.247660933095
4439.5,603.734900809276
4439.75,603.962114215867
4440,604.344995229789
4440.25,604.80662165256
4440.5,605.092297775904
4440.75,605.118086346753
4441,604.995476800466
4441.25,604.860044858889
4441.5,604.896533007804
4441.75,605.275382588452
4442,605.797938448738
4442.25,605.989210305412
4442.5,605.629014914581
4442.75,605.098835464596
4443,604.821048064391
4443.25,604.858877998666
4443.5,605.09896342576
4443.75,605.468719862161
4444,605.958677556359
4444.25,606.526724623758
4444.5,606.941212619753
4444.75,606.924238218439
4445,606.494224048735
4445.25,605.964919137487
4445.5,605.645972094043
4445.75,605.79284432816
4446,606.598638430449
4446.25,607.618697430735
4446.5,607.980681752388
4446.75,607.297274872122
4447,606.206040490497
4447.25,605.401092994679
4447.5,605.039574080474
4447.75,605.034393061851
4448,605.337938979461
4448.25,605.959945953809
4448.5,606.856868116252
4448.75,607.71710365587
4449,608.167351065854
4449.25,608.16619268218
4449.5,607.982620451913
4449.75,607.858794897797
4450,607.919544074703
4450.25,608.249357621765
4450.5,608.717032005378
4450.75,609.051233281056
4451,609.109936725912
4451.25,609.021680103122
4451.5,608.938348981537
4451.75,608.937243436314
4452,609.058766409679
4452.25,609.197233931678
4452.5,609.035077933661
4452.75,608.396455112472
4453,607.907014335231
4453.25,608.407438152461
4453.5,609.806173156564
4453.75,611.044508633632
4454,611.43476581418
4454.25,611.704973596628
4454.5,612.793507784966
4454.75,614.335452588746
4455,614.990798335199
4455.25,614.156142034489
4455.5,613.116426645945
4455.75,613.279466277275
4456,614.358791343392
4456.25,615.079365592878
4456.5,614.797835184154
4456.75,614.121715837816
4457,613.732246825466
4457.25,613.777260983434
4457.5,614.157268262959
4457.75,614.676539575162
4458,614.992555306417
4458.25,614.870296664788
4458.5,614.768983734832
4458.75,615.377544520642
4459,616.713475858212
4459.25,617.962643291284
4459.5,618.435992947237
4459.75,618.245509062975
4460,617.729437949581
4460.25,617.211547403383
4460.5,617.00058833689
4460.75,617.215657670657
4461,617.2520691394
4461.25,616.385888387441
4461.5,614.901321879107
4461.75,613.975304896188
4462,614.300301408493
4462.25,614.937797220416
4462.5,614.718436319241
4462.75,613.720390337575
4463,612.925426442058
4463.25,612.884310398839
4463.5,613.028752493322
4463.75,612.70790269839
4464,612.145513930004
4464.25,612.062932629424
4464.5,612.774673215709
4464.75,613.812517861296
4465,614.657500808683
4465.25,615.051987707043
4465.5,614.858449969131
4465.75,614.273794989848
4466,613.983821157827
4466.25,614.538612987115
4466.5,615.52900572258
4466.75,616.231315899382
4467,616.33448599518
4467.25,616.011818362593
4467.5,615.546929698247
4467.75,615.580052497861
4468,616.796873980761
4468.25,618.775861879406
4468.5,620.01956265627
4468.75,619.553351164783
4469,618.373707320028
4469.25,617.843312844293
4469.5,618.270053714533
4469.75,619.076570340187
4470,619.746950424173
4470.25,620.033225129143
4470.5,619.769422212289
4470.75,619.229886156643
4471,619.010672719898
4471.25,619.410132022741
4471.5,619.917583528193
4471.75,619.939951392553
4472,619.475043430876
4472.25,618.904857904109
4472.5,618.477586027324
4472.75,618.113134079947
4473,617.699002871508
4473.25,617.268101172415
4473.5,616.937299129676
4473.75,616.804752090953
4474,616.928704341673
4474.25,617.33362042063
4474.5,617.805981417236
4474.75,618.017291957108
4475,617.779489607908
4475.25,617.144271865475
4475.5,616.219993386587
4475.75,615.34109192561
4476,614.927863573511
4476.25,615.004867041528
4476.5,615.024171989033
4476.75,614.505402297787
4477,613.576148278159
4477.25,612.565086301429
4477.5,611.683835774614
4477.75,611.006789730245
4478,610.558927191119
4478.25,610.19250732939
4478.5,609.728066735912
4478.75,609.233230934677
4479,608.995902984289
4479.25,609.116639993431
4479.5,609.122702392418
4479.75,608.50344532523
4480,607.522444935131
4480.25,606.937902111613
4480.5,607.02726179825
4480.75,607.069573899325
4481,606.375239104282
4481.25,605.37257688577
4481.5,604.96679220452
4481.75,605.222340230716
4482,605.036893455588
4482.25,603.582872313011
4482.5,601.677972320254
4482.75,600.561508732434
4483,600.542515197937
4483.25,601.083290887085
4483.5,601.67938695925
4483.75,601.999979803818
4484,601.793657609663
4484.25,601.280502293527
4484.5,600.93391078449
4484.75,600.93691426013
4485,601.002115479715
4485.25,600.894147294415
4485.5,600.863997001508
4485.75,601.290192311135
4486,601.93118977687
4486.25,601.945167932136
4486.5,600.865671599281
4486.75,599.386385911232
4487,598.349040653229
4487.25,597.965465723024
4487.5,598.075841957165
4487.75,598.487964332029
4488,598.963392133095
4488.25,599.322895177143
4488.5,599.718589826489
4488.75,600.395879115748
4489,601.296706646401
4489.25,602.072318673904
4489.5,602.418619569851
4489.75,602.191069075591
4490,601.329214532523
4490.25,600.334193843858
4490.5,600.022390745877
4490.75,600.559144671188
4491,601.001364906783
4491.25,600.573258404908
4491.5,599.980619310903
4491.75,600.369563383118
4492,601.545811375794
4492.25,601.963127184462
4492.5,600.751788801706
4492.75,599.250876645206
4493,599.056938398094
4493.25,600.101545652356
4493.5,601.308465285884
4493.75,601.968143265688
4494,602.0295065512
4494.25,601.575905409629
4494.5,601.076952562596
4494.75,601.112217130988
4495,601.647834085688
4495.25,602.005117719306
4495.5,601.8170201299
4495.75,601.804849600154
4496,602.793128971214
4496.25,604.307936067191
4496.5,605.0506503165
4496.75,604.564847245558
4497,604.006857154209
4497.25,604.475025731088
4497.5,605.532679788019
4497.75,606.153500913868
4498,606.081633935927
4498.25,606.00018272942
4498.5,606.487930927698
4498.75,607.481755942758
4499,608.757038136719
4499.25,610.063411649726
4499.5,611.129636960119
4499.75,611.766418242837
4500,611.999629070781
4500.25,611.911945461471
4500.5,611.81413196062
4500.75,612.148166982474
4501,613.019899065684
4501.25,613.884976559761
4501.5,614.213006046749
4501.75,614.111721100534
4502,613.966872349301
4502.25,613.965885217709
4502.5,613.999828305403
4502.75,614.016462743305
4503,614.409017689356
4503.25,615.698575325084
4503.5,617.620580447291
4503.75,618.985362122336
4504,618.992286695413
4504.25,618.732463807465
4504.5,619.736093986691
4504.75,622.008406207836
4505,624.035931782694
4505.25,624.731578898161
4505.5,624.830445513219
4505.75,625.433275592708
4506,626.512285566825
4506.25,626.995244801847
4506.5,626.222397888877
4506.75,625.187260214183
4507,625.1974590946
4507.25,626.230019616421
4507.5,627.004799965443
4507.75,626.652353341216
4508,626.026549847344
4508.25,626.332937131668
4508.5,627.658256015573
4508.75,629.010136592186
4509,629.631890422625
4509.25,629.852553679464
4509.5,630.24866179687
4509.75,631.018179200612
4510,631.974463800978
4510.25,632.921673773426
4510.5,633.698576184579
4510.75,634.156585123071
4511,634.246153342916
4511.25,634.031759601542
4511.5,633.605387850815
4511.75,633.170202095762
4512,632.961044976333
4512.25,633.00098949828
4512.5,633.018548203278
4512.75,632.80584344361
4513,632.707097762631
4513.25,633.279098239414
4513.5,634.575195074026
4513.75,635.817594582477
4514,636.268293446842
4514.25,636.120678697667
4514.5,636.009815175216
4514.75,636.304651198139
4515,636.828939610963
4515.25,637.351784784451
4515.5,637.763372790838
4515.75,638.027231301079
4516,638.121995873081
4516.25,638.063310326402
4516.5,637.87035450648
4516.75,637.523919838607
4517,636.974499293079
4517.25,636.282188008256
4517.5,635.90070316858
4517.75,636.340582258134
4518,637.370277359324
4518.25,637.997585445715
4518.5,637.484629649441
4518.75,636.450335160334
4519,635.895960586921
4519.25,636.194837773093
4519.5,636.892889444839
4519.75,637.524954861291
4520,637.911759838984
4520.25,637.987275489636
4520.5,637.856037329657
4520.75,637.909182575133
4521,638.498979609166
4521.25,639.401494171792
4521.5,640.097704690424
4521.75,640.277674236428
4522,640.104972031627
4522.25,639.811810239868
4522.5,639.686141791346
4522.75,640.054580273098
4523,641.07895916867
4523.25,642.397684741978
4523.5,643.559102987005
4523.75,644.388321019123
4524,644.973866467487
4524.25,645.410706944751
4524.5,645.774949451397
4524.75,646.136353668808
4525,646.525500577657
4525.25,646.91744990591
4525.5,647.289068729726
4525.75,647.664238618711
4526,648.088684415608
4526.25,648.552053310892
4526.5,648.916861129021
4526.75,649.042212857201
4527,648.995007590831
4527.25,649.000777171165
4527.5,649.236918430295
4527.75,649.676733702433
4528,650.241400327599
4528.25,650.77222958728
4528.5,651.009809680596
4528.75,650.782924596248
4529,650.594901917428
4529.25,651.238944441792
4529.5,652.928576307623
4529.75,654.607721082238
4530,655.135462404285
4530.25,654.595178435717
4530.5,654.004319180694
4530.75,654.143910429436
4531,654.702131978258
4531.25,655.087880236936
4531.5,655.082419249029
4531.75,654.994068977977
4532,655.114765251565
4532.25,655.242101051589
4532.5,654.917971252589
4532.75,654.067489818806
4533,653.672568318139
4533.25,654.829022470294
4533.5,657.175961908657
4533.75,658.924506874643
4534,658.666101088075
4534.25,657.434504731786
4534.5,657.095634974856
4534.75,658.369627664223
4535,659.784515329922
4535.25,659.761865099046
4535.5,658.612150269716
4535.75,657.997201670264
4536,659.102717297901
4536.25,661.017364853525
4536.5,662.303275430183
4536.75,662.406524585172
4537,662.06350519071
4537.25,662.046510175461
4537.5,662.462337072804
4537.75,663.033490440632
4538,663.527181575749
4538.25,663.875670751197
4538.5,664.047109354424
4538.75,664.062878259879
4539,664.012064390174
4539.25,663.980119958674
4539.5,663.983191610379
4539.75,664.001942716174
4540,664.01776793055
4540.25,664.015123255779
4540.5,663.980380213025
4540.75,663.941573782236
4541,663.975450378235
4541.25,664.156510072791
4541.5,664.520291778209
4541.75,665.083913161011
4542,665.74894998983
4542.25,666.101034261973
4542.5,665.695617756829
4542.75,664.715404168606
4543,664.024453578309
4543.25,664.364944013036
4543.5,665.341246051607
4543.75,666.05485470157
4544,666.027534610806
4544.25,665.872276146955
4544.5,666.342474953603
4544.75,667.364091762889
4545,668.001362758551
4545.25,667.479764211901
4545.5,666.419823472905
4545.75,666.030887774307
4546,666.880752664447
4546.25,667.875520132145
4546.5,667.70840945677
4546.75,666.351709202887
4547,665.109286807927
4547.25,665.139400909834
4547.5,666.125414429414
4547.75,667.113393665329
4548,667.447872508766
4548.25,667.241324796618
4548.5,666.728931733345
4548.75,666.195746128951
4549,665.978720437316
4549.25,666.356833273618
4549.5,667.18597441562
4549.75,668.141155436587
4550,668.902169943927
4550.25,669.162745212715
4550.5,668.641356167686
4550.75,667.625103823807
4551,666.998824433569
4551.25,667.495909093515
4551.5,668.541453523706
4551.75,668.983200685384
4552,668.235483228784
4552.25,667.231656624922
4552.5,667.118886170856
4552.75,668.018042611561
4553,668.913762439371
4553.25,668.895992777123
4553.5,668.296012401354
4553.75,668.011974401229
4554,668.585619228859
4554.25,669.542933385125
4554.5,670.24326956952
4554.75,670.396002053511
4555,670.11442034032
4555.25,669.555560662184
4555.5,669.052857904394
4555.75,669.026714506311
4556,669.620251835525
4556.25,670.114316226916
4556.5,669.647354286426
4556.75,668.254291789975
4557,667.106501022701
4557.25,667.284912724703
4557.5,668.343702733213
4557.75,669.005313090675
4558,668.45081343342
4558.25,667.416141408357
4558.5,666.943090909253
4558.75,667.337214969942
4559,667.910254668161
4559.25,667.994050754208
4559.5,667.798993125427
4559.75,668.029790028398
4560,669.044469482606
4560.25,669.971756209153
4560.5,669.69381569624
4560.75,668.074758181671
4561,666.346338122853
4561.25,665.725262516202
4561.5,666.200076607383
4561.75,667.022229098146
4562,667.592401948653
4562.25,667.894100165313
4562.5,668.042995186526
4562.75,668.09937314322
4563,668.043919444198
4563.25,667.851785794842
4563.5,667.504890469505
4563.75,666.98925555886
4564,666.363014846461
4564.25,665.957522128521
4564.5,666.161614224153
4564.75,666.975880955201
4565,667.825068435296
4565.25,668.147903475904
4565.5,668.040598953216
4565.75,668.002239159215
4566,668.316590622059
4566.25,668.419148207812
4566.5,667.555882486748
4566.75,665.753784927194
4567,664.222732356087
4567.25,664.139440618852
4567.5,665.167780583378
4567.75,666.004396901229
4568,665.749053338714
4568.25,665.107513972902
4568.5,665.15672634306
4568.75,666.244044930349
4569,667.635521192933
4569.25,668.570199861946
4569.5,668.933038996485
4569.75,669.000244655434
4570,669.005693298663
4570.25,669.002257640753
4570.5,669.001947256107
4570.75,669.128076881105
4571,669.672408858215
4571.25,670.880280900978
4571.5,672.293486943607
4571.75,672.999528264497
4572,672.416279775349
4572.25,671.369812093239
4572.5,671.044571830134
4572.75,671.949629790739
4573,673.431922611098
4573.25,674.75333784337
4573.5,675.602597667737
4573.75,675.988052246764
4574,676.012920058701
4574.25,676.231375566773
4574.5,677.339448609395
4574.75,679.368482067053
4575,680.909911852425
4575.25,680.450665798086
4575.5,678.381207519018
4575.75,676.982517445352
4576,678.210604527716
4576.25,680.805381866802
4576.5,681.977261841918
4576.75,680.071324298694
4577,677.137684212494
4577.25,675.941753177993
4577.5,677.3737163593
4577.75,679.489460004139
4578,680.263534198894
4578.25,679.657265126366
4578.5,679.012349712408
4578.75,679.441494342031
4579,680.745636015425
4579.25,682.308352755688
4579.5,683.575152186298
4579.75,684.128979897942
4580,683.596710887978
4580.25,682.267044006697
4580.5,681.135165916257
4580.75,681.108736099354
4581,681.993939105562
4581.25,683.012489789244
4581.5,683.522722208043
4581.75,683.425839863268
4582,682.755140702495
4582.25,681.755614349741
4582.5,681.04785340881
4582.75,681.255757687918
4583,682.358114275796
4583.25,683.769261630831
4583.5,684.939645121157
4583.75,685.693507025507
4584,686.010303008199
4584.25,685.958990436847
4584.5,685.879836451382
4584.75,686.15718969906
4585,686.771209504489
4585.25,687.098478739829
4585.5,686.53250165371
4585.75,685.445046063319
4586,684.954317134511
4586.25,685.946179460184
4586.5,687.748130389648
4586.75,689.091332380099
4587,689.168957786648
4587.25,688.489886480958
4587.5,687.789504452866
4587.75,687.52736206899
4588,687.764237894307
4588.25,688.507255641176
4588.5,689.436636010333
4588.75,689.985906833233
4589,689.72794277558
4589.25,689.137299146189
4589.5,689.033413234559
4589.75,689.839472473413
4590,690.784079223275
4590.25,690.886069431017
4590.5,689.969275092855
4590.75,689.084236647648
4591,689.314191916685
4591.25,690.580692519775
4591.5,691.852226405516
4591.75,692.21309646001
4592,691.746579213259
4592.25,690.959420095571
4592.5,690.402359242625
4592.75,690.771592900242
4593,692.782468841312
4593.25,696.126989655795
4593.5,698.70484710495
4593.75,698.358925895569
4594,695.539206599218
4594.25,693.170530903171
4594.5,693.917229422498
4594.75,697.039059285288
4595,699.913690099394
4595.25,700.514124204579
4595.5,699.655334671977
4595.75,698.970934373266
4596,699.456414391016
4596.25,700.476435143696
4596.5,701.147764965043
4596.75,701.041527027998
4597,700.391578489597
4597.25,699.491985005611
4597.5,698.778664083379
4597.75,698.811312614961
4598,700.030401435376
4598.25,701.810561526463
4598.5,702.981012783392
4598.75,702.701080536506
4599,701.6557980635
4599.25,700.964076204218
4599.5,701.318916913011
4599.75,702.300432403444
4600,703.312630357286
4600.25,703.953156633471
4600.5,704.114189192223
4600.75,703.730893544088
4601,703.107931172531
