3641,38.5478073314151
3641.25,38.6127731765295
3641.5,38.6777390216439
3641.75,38.7427048667585
3642,38.8076707118729
3642.25,38.8726365569874
3642.5,38.9376024021018
3642.75,39.0025682472164
3643,39.0675340923308
3643.25,39.1324999374453
3643.5,39.1974657825597
3643.75,39.2624316276743
3644,39.3273974727887
3644.25,39.3923633179032
3644.5,39.4573291630177
3644.75,39.5291550106343
3645,39.6141103465533
3645.25,39.6990656824721
3645.5,39.7840210183912
3645.75,39.86897635431
3646,39.953931690229
3646.25,40.0388870261479
3646.5,40.1238423620669
3646.75,40.2087976979857
3647,40.2937530339048
3647.25,40.3787083698236
3647.5,40.4636637057426
3647.75,40.5486190416615
3648,40.6335743775803
3648.25,40.7185297134994
3648.5,40.8034850494182
3648.75,40.8884403853372
3649,40.9733957212561
3649.25,41.0583510571751
3649.5,41.143306393094
3649.75,41.2714855498563
3650,41.486372576004
3650.25,41.7012596021521
3650.5,41.9161466282998
3650.75,42.1310336544479
3651,42.3459206805956
3651.25,42.5608077067433
3651.5,42.7756947328914
3651.75,42.9905817590391
3652,43.2054687851872
3652.25,43.4203558113349
3652.5,43.635242837483
3652.75,43.8501298636307
3653,44.0650168897788
3653.25,44.2799039159265
3653.5,44.4947909420745
3653.75,44.7096779682222
3654,44.9245649943703
3654.25,45.139452020518
3654.5,45.3543390466657
3654.75,45.4307739271862
3655,45.2158869010385
3655.25,45.0009998748904
3655.5,44.7861128487427
3655.75,44.5712258225946
3656,44.3563387964469
3656.25,44.1414517702988
3656.5,43.9265647441511
3656.75,43.711677718003
3657,43.4967906918553
3657.25,43.2819036657072
3657.5,43.0670166395595
3657.75,42.8521296134118
3658,42.6372425872638
3658.25,42.4223555611161
3658.5,42.207468534968
3658.75,41.9925815088203
3659,41.7776944826722
3659.25,41.5628074565245
3659.5,41.3479204303764
3659.75,41.1610659326911
3660,41.0361316151631
3660.25,40.9111972976354
3660.5,40.7862629801075
3660.75,40.6613286625797
3661,40.5363943450518
3661.25,40.411460027524
3661.5,40.2865257099963
3661.75,40.1615913924683
3662,40.0366570749406
3662.25,39.9117227574126
3662.5,39.7867884398849
3662.75,39.661854122357
3663,39.5369198048292
3663.25,39.4119854873013
3663.5,39.2870511697735
3663.75,39.1621168522456
3664,39.0371825347178
3664.25,38.9122482171899
3664.5,38.7873138996622
3664.75,38.6518458651321
3665,38.4919299386963
3665.25,38.3320140122608
3665.5,38.172098085825
3665.75,38.0121821593895
3666,37.8522662329537
3666.25,37.6923503065182
3666.5,37.5324343800824
3666.75,37.3725184536469
3667,37.2126025272111
3667.25,37.0526866007756
3667.5,36.8927706743398
3667.75,36.7328547479043
3668,36.5729388214689
3668.25,36.4130228950331
3668.5,36.2531069685976
3668.75,36.0931910421618
3669,35.9332751157263
3669.25,35.7733591892905
3669.5,35.613443262855
3669.75,35.5087136244214
3670,35.5386978606281
3670.25,35.5686820968348
3670.5,35.5986663330414
3670.75,35.6286505692481
3671,35.6586348054548
3671.25,35.6886190416614
3671.5,35.7186032778682
3671.75,35.7485875140748
3672,35.7785717502815
3672.25,35.8085559864882
3672.5,35.8385402226949
3672.75,35.8685244589015
3673,35.8985086951082
3673.25,35.9284929313149
3673.5,35.9584771675216
3673.75,35.9884614037283
3674,36.018445639935
3674.25,36.0484298761416
3674.5,36.0784141123483
3674.75,36.141991742775
3675,36.2919129238083
3675.25,36.4418341048418
3675.5,36.5917552858751
3675.75,36.7416764669087
3676,36.8915976479419
3676.25,37.0415188289755
3676.5,37.1914400100088
3676.75,37.3413611910423
3677,37.4912823720756
3677.25,37.6412035531092
3677.5,37.7911247341424
3677.75,37.9410459151757
3678,38.0909670962093
3678.25,38.2408882772425
3678.5,38.3908094582761
3678.75,38.5407306393094
3679,38.6906518203429
3679.25,38.8405730013762
3679.5,38.9904941824097
3679.75,39.0946112848743
3680,39.0746217940698
3680.25,39.0546323032654
3680.5,39.0346428124609
3680.75,39.0146533216564
3681,38.994663830852
3681.25,38.9746743400475
3681.5,38.9546848492431
3681.75,38.9346953584386
3682,38.9147058676342
3682.25,38.8947163768297
3682.5,38.8747268860253
3682.75,38.8547373952208
3683,38.8347479044164
3683.25,38.8147584136119
3683.5,38.7947689228075
3683.75,38.774779432003
3684,38.7547899411985
3684.25,38.7348004503941
3684.5,38.7148109595896
3684.75,38.6637502814964
3685,38.523823845865
3685.25,38.383897410234
3685.5,38.2439709746027
3685.75,38.1040445389716
3686,37.9641181033403
3686.25,37.8241916677092
3686.5,37.6842652320779
3686.75,37.5443387964469
3687,37.4044123608155
3687.25,37.2644859251845
3687.5,37.1245594895534
3687.75,36.9846330539221
3688,36.8447066182911
3688.25,36.7047801826597
3688.5,36.5648537470287
3688.75,36.4249273113974
3689,36.2850008757663
3689.25,36.145074440135
3689.5,36.0051480045039
3689.75,35.8863370449142
3690,35.831365945202
3690.25,35.7763948454897
3690.5,35.7214237457775
3690.75,35.6664526460652
3691,35.611481546353
3691.25,35.5565104466408
3691.5,35.5015393469285
3691.75,35.4465682472163
3692,35.391597147504
3692.25,35.3366260477918
3692.5,35.2816549480795
3692.75,35.2266838483673
3693,35.171712748655
3693.25,35.1167416489428
3693.5,35.0617705492305
3693.75,35.0067994495183
3694,34.951828349806
3694.25,34.8968572500938
3694.5,34.8418861503816
3694.75,34.8166535718754
3695,34.886616789691
3695.25,34.9565800075066
3695.5,35.0265432253221
3695.75,35.0965064431378
3696,35.1664696609533
3696.25,35.236432878769
3696.5,35.3063960965845
3696.75,35.3763593144002
3697,35.4463225322157
3697.25,35.5162857500314
3697.5,35.5862489678469
3697.75,35.6562121856624
3698,35.7261754034781
3698.25,35.7961386212936
3698.5,35.8661018391093
3698.75,35.9360650569248
3699,36.0060282747405
3699.25,36.075991492556
3699.5,36.1459547103716
3699.75,36.2500277743025
3700,36.4699121731518
3700.25,36.6897965720006
3700.5,36.9096809708498
3700.75,37.1295653696986
3701,37.3494497685474
3701.25,37.5693341673966
3701.5,37.7892185662454
3701.75,38.0091029650946
3702,38.2289873639434
3702.25,38.4488717627926
3702.5,38.6687561616414
3702.75,38.8886405604906
3703,39.1085249593394
3703.25,39.3284093581887
3703.5,39.5482937570375
3703.75,39.7681781558867
3704,39.9880625547355
3704.25,40.2079469535843
3704.5,40.4278313524335
3704.75,40.6162667333917
3705,40.6912273239085
3705.25,40.7661879144251
3705.5,40.8411485049419
3705.75,40.9161090954585
3706,40.9910696859753
3706.25,41.0660302764919
3706.5,41.1409908670087
3706.75,41.2159514575254
3707,41.2909120480421
3707.25,41.3658726385588
3707.5,41.4408332290754
3707.75,41.5157938195922
3708,41.5907544101088
3708.25,41.6657150006256
3708.5,41.7406755911422
3708.75,41.815636181659
3709,41.8905967721756
3709.25,41.9655573626924
3709.5,42.0405179532091
3709.75,42.0886490679344
3710,42.0336779682222
3710.25,41.9787068685099
3710.5,41.9237357687977
3710.75,41.8687646690855
3711,41.8137935693732
3711.25,41.758822469661
3711.5,41.7038513699487
3711.75,41.6488802702365
3712,41.5939091705242
3712.25,41.538938070812
3712.5,41.4839669710997
3712.75,41.4289958713875
3713,41.3740247716752
3713.25,41.319053671963
3713.5,41.2640825722507
3713.75,41.2091114725385
3714,41.1541403728262
3714.25,41.099169273114
3714.5,41.0441981734017
3714.75,41.0372155636183
3715,41.2271157262604
3715.25,41.4170158889029
3715.5,41.6069160515451
3715.75,41.7968162141876
3716,41.9867163768297
3716.25,42.1766165394722
3716.5,42.3665167021144
3716.75,42.5564168647569
3717,42.746317027399
3717.25,42.9362171900415
3717.5,43.1261173526837
3717.75,43.3160175153258
3718,43.5059176779683
3718.25,43.6958178406105
3718.5,43.885718003253
3718.75,44.0756181658951
3719,44.2655183285376
3719.25,44.4554184911798
3719.5,44.6453186538223
3719.75,44.7740492931315
3720,44.6341228575001
3720.25,44.4941964218691
3720.5,44.3542699862378
3720.75,44.2143435506067
3721,44.0744171149757
3721.25,43.9344906793443
3721.5,43.7945642437133
3721.75,43.654637808082
3722,43.5147113724509
3722.25,43.3747849368196
3722.5,43.2348585011885
3722.75,43.0949320655572
3723,42.9550056299262
3723.25,42.8150791942948
3723.5,42.6751527586638
3723.75,42.5352263230325
3724,42.3952998874014
3724.25,42.2553734517704
3724.5,42.115447016139
3724.75,42.0454617790566
3725,42.3053251595148
3725.25,42.5651885399724
3725.5,42.8250519204306
3725.75,43.0849153008883
3726,43.3447786813464
3726.25,43.6046420618041
3726.5,43.8645054422623
3726.75,44.12436882272
3727,44.3842322031781
3727.25,44.6440955836358
3727.5,44.9039589640935
3727.75,45.1638223445516
3728,45.4236857250093
3728.25,45.6835491054675
3728.5,45.9434124859252
3728.75,46.2032758663833
3729,46.463139246841
3729.25,46.7230026272991
3729.5,46.9828660077568
3729.75,47.1917828099587
3730,47.1418090829476
3730.25,47.0918353559364
3730.5,47.0418616289253
3730.75,46.9918879019142
3731,46.941914174903
3731.25,46.8919404478919
3731.5,46.8419667208807
3731.75,46.7919929938696
3732,46.7420192668585
3732.25,46.6920455398474
3732.5,46.6420718128362
3732.75,46.5920980858251
3733,46.5421243588139
3733.25,46.4921506318028
3733.5,46.4421769047916
3733.75,46.3922031777805
3734,46.3422294507695
3734.25,46.2922557237583
3734.5,46.2422819967472
3734.75,46.2107684223696
3735,46.2807316401852
3735.25,46.3506948580008
3735.5,46.4206580758163
3735.75,46.490621293632
3736,46.5605845114475
3736.25,46.6305477292632
3736.5,46.7005109470787
3736.75,46.7704741648944
3737,46.8404373827099
3737.25,46.9104006005254
3737.5,46.9803638183411
3737.75,47.0503270361566
3738,47.1202902539723
3738.25,47.1902534717878
3738.5,47.2602166896035
3738.75,47.330179907419
3739,47.4001431252346
3739.25,47.4701063430502
3739.5,47.5400695608658
3739.75,47.6050163893407
3740,47.6399979982485
3740.25,47.6749796071563
3740.5,47.709961216064
3740.75,47.7449428249719
3741,47.7799244338796
3741.25,47.8149060427875
3741.5,47.8498876516952
3741.75,47.8848692606031
3742,47.9198508695108
3742.25,47.9548324784186
3742.5,47.9898140873264
3742.75,48.0247956962342
3743,48.059777305142
3743.25,48.0947589140498
3743.5,48.1297405229576
3743.75,48.1647221318654
3744,48.1997037407732
3744.25,48.234685349681
3744.5,48.2696669585888
3744.75,48.2475375953961
3745,47.8527451520077
3745.25,47.4579527086201
3745.5,47.0631602652317
3745.75,46.6683678218441
3746,46.2735753784557
3746.25,45.8787829350681
3746.5,45.4839904916798
3746.75,45.0891980482921
3747,44.6944056049038
3747.25,44.2996131615161
3747.5,43.9048207181285
3747.75,43.5100282747402
3748,43.1152358313525
3748.25,42.7204433879642
3748.5,42.3256509445765
3748.75,41.9308585011882
3749,41.5360660578006
3749.25,41.1412736144122
3749.5,40.7464811710246
3749.75,40.4476997372706
3750,40.8374948079571
3750.25,41.2272898786443
3750.5,41.6170849493308
3750.75,42.0068800200174
3751,42.3966750907046
3751.25,42.7864701613911
3751.5,43.1762652320784
3751.75,43.5660603027649
3752,43.9558553734521
3752.25,44.3456504441386
3752.5,44.7354455148259
3752.75,45.1252405855124
3753,45.5150356561996
3753.25,45.9048307268861
3753.5,46.2946257975734
3753.75,46.6844208682599
3754,47.0742159389464
3754.25,47.4640110096337
3754.5,47.8538060803202
3754.75,48.1541628925307
3755,47.7443783310397
3755.25,47.334593769548
3755.5,46.9248092080571
3755.75,46.5150246465653
3756,46.1052400850744
3756.25,45.6954555235827
3756.5,45.2856709620917
3756.75,44.8758864006
3757,44.4661018391091
3757.25,44.0563172776181
3757.5,43.6465327161264
3757.75,43.2367481546354
3758,42.8269635931437
3758.25,42.4171790316528
3758.5,42.0073944701611
3758.75,41.5976099086701
3759,41.1878253471784
3759.25,40.7780407856874
3759.5,40.3682562241957
3759.75,40.0248157137496
3760,40.2696869761044
3760.25,40.5145582384587
3760.5,40.7594295008131
3760.75,41.0043007631679
3761,41.2491720255223
3761.25,41.4940432878771
3761.5,41.7389145502314
3761.75,41.9837858125862
3762,42.2286570749406
3762.25,42.4735283372954
3762.5,42.7183995996497
3762.75,42.9632708620045
3763,43.2081421243589
3763.25,43.4530133867137
3763.5,43.697884649068
3763.75,43.9427559114224
3764,44.1876271737772
3764.25,44.4324984361315
3764.5,44.6773696984863
3764.75,44.8881986738396
3765,44.7582669836106
3765.25,44.6283352933817
3765.5,44.4984036031526
3765.75,44.3684719129238
3766,44.2385402226947
3766.25,44.1086085324659
3766.5,43.9786768422368
3766.75,43.848745152008
3767,43.7188134617791
3767.25,43.58888177155
3767.5,43.4589500813212
3767.75,43.3290183910921
3768,43.1990867008633
3768.25,43.0691550106342
3768.5,42.9392233204054
3768.75,42.8092916301763
3769,42.6793599399474
3769.25,42.5494282497184
3769.5,42.4194965594895
3769.75,42.3068229700989
3770,42.3917783060178
3770.25,42.4767336419366
3770.5,42.5616889778557
3770.75,42.6466443137745
3771,42.7315996496935
3771.25,42.8165549856124
3771.5,42.9015103215314
3771.75,42.9864656574503
3772,43.0714209933693
3772.25,43.1563763292881
3772.5,43.2413316652071
3772.75,43.326287001126
3773,43.411242337045
3773.25,43.4961976729639
3773.5,43.5811530088829
3773.75,43.6661083448017
3774,43.7510636807206
3774.25,43.8360190166396
3774.5,43.9209743525585
3774.75,44.0006976104091
3775,44.0106923558113
3775.25,44.0206871012136
3775.5,44.0306818466158
3775.75,44.040676592018
3776,44.0506713374202
3776.25,44.0606660828225
3776.5,44.0706608282247
3776.75,44.0806555736269
3777,44.0906503190292
3777.25,44.1006450644314
3777.5,44.1106398098336
3777.75,44.1206345552358
3778,44.1306293006381
3778.25,44.1406240460403
3778.5,44.1506187914425
3778.75,44.1606135368447
3779,44.170608282247
3779.25,44.1806030276492
3779.5,44.1905977730514
3779.75,44.1896309270611
3780,44.014722882522
3780.25,43.8398148379832
3780.5,43.6649067934443
3780.75,43.4899987489052
3781,43.3150907043664
3781.25,43.1401826598272
3781.5,42.9652746152884
3781.75,42.7903665707493
3782,42.6154585262104
3782.25,42.4405504816713
3782.5,42.2656424371325
3782.75,42.0907343925933
3783,41.9158263480545
3783.25,41.7409183035154
3783.5,41.5660102589765
3783.75,41.3911022144377
3784,41.2161941698986
3784.25,41.0412861253597
3784.5,40.8663780808206
3784.75,40.7007311397473
3785,40.7157232578506
3785.25,40.730715375954
3785.5,40.7457074940573
3785.75,40.7606996121606
3786,40.775691730264
3786.25,40.7906838483673
3786.5,40.8056759664707
3786.75,40.820668084574
3787,40.8356602026773
3787.25,40.8506523207807
3787.5,40.865644438884
3787.75,40.8806365569874
3788,40.8956286750907
3788.25,40.9106207931941
3788.5,40.9256129112974
3788.75,40.9406050294007
3789,40.9555971475041
3789.25,40.9705892656074
3789.5,40.9855813837108
3789.75,41
3790,41
3790.25,41
3790.5,41
3790.75,41
3791,41
3791.25,41
3791.5,41
3791.75,41
3792,41
3792.25,41
3792.5,41
3792.75,41
3793,41
3793.25,41
3793.5,41
3793.75,41
3794,41
3794.25,41
3794.5,41
3794.75,41.00762417115
3795,41.282479669711
3795.25,41.5573351682725
3795.5,41.8321906668335
3795.75,42.107046165395
3796,42.381901663956
3796.25,42.6567571625175
3796.5,42.9316126610785
3796.75,43.2064681596396
3797,43.4813236582011
3797.25,43.7561791567621
3797.5,44.0310346553236
3797.75,44.3058901538846
3798,44.5807456524461
3798.25,44.8556011510071
3798.5,45.1304566495686
3798.75,45.4053121481296
3799,45.6801676466911
3799.25,45.9550231452522
3799.5,46.2298786438137
3799.75,46.499139246841
3800,46.4491655198299
3800.25,46.3991917928187
3800.5,46.3492180658076
3800.75,46.2992443387964
3801,46.2492706117853
3801.25,46.1992968847741
3801.5,46.1493231577631
3801.75,46.0993494307519
3802,46.0493757037408
3802.25,45.9994019767296
3802.5,45.9494282497185
3802.75,45.8994545227073
3803,45.8494807956962
3803.25,45.799507068685
3803.5,45.7495333416739
3803.75,45.6995596146628
3804,45.6495858876517
3804.25,45.5996121606406
3804.5,45.5496384336294
3804.75,45.5005699987489
3805,45.5855253346679
3805.25,45.6704806705868
3805.5,45.7554360065058
3805.75,45.8403913424246
3806,45.9253466783437
3806.25,46.0103020142625
3806.5,46.0952573501815
3806.75,46.1802126861004
3807,46.2651680220192
3807.25,46.3501233579382
3807.5,46.4350786938571
3807.75,46.5200340297761
3808,46.604989365695
3808.25,46.689944701614
3808.5,46.7749000375328
3808.75,46.8598553734519
3809,46.9448107093707
3809.25,47.0297660452897
3809.5,47.1147213812086
3809.75,47.1996767171276
3810,47.1601731515076
3810.25,47.1201941698987
3810.5,47.0802151882897
3810.75,47.0402362066809
3811,47.0002572250719
3811.25,46.960278243463
3811.5,46.9202992618541
3811.75,46.8803202802452
3812,46.8403412986363
3812.25,46.8003623170274
3812.5,46.7603833354184
3812.75,46.7204043538096
3813,46.6804253722006
3813.25,46.6404463905917
3813.5,46.6004674089829
3813.75,46.5604884273739
3814,46.5205094457651
3814.25,46.4805304641561
3814.5,46.4405514825472
3814.75,46.4005725009383
3815,46.1734127361441
3815.25,45.9435335918927
3815.5,45.7136544476417
3815.75,45.4837753033902
3816,45.2538961591392
3816.25,45.0240170148877
3816.5,44.7941378706367
3816.75,44.5642587263857
3817,44.3343795821342
3817.25,44.1045004378832
3817.5,43.8746212936318
3817.75,43.6447421493807
3818,43.4148630051293
3818.25,43.1849838608783
3818.5,42.9551047166268
3818.75,42.7252255723758
3819,42.4953464281244
3819.25,42.2654672838733
3819.5,42.0355881396219
3819.75,41.8057089953709
3820,41.8389861128487
3820.25,41.8789650944577
3820.5,41.9189440760665
3820.75,41.9589230576755
3821,41.9989020392844
3821.25,42.0388810208933
3821.5,42.0788600025022
3821.75,42.1188389841111
3822,42.15881796572
3822.25,42.198796947329
3822.5,42.2387759289378
3822.75,42.2787549105468
3823,42.3187338921556
3823.25,42.3587128737645
3823.5,42.3986918553735
3823.75,42.4386708369823
3824,42.4786498185913
3824.25,42.5186288002002
3824.5,42.5586077818091
3824.75,42.598586763418
3825,42.6337450268986
3825.25,42.6687266358063
3825.5,42.7037082447142
3825.75,42.7386898536219
3826,42.7736714625298
3826.25,42.8086530714375
3826.5,42.8436346803453
3826.75,42.8786162892531
3827,42.9135978981609
3827.25,42.9485795070687
3827.5,42.9835611159765
3827.75,43.0185427248843
3828,43.0535243337921
3828.25,43.0885059426999
3828.5,43.1234875516077
3828.75,43.1584691605155
3829,43.1934507694233
3829.25,43.2284323783311
3829.5,43.2634139872388
3829.75,43.2983955961467
3830,43.2094047291379
3830.25,43.1144546478169
3830.5,43.0195045664956
3830.75,42.9245544851745
3831,42.8296044038533
3831.25,42.7346543225322
3831.5,42.639704241211
3831.75,42.5447541598899
3832,42.4498040785686
3832.25,42.3548539972476
3832.5,42.2599039159263
3832.75,42.1649538346052
3833,42.070003753284
3833.25,41.9750536719629
3833.5,41.8801035906418
3833.75,41.7851535093206
3834,41.6902034279995
3834.25,41.5952533466783
3834.5,41.5003032653572
3834.75,41.4053531840359
3835,41.5320375328412
3835.25,41.6719639684726
3835.5,41.8118904041036
3835.75,41.9518168397349
3836,42.091743275366
3836.25,42.2316697109973
3836.5,42.3715961466284
3836.75,42.5115225822594
3837,42.6514490178907
3837.25,42.7913754535218
3837.5,42.9313018891531
3837.75,43.0712283247842
3838,43.2111547604155
3838.25,43.3510811960465
3838.5,43.4910076316779
3838.75,43.6309340673089
3839,43.7708605029402
3839.25,43.9107869385713
3839.5,44.0507133742026
3839.75,44.1906398098337
3840,43.9295413486802
3840.25,43.6396937320154
3840.5,43.349846115351
3840.75,43.0599984986861
3841,42.7701508820218
3841.25,42.4803032653569
3841.5,42.1904556486926
3841.75,41.9006080320277
3842,41.6107604153634
3842.25,41.3209127986985
3842.5,41.0310651820342
3842.75,40.7412175653693
3843,40.451369948705
3843.25,40.1615223320407
3843.5,39.8716747153758
3843.75,39.5818270987115
3844,39.2919794820466
3844.25,39.0021318653823
3844.5,38.7122842487174
3844.75,38.422436632053
3845,38.948653571876
3845.25,39.543340923308
3845.5,40.1380282747411
3845.75,40.7327156261731
3846,41.3274029776061
3846.25,41.9220903290381
3846.5,42.5167776804701
3846.75,43.1114650319032
3847,43.7061523833352
3847.25,44.3008397347683
3847.5,44.8955270862003
3847.75,45.4902144376334
3848,46.0849017890654
3848.25,46.6795891404985
3848.5,47.2742764919305
3848.75,47.8689638433636
3849,48.4636511947956
3849.25,49.0583385462287
3849.5,49.6530258976607
3849.75,50.2477132490927
3850,49.9854988114598
3850.25,49.6406800950833
3850.5,49.2958613787061
3850.75,48.9510426623296
3851,48.6062239459524
3851.25,48.2614052295759
3851.5,47.9165865131987
3851.75,47.5717677968222
3852,47.226949080445
3852.25,46.8821303640685
3852.5,46.5373116476913
3852.75,46.1924929313148
3853,45.8476742149382
3853.25,45.5028554985611
3853.5,45.1580367821845
3853.75,44.8132180658074
3854,44.4683993494308
3854.25,44.1235806330536
3854.5,43.7787619166771
3854.75,43.4339432002999
3855,43.6793374202427
3855.25,43.9891745277121
3855.5,44.2990116351808
3855.75,44.6088487426502
3856,44.918685850119
3856.25,45.2285229575877
3856.5,45.5383600650571
3856.75,45.8481971725259
3857,46.1580342799952
3857.25,46.467871387464
3857.5,46.7777084949333
3857.75,47.0875456024021
3858,47.3973827098714
3858.25,47.7072198173402
3858.5,48.0170569248095
3858.75,48.3268940322783
3859,48.6367311397476
3859.25,48.9465682472164
3859.5,49.2564053546858
3859.75,49.5662424621545
3860,49.0567466533219
3860.25,48.4470671837854
3860.5,47.8373877142501
3860.75,47.2277082447137
3861,46.6180287751783
3861.25,46.0083493056419
3861.5,45.3986698361066
3861.75,44.7889903665701
3862,44.1793108970348
3862.25,43.5696314274984
3862.5,42.959951957963
3862.75,42.3502724884266
3863,41.7405930188912
3863.25,41.1309135493559
3863.5,40.5212340798195
3863.75,39.9115546102841
3864,39.3018751407477
3864.25,38.6921956712124
3864.5,38.0825162016759
3864.75,37.4728367321406
3865,37.4264021018391
3865.25,37.4563863380458
3865.5,37.4863705742525
3865.75,37.5163548104592
3866,37.5463390466659
3866.25,37.5763232828725
3866.5,37.6063075190792
3866.75,37.6362917552859
3867,37.6662759914925
3867.25,37.6962602276993
3867.5,37.7262444639059
3867.75,37.7562287001126
3868,37.7862129363193
3868.25,37.816197172526
3868.5,37.8461814087326
3868.75,37.8761656449394
3869,37.906149881146
3869.25,37.9361341173527
3869.5,37.9661183535594
3869.75,37.996102589766
3870,37.8695658701363
3870.25,37.719644689103
3870.5,37.5697235080695
3870.75,37.4198023270362
3871,37.2698811460026
3871.25,37.1199599649693
3871.5,36.9700387839358
3871.75,36.8201176029025
3872,36.670196421869
3872.25,36.5202752408357
3872.5,36.3703540598021
3872.75,36.2204328787689
3873,36.0705116977356
3873.25,35.920590516702
3873.5,35.7706693356688
3873.75,35.6207481546352
3874,35.4708269736019
3874.25,35.3209057925684
3874.5,35.1709846115351
3874.75,35.0210634305015
3875,35.0429525835106
3875.25,35.0929263105218
3875.5,35.1429000375329
3875.75,35.192873764544
3876,35.2428474915551
3876.25,35.2928212185662
3876.5,35.3427949455774
3876.75,35.3927686725885
3877,35.4427423995997
3877.25,35.4927161266108
3877.5,35.542689853622
3877.75,35.5926635806331
3878,35.6426373076442
3878.25,35.6926110346553
3878.5,35.7425847616665
3878.75,35.7925584886776
3879,35.8425322156888
3879.25,35.8925059426999
3879.5,35.942479669711
3879.75,35.9924533967222
3880,36.1187959464531
3880.25,36.2587223820844
3880.5,36.3986488177155
3880.75,36.5385752533468
3881,36.6785016889778
3881.25,36.8184281246092
3881.5,36.9583545602402
3881.75,37.0982809958715
3882,37.2382074315026
3882.25,37.3781338671339
3882.5,37.518060302765
3882.75,37.657986738396
3883,37.7979131740273
3883.25,37.9378396096584
3883.5,38.0777660452897
3883.75,38.2176924809208
3884,38.3576189165521
3884.25,38.4975453521831
3884.5,38.6374717878145
3884.75,38.7773982234455
3885,39.0178886525713
3885.25,39.277752033029
3885.5,39.5376154134871
3885.75,39.7974787939448
3886,40.0573421744029
3886.25,40.3172055548606
3886.5,40.5770689353183
3886.75,40.8369323157765
3887,41.0967956962341
3887.25,41.3566590766923
3887.5,41.61652245715
3887.75,41.8763858376081
3888,42.1362492180658
3888.25,42.396112598524
3888.5,42.6559759789817
3888.75,42.9158393594398
3889,43.1757027398975
3889.25,43.4355661203557
3889.5,43.6954295008133
3889.75,43.955292881271
3890,43.8717337670461
3890.25,43.7168152133117
3890.5,43.561896659577
3890.75,43.4069781058426
3891,43.252059552108
3891.25,43.0971409983736
3891.5,42.9422224446389
3891.75,42.7873038909045
3892,42.6323853371698
3892.25,42.4774667834355
3892.5,42.3225482297008
3892.75,42.1676296759664
3893,42.012711122232
3893.25,41.8577925684973
3893.5,41.702874014763
3893.75,41.5479554610283
3894,41.3930369072939
3894.25,41.2381183535592
3894.5,41.0831997998248
3894.75,40.9282812460902
3895,40.8019582134367
3895.25,40.6820212686099
3895.5,40.5620843237833
3895.75,40.4421473789564
3896,40.3222104341298
3896.25,40.2022734893032
3896.5,40.0823365444763
3896.75,39.9623995996497
3897,39.8424626548229
3897.25,39.7225257099963
3897.5,39.6025887651694
3897.75,39.4826518203428
3898,39.362714875516
3898.25,39.2427779306893
3898.5,39.1228409858625
3898.75,39.0029040410359
3899,38.882967096209
3899.25,38.7630301513824
3899.5,38.6430932065558
3899.75,38.5231562617289
3900,38.5
3900.25,38.5
3900.5,38.5
3900.75,38.5
3901,38.5
3901.25,38.5
3901.5,38.5
3901.75,38.5
3902,38.5
3902.25,38.5
3902.5,38.5
3902.75,38.5
3903,38.5
3903.25,38.5
3903.5,38.5
3903.75,38.5
3904,38.5
3904.25,38.5
3904.5,38.5
3904.75,38.5
3905,38.5477597898162
3905.25,38.6077282622295
3905.5,38.6676967346429
3905.75,38.7276652070562
3906,38.7876336794695
3906.25,38.8476021518829
3906.5,38.9075706242962
3906.75,38.9675390967097
3907,39.027507569123
3907.25,39.0874760415364
3907.5,39.1474445139497
3907.75,39.2074129863631
3908,39.2673814587764
3908.25,39.3273499311899
3908.5,39.3873184036032
3908.75,39.4472868760166
3909,39.5072553484299
3909.25,39.5672238208432
3909.5,39.6271922932566
3909.75,39.6871607656699
3910,39.5389751032152
3910.25,39.3340828224697
3910.5,39.1291905417239
3910.75,38.9242982609784
3911,38.7194059802325
3911.25,38.514513699487
3911.5,38.3096214187412
3911.75,38.1047291379957
3912,37.8998368572499
3912.25,37.6949445765044
3912.5,37.4900522957589
3912.75,37.285160015013
3913,37.0802677342676
3913.25,36.8753754535217
3913.5,36.6704831727762
3913.75,36.4655908920304
3914,36.2606986112849
3914.25,36.055806330539
3914.5,35.8509140497936
3914.75,35.6460217690477
3915,35.5302519704741
3915.25,35.440299261854
3915.5,35.350346553234
3915.75,35.2603938446139
3916,35.170441135994
3916.25,35.080488427374
3916.5,34.9905357187539
3916.75,34.9005830101339
3917,34.8106303015138
3917.25,34.7206775928938
3917.5,34.6307248842737
3917.75,34.5407721756537
3918,34.4508194670336
3918.25,34.3608667584136
3918.5,34.2709140497935
3918.75,34.1809613411735
3919,34.0910086325534
3919.25,34.0010559239334
3919.5,33.9111032153134
3919.75,33.8211505066933
3920,33.8993809583385
3920.25,34.0293126485676
3920.5,34.1592443387964
3920.75,34.2891760290255
3921,34.4191077192543
3921.25,34.5490394094834
3921.5,34.6789710997123
3921.75,34.8089027899413
3922,34.9388344801702
3922.25,35.0687661703993
3922.5,35.1986978606281
3922.75,35.3286295508569
3923,35.458561241086
3923.25,35.5884929313149
3923.5,35.7184246215439
3923.75,35.8483563117728
3924,35.9782880020019
3924.25,36.1082196922307
3924.5,36.2381513824598
3924.75,36.3680830726886
3925,36.5130939572127
3925.25,36.663015138246
3925.5,36.8129363192796
3925.75,36.9628575003128
3926,37.1127786813461
3926.25,37.2626998623797
3926.5,37.4126210434129
3926.75,37.5625422244465
3927,37.7124634054798
3927.25,37.8623845865133
3927.5,38.0123057675466
3927.75,38.1622269485802
3928,38.3121481296134
3928.25,38.462069310647
3928.5,38.6119904916803
3928.75,38.7619116727138
3929,38.9118328537471
3929.25,39.0617540347804
3929.5,39.2116752158139
3929.75,39.3615963968472
3930,39.6304696609536
3930.25,39.9403067684223
3930.5,40.2501438758917
3930.75,40.5599809833604
3931,40.8698180908298
3931.25,41.1796551982985
3931.5,41.4894923057679
3931.75,41.7993294132367
3932,42.109166520706
3932.25,42.4190036281748
3932.5,42.7288407356436
3932.75,43.0386778431129
3933,43.3485149505817
3933.25,43.658352058051
3933.5,43.9681891655198
3933.75,44.2780262729891
3934,44.5878633804579
3934.25,44.8977004879272
3934.5,45.207537595396
3934.75,45.5173747028653
3935,45.4937235080695
3935.25,45.3487996997371
3935.5,45.2038758914049
3935.75,45.0589520830728
3936,44.9140282747403
3936.25,44.7691044664082
3936.5,44.6241806580757
3936.75,44.4792568497436
3937,44.3343330414111
3937.25,44.189409233079
3937.5,44.0444854247465
3937.75,43.8995616164144
3938,43.7546378080819
3938.25,43.6097139997498
3938.5,43.4647901914173
3938.75,43.3198663830851
3939,43.174942574753
3939.25,43.0300187664205
3939.5,42.8850949580884
3939.75,42.7401711497559
3940,42.5482892530965
3940.25,42.3383995996495
3940.5,42.1285099462029
3940.75,41.918620292756
3941,41.7087306393094
3941.25,41.4988409858624
3941.5,41.2889513324158
3941.75,41.0790616789688
3942,40.8691720255223
3942.25,40.6592823720757
3942.5,40.4493927186287
3942.75,40.2395030651821
3943,40.0296134117351
3943.25,39.8197237582885
3943.5,39.6098341048416
3943.75,39.399944451395
3944,39.190054797948
3944.25,38.9801651445014
3944.5,38.7702754910545
3944.75,38.5603858376079
3945,38.4145692480919
3945.25,38.2946323032653
3945.5,38.1746953584385
3945.75,38.0547584136119
3946,37.9348214687852
3946.25,37.8148845239584
3946.5,37.6949475791318
3946.75,37.5750106343049
3947,37.4550736894783
3947.25,37.3351367446515
3947.5,37.2151997998248
3947.75,37.095262854998
3948,36.9753259101714
3948.25,36.8553889653445
3948.5,36.7354520205179
3948.75,36.6155150756911
3949,36.4955781308645
3949.25,36.3756411860378
3949.5,36.255704241211
3949.75,36.1357672963844
3950,36.0053091455022
3950.25,35.8703800825723
3950.5,35.7354510196421
3950.75,35.6005219567121
3951,35.4655928937819
3951.25,35.330663830852
3951.5,35.1957347679218
3951.75,35.0608057049918
3952,34.9258766420616
3952.25,34.7909475791317
3952.5,34.6560185162017
3952.75,34.5210894532715
3953,34.3861603903416
3953.25,34.2512313274114
3953.5,34.1163022644814
3953.75,33.9813732015512
3954,33.8464441386213
3954.25,33.7115150756911
3954.5,33.5765860127611
3954.75,33.441656949831
3955,33.4138180908295
3955.25,33.433807581634
3955.5,33.4537970724384
3955.75,33.4737865632428
3956,33.4937760540473
3956.25,33.5137655448517
3956.5,33.5337550356562
3956.75,33.5537445264606
3957,33.5737340172651
3957.25,33.5937235080696
3957.5,33.613712998874
3957.75,33.6337024896785
3958,33.6536919804829
3958.25,33.6736814712874
3958.5,33.6936709620919
3958.75,33.7136604528963
3959,33.7336499437007
3959.25,33.7536394345052
3959.5,33.7736289253096
3959.75,33.7936184161141
3960,33.8442256974853
3960.25,33.9091915425998
3960.5,33.9741573877143
3960.75,34.0391232328288
3961,34.1040890779432
3961.25,34.1690549230577
3961.5,34.2340207681722
3961.75,34.2989866132867
3962,34.3639524584011
3962.25,34.4289183035155
3962.5,34.4938841486301
3962.75,34.5588499937445
3963,34.623815838859
3963.25,34.6887816839735
3963.5,34.753747529088
3963.75,34.8187133742024
3964,34.883679219317
3964.25,34.9486450644314
3964.5,35.0136109095459
3964.75,35.0785767546603
3965,35.2775198298514
3965.25,35.5423805830102
3965.5,35.807241336169
3965.75,36.0721020893283
3966,36.3369628424871
3966.25,36.6018235956464
3966.5,36.8666843488052
3966.75,37.1315451019644
3967,37.3964058551232
3967.25,37.6612666082825
3967.5,37.9261273614413
3967.75,38.1909881146006
3968,38.4558488677594
3968.25,38.7207096209186
3968.5,38.9855703740774
3968.75,39.2504311272362
3969,39.5152918803955
3969.25,39.7801526335543
3969.5,40.0450133867135
3969.75,40.3098741398723
3970,40.4857190041287
3970.25,40.6156506943576
3970.5,40.7455823845866
3970.75,40.8755140748155
3971,41.0054457650445
3971.25,41.1353774552734
3971.5,41.2653091455025
3971.75,41.3952408357313
3972,41.5251725259604
3972.25,41.6551042161892
3972.5,41.7850359064181
3972.75,41.9149675966471
3973,42.044899286876
3973.25,42.1748309771051
3973.5,42.3047626673339
3973.75,42.434694357563
3974,42.5646260477918
3974.25,42.6945577380209
3974.5,42.8244894282497
3974.75,42.9544211184788
3975,43.0227103715751
3975.25,43.057691980483
3975.5,43.0926735893907
3975.75,43.1276551982985
3976,43.1626368072063
3976.25,43.1976184161141
3976.5,43.2326000250219
3976.75,43.2675816339297
3977,43.3025632428375
3977.25,43.3375448517453
3977.5,43.3725264606531
3977.75,43.4075080695609
3978,43.4424896784687
3978.25,43.4774712873765
3978.5,43.5124528962843
3978.75,43.5474345051921
3979,43.5824161140998
3979.25,43.6173977230077
3979.5,43.6523793319154
3979.75,43.6873609408232
3980,43.5340267734268
3980.25,43.2741633929686
3980.5,43.0143000125109
3980.75,42.7544366320528
3981,42.4945732515951
3981.25,42.234709871137
3981.5,41.9748464906793
3981.75,41.7149831102211
3982,41.4551197297634
3982.25,41.1952563493057
3982.5,40.9353929688476
3982.75,40.6755295883899
3983,40.4156662079318
3983.25,40.1558028274741
3983.5,39.8959394470159
3983.75,39.6360760665582
3984,39.3762126861001
3984.25,39.1163493056424
3984.5,38.8564859251842
3984.75,38.5966225447266
3985,38.3807086200423
3985.25,38.1908084574001
3985.5,38.000908294758
3985.75,37.8110081321155
3986,37.6211079694733
3986.25,37.4312078068308
3986.5,37.2413076441887
3986.75,37.0514074815462
3987,36.861507318904
3987.25,36.6716071562615
3987.5,36.4817069936194
3987.75,36.2918068309769
3988,36.1019066683347
3988.25,35.9120065056922
3988.5,35.7221063430501
3988.75,35.5322061804079
3989,35.3423060177654
3989.25,35.1524058551233
3989.5,34.9625056924808
3989.75,34.7726055298386
3990,34.6660462905041
3990.25,34.6110751907919
3990.5,34.5561040910796
3990.75,34.5011329913674
3991,34.4461618916551
3991.25,34.3911907919429
3991.5,34.3362196922306
3991.75,34.2812485925184
3992,34.2262774928062
3992.25,34.1713063930939
3992.5,34.1163352933817
3992.75,34.0613641936694
3993,34.0063930939572
3993.25,33.9514219942449
3993.5,33.8964508945327
3993.75,33.8414797948204
3994,33.7865086951082
3994.25,33.7315375953959
3994.5,33.6765664956837
3994.75,33.6215953959714
3995,33.5939316902289
3995.25,33.5839369448267
3995.5,33.5739421994245
3995.75,33.5639474540223
3996,33.55395270862
3996.25,33.5439579632178
3996.5,33.5339632178156
3996.75,33.5239684724134
3997,33.5139737270111
3997.25,33.5039789816089
3997.5,33.4939842362067
3997.75,33.4839894908045
3998,33.4739947454022
3998.25,33.464
3998.5,33.4540052545978
3998.75,33.4440105091955
3999,33.4340157637933
3999.25,33.4240210183911
3999.5,33.4140262729889
3999.75,33.4040315275866
4000,33.4596321781559
4000.25,33.5595796321782
4000.5,33.6595270862004
4000.75,33.7594745402228
4001,33.859421994245
4001.25,33.9593694482674
4001.5,34.0593169022895
4001.75,34.1592643563119
4002,34.2592118103341
4002.25,34.3591592643563
4002.5,34.4591067183786
4002.75,34.5590541724008
4003,34.6590016264232
4003.25,34.7589490804454
4003.5,34.8588965344677
4003.75,34.9588439884899
4004,35.0587914425123
4004.25,35.1587388965345
4004.5,35.2586863505569
4004.75,35.358633804579
4005,35.5054462654825
4005.25,35.6853516827225
4005.5,35.8652570999624
4005.75,36.0451625172027
4006,36.2250679344426
4006.25,36.4049733516829
4006.5,36.5848787689228
4006.75,36.764784186163
4007,36.944689603403
4007.25,37.1245950206432
4007.5,37.3045004378832
4007.75,37.4844058551234
4008,37.6643112723634
4008.25,37.8442166896036
4008.5,38.0241221068436
4008.75,38.2040275240835
4009,38.3839329413238
4009.25,38.5638383585637
4009.5,38.743743775804
4009.75,38.9236491930439
4010,39.1725910171403
4010.25,39.4724333792068
4010.5,39.7722757412739
4010.75,40.0721181033405
4011,40.3719604654076
4011.25,40.6718028274741
4011.5,40.9716451895412
4011.75,41.2714875516078
4012,41.5713299136743
4012.25,41.8711722757414
4012.5,42.171014637808
4012.75,42.4708569998751
4013,42.7706993619417
4013.25,43.0705417240088
4013.5,43.3703840860753
4013.75,43.6702264481424
4014,43.970068810209
4014.25,44.2699111722761
4014.5,44.5697535343426
4014.75,44.8695958964097
4015,44.9915280870762
4015.25,44.9765359689729
4015.5,44.9615438508695
4015.75,44.9465517327662
4016,44.9315596146628
4016.25,44.9165674965595
4016.5,44.9015753784561
4016.75,44.8865832603528
4017,44.8715911422495
4017.25,44.8565990241461
4017.5,44.8416069060428
4017.75,44.8266147879394
4018,44.8116226698361
4018.25,44.7966305517328
4018.5,44.7816384336294
4018.75,44.7666463155261
4019,44.7516541974228
4019.25,44.7366620793194
4019.5,44.7216699612161
4019.75,44.7066778431127
4020,44.7
4020.25,44.7
4020.5,44.7
4020.75,44.7
4021,44.7
4021.25,44.7
4021.5,44.7
4021.75,44.7
4022,44.7
4022.25,44.7
4022.5,44.7
4022.75,44.7
4023,44.7
4023.25,44.7
4023.5,44.7
4023.75,44.7
4024,44.7
4024.25,44.7
4024.5,44.7
4024.75,44.7
4025,44.6456224196172
4025.25,44.5456749655948
4025.5,44.4457275115727
4025.75,44.3457800575503
4026,44.2458326035281
4026.25,44.1458851495057
4026.5,44.0459376954836
4026.75,43.9459902414612
4027,43.846042787439
4027.25,43.7460953334166
4027.5,43.6461478793944
4027.75,43.5462004253721
4028,43.4462529713499
4028.25,43.3463055173275
4028.5,43.2463580633053
4028.75,43.1464106092832
4029,43.0464631552608
4029.25,42.9465157012386
4029.5,42.8465682472162
4029.75,42.7466207931941
4030,42.8439819842365
4030.25,43.1138401100964
4030.5,43.3836982359568
4030.75,43.6535563618166
4031,43.923414487677
4031.25,44.1932726135369
4031.5,44.4631307393973
4031.75,44.7329888652572
4032,45.0028469911171
4032.25,45.2727051169775
4032.5,45.5425632428374
4032.75,45.8124213686978
4033,46.0822794945577
4033.25,46.3521376204181
4033.5,46.621995746278
4033.75,46.8918538721384
4034,47.1617119979983
4034.25,47.4315701238587
4034.5,47.7014282497186
4034.75,47.971286375579
4035,48.0973862129363
4035.25,48.0923888402352
4035.5,48.0873914675341
4035.75,48.082394094833
4036,48.0773967221319
4036.25,48.0723993494308
4036.5,48.0674019767296
4036.75,48.0624046040285
4037,48.0574072313274
4037.25,48.0524098586263
4037.5,48.0474124859252
4037.75,48.0424151132241
4038,48.037417740523
4038.25,48.0324203678218
4038.5,48.0274229951207
4038.75,48.0224256224196
4039,48.0174282497185
4039.25,48.0124308770174
4039.5,48.0074335043163
4039.75,48.0024361316152
4040,47.8591317402727
4040.25,47.5842762417112
4040.5,47.3094207431502
4040.75,47.0345652445887
4041,46.7597097460277
4041.25,46.4848542474662
4041.5,46.2099987489052
4041.75,45.9351432503442
4042,45.6602877517827
4042.25,45.3854322532216
4042.5,45.1105767546601
4042.75,44.8357212560991
4043,44.5608657575376
4043.25,44.2860102589766
4043.5,44.0111547604151
4043.75,43.7362992618541
4044,43.4614437632926
4044.25,43.1865882647316
4044.5,42.9117327661701
4044.75,42.636877267609
4045,42.3971435005631
4045.25,42.1922512198172
4045.5,41.9873589390717
4045.75,41.7824666583259
4046,41.5775743775804
4046.25,41.3726820968346
4046.5,41.1677898160891
4046.75,40.9628975353432
4047,40.7580052545977
4047.25,40.5531129738519
4047.5,40.3482206931064
4047.75,40.1433284123606
4048,39.9384361316151
4048.25,39.7335438508696
4048.5,39.5286515701237
4048.75,39.3237592893783
4049,39.1188670086324
4049.25,38.9139747278869
4049.5,38.7090824471411
4049.75,38.5041901663956
4050,38.3828069560865
4050.25,38.3478253471788
4050.5,38.3128437382709
4050.75,38.2778621293632
4051,38.2428805204554
4051.25,38.2078989115476
4051.5,38.1729173026398
4051.75,38.137935693732
4052,38.1029540848242
4052.25,38.0679724759164
4052.5,38.0329908670086
4052.75,37.9980092581008
4053,37.963027649193
4053.25,37.9280460402852
4053.5,37.8930644313775
4053.75,37.8580828224696
4054,37.8231012135619
4054.25,37.788119604654
4054.5,37.7531379957463
4054.75,37.7181563868385
4055,37.7336504441387
4055.25,37.8036136619542
4055.5,37.8735768797699
4055.75,37.9435400975854
4056,38.013503315401
4056.25,38.0834665332166
4056.5,38.1534297510322
4056.75,38.2233929688477
4057,38.2933561866634
4057.25,38.3633194044789
4057.5,38.4332826222946
4057.75,38.5032458401101
4058,38.5732090579258
4058.25,38.6431722757413
4058.5,38.7131354935568
4058.75,38.7830987113725
4059,38.853061929188
4059.25,38.9230251470037
4059.5,38.9929883648192
4059.75,39.0629515826349
4060,39.0294682847492
4060.25,38.8795471037156
4060.5,38.7296259226823
4060.75,38.5797047416488
4061,38.4297835606155
4061.25,38.2798623795819
4061.5,38.1299411985487
4061.75,37.9800200175154
4062,37.8300988364818
4062.25,37.6801776554486
4062.5,37.530256474415
4062.75,37.3803352933817
4063,37.2304141123482
4063.25,37.0804929313149
4063.5,36.9305717502813
4063.75,36.7806505692481
4064,36.6307293882145
4064.25,36.4808082071812
4064.5,36.3308870261477
4064.75,36.1809658451144
4065,36.0333431752784
4065.25,35.888419366946
4065.5,35.7434955586138
4065.75,35.5985717502814
4066,35.4536479419492
4066.25,35.3087241336168
4066.5,35.1638003252846
4066.75,35.0188765169522
4067,34.87395270862
4067.25,34.7290289002876
4067.5,34.5841050919554
4067.75,34.439181283623
4068,34.2942574752908
4068.25,34.1493336669586
4068.5,34.0044098586262
4068.75,33.859486050294
4069,33.7145622419616
4069.25,33.5696384336294
4069.5,33.424714625297
4069.75,33.2797908169648
4070,33.1752943825847
4070.25,33.1203232828725
4070.5,33.0653521831602
4070.75,33.010381083448
4071,32.9554099837357
4071.25,32.9004388840235
4071.5,32.8454677843113
4071.75,32.790496684599
4072,32.7355255848868
4072.25,32.6805544851745
4072.5,32.6255833854623
4072.75,32.57061228575
4073,32.5156411860378
4073.25,32.4606700863255
4073.5,32.4056989866133
4073.75,32.350727886901
4074,32.2957567871888
4074.25,32.2407856874765
4074.5,32.1858145877643
4074.75,32.1308434880521
4075,32.0736789690979
4075.25,32.0137104966846
4075.5,31.9537420242712
4075.75,31.8937735518579
4076,31.8338050794445
4076.25,31.7738366070312
4076.5,31.7138681346177
4076.75,31.6538996622044
4077,31.593931189791
4077.25,31.5339627173777
4077.5,31.4739942449643
4077.75,31.414025772551
4078,31.3540573001376
4078.25,31.2940888277242
4078.5,31.2341203553109
4078.75,31.1741518828975
4079,31.1141834104842
4079.25,31.0542149380708
4079.5,30.9942464656575
4079.75,30.934277993244
4080,30.9513809583386
4080.25,31.0713179031654
4080.5,31.191254847992
4080.75,31.3111917928189
4081,31.4311287376455
4081.25,31.5510656824721
4081.5,31.6710026272989
4081.75,31.7909395721256
4082,31.9108765169524
4082.25,32.030813461779
4082.5,32.1507504066059
4082.75,32.2706873514325
4083,32.3906242962593
4083.25,32.510561241086
4083.5,32.6304981859128
4083.75,32.7504351307394
4084,32.8703720755663
4084.25,32.9903090203929
4084.5,33.1102459652197
4084.75,33.2301829100463
4085,33.3584731640185
4085.25,33.4983995996498
4085.5,33.6383260352808
4085.75,33.7782524709122
4086,33.9181789065432
4086.25,34.0581053421745
4086.5,34.1980317778056
4086.75,34.3379582134369
4087,34.477884649068
4087.25,34.6178110846993
4087.5,34.7577375203303
4087.75,34.8976639559617
4088,35.0375903915927
4088.25,35.1775168272238
4088.5,35.3174432628551
4088.75,35.4573696984861
4089,35.5972961341175
4089.25,35.7372225697485
4089.5,35.8771490053798
4089.75,36.0170754410109
4090,36.1142504691606
4090.25,36.1492320780683
4090.5,36.1842136869761
4090.75,36.2191952958839
4091,36.2541769047917
4091.25,36.2891585136995
4091.5,36.3241401226073
4091.75,36.3591217315151
4092,36.3941033404229
4092.25,36.4290849493307
4092.5,36.4640665582385
4092.75,36.4990481671463
4093,36.534029776054
4093.25,36.5690113849619
4093.5,36.6039929938696
4093.75,36.6389746027775
4094,36.6739562116852
4094.25,36.7089378205931
4094.5,36.7439194295008
4094.75,36.7789010384086
4095,36.7543855873889
4095.25,36.6394460152634
4095.5,36.5245064431377
4095.75,36.4095668710121
4096,36.2946272988864
4096.25,36.1796877267609
4096.5,36.0647481546352
4096.75,35.9498085825097
4097,35.834869010384
4097.25,35.7199294382584
4097.5,35.6049898661327
4097.75,35.4900502940072
4098,35.3751107218817
4098.25,35.260171149756
4098.5,35.1452315776305
4098.75,35.0302920055047
4099,34.9153524333792
4099.25,34.8004128612535
4099.5,34.685473289128
4099.75,34.5705337170023
4100,34.5308910296511
4100.25,34.6108489928689
4100.5,34.6908069560866
4100.75,34.7707649193043
4101,34.8507228825224
4101.25,34.9306808457401
4101.5,35.0106388089579
4101.75,35.0905967721756
4102,35.1705547353934
4102.25,35.2505126986114
4102.5,35.3304706618292
4102.75,35.4104286250469
4103,35.4903865882647
4103.25,35.5703445514827
4103.5,35.6503025147005
4103.75,35.7302604779182
4104,35.810218441136
4104.25,35.890176404354
4104.5,35.9701343675717
4104.75,36.0500923307895
4105,36.0530464156137
4105.25,35.928112098086
4105.5,35.8031777805578
4105.75,35.6782434630301
4106,35.5533091455023
4106.25,35.4283748279746
4106.5,35.3034405104464
4106.75,35.1785061929187
4107,35.0535718753909
4107.25,34.9286375578632
4107.5,34.803703240335
4107.75,34.6787689228073
4108,34.5538346052796
4108.25,34.4289002877518
4108.5,34.3039659702241
4108.75,34.1790316526959
4109,34.0540973351682
4109.25,33.9291630176404
4109.5,33.8042287001127
4109.75,33.6792943825845
4110,33.6054767921932
4110.25,33.6204689102965
4110.5,33.6354610283998
4110.75,33.6504531465032
4111,33.6654452646066
4111.25,33.6804373827099
4111.5,33.6954295008132
4111.75,33.7104216189165
4112,33.7254137370199
4112.25,33.7404058551232
4112.5,33.7553979732266
4112.75,33.7703900913299
4113,33.7853822094333
4113.25,33.8003743275366
4113.5,33.8153664456399
4113.75,33.8303585637433
4114,33.8453506818466
4114.25,33.86034279995
4114.5,33.8753349180533
4114.75,33.8903270361566
4115,33.90177305142
4115.25,33.9067704241211
4115.5,33.9117677968222
4115.75,33.9167651695233
4116,33.9217625422244
4116.25,33.9267599149256
4116.5,33.9317572876267
4116.75,33.9367546603278
4117,33.9417520330289
4117.25,33.94674940573
4117.5,33.9517467784311
4117.75,33.9567441511322
4118,33.9617415238334
4118.25,33.9667388965345
4118.5,33.9717362692356
4118.75,33.9767336419367
4119,33.9817310146378
4119.25,33.9867283873389
4119.5,33.99172576004
4119.75,33.9967231327412
4120,33.9948384836732
4120.25,33.9798463655699
4120.5,33.9648542474665
4120.75,33.9498621293632
4121,33.9348700112598
4121.25,33.9198778931565
4121.5,33.9048857750532
4121.75,33.8898936569498
4122,33.8749015388465
4122.25,33.8599094207432
4122.5,33.8449173026398
4122.75,33.8299251845364
4123,33.8149330664331
4123.25,33.7999409483298
4123.5,33.7849488302265
4123.75,33.7699567121231
4124,33.7549645940198
4124.25,33.7399724759164
4124.5,33.7249803578131
4124.75,33.7099882397098
4125,33.6966640810709
4125.25,33.6866693356687
4125.5,33.6766745902665
4125.75,33.6666798448643
4126,33.656685099462
4126.25,33.6466903540598
4126.5,33.6366956086576
4126.75,33.6267008632554
4127,33.6167061178531
4127.25,33.6067113724509
4127.5,33.5967166270487
4127.75,33.5867218816464
4128,33.5767271362442
4128.25,33.566732390842
4128.5,33.5567376454398
4128.75,33.5467429000375
4129,33.5367481546353
4129.25,33.5267534092331
4129.5,33.5167586638308
4129.75,33.5067639184286
4130,33.4983845865132
4130.25,33.4933872138121
4130.5,33.488389841111
4130.75,33.4833924684099
4131,33.4783950957087
4131.25,33.4733977230076
4131.5,33.4684003503065
4131.75,33.4634029776054
4132,33.4584056049043
4132.25,33.4534082322032
4132.5,33.4484108595021
4132.75,33.4434134868009
4133,33.4384161140998
4133.25,33.4334187413987
4133.5,33.4284213686976
4133.75,33.4234239959965
4134,33.4184266232954
4134.25,33.4134292505943
4134.5,33.4084318778932
4134.75,33.403434505192
4135,33.4
4135.25,33.4
4135.5,33.4
4135.75,33.4
4136,33.4
4136.25,33.4
4136.5,33.4
4136.75,33.4
4137,33.4
4137.25,33.4
4137.5,33.4
4137.75,33.4
4138,33.4
4138.25,33.4
4138.5,33.4
4138.75,33.4
4139,33.4
4139.25,33.4
4139.5,33.4
4139.75,33.4
4140,33.4
4140.25,33.4
4140.5,33.4
4140.75,33.4
4141,33.4
4141.25,33.4
4141.5,33.4
4141.75,33.4
4142,33.4
4142.25,33.4
4142.5,33.4
4142.75,33.4
4143,33.4
4143.25,33.4
4143.5,33.4
4143.75,33.4
4144,33.4
4144.25,33.4
4144.5,33.4
4144.75,33.4
4145,33.4014577755536
4145.25,33.4064551482547
4145.5,33.4114525209558
4145.75,33.416449893657
4146,33.4214472663581
4146.25,33.4264446390592
4146.5,33.4314420117603
4146.75,33.4364393844614
4147,33.4414367571625
4147.25,33.4464341298636
4147.5,33.4514315025647
4147.75,33.4564288752659
4148,33.461426247967
4148.25,33.4664236206681
4148.5,33.4714209933692
4148.75,33.4764183660703
4149,33.4814157387714
4149.25,33.4864131114725
4149.5,33.4914104841736
4149.75,33.4964078568748
4150,33.5014052295759
4150.25,33.506402602277
4150.5,33.5113999749781
4150.75,33.5163973476792
4151,33.5213947203803
4151.25,33.5263920930814
4151.5,33.5313894657826
4151.75,33.5363868384837
4152,33.5413842111848
4152.25,33.5463815838859
4152.5,33.551378956587
4152.75,33.5563763292881
4153,33.5613737019893
4153.25,33.5663710746904
4153.5,33.5713684473915
4153.75,33.5763658200926
4154,33.5813631927937
4154.25,33.5863605654948
4154.5,33.5913579381959
4154.75,33.596355310897
4155,33.6054107343926
4155.25,33.6254002251971
4155.5,33.6453897160015
4155.75,33.665379206806
4156,33.6853686976104
4156.25,33.7053581884149
4156.5,33.7253476792193
4156.75,33.7453371700238
4157,33.7653266608282
4157.25,33.7853161516327
4157.5,33.8053056424372
4157.75,33.8252951332416
4158,33.845284624046
4158.25,33.8652741148505
4158.5,33.885263605655
4158.75,33.9052530964594
4159,33.9252425872639
4159.25,33.9452320780683
4159.5,33.9652215688728
4159.75,33.9852110596772
4160,34.0234024771675
4160.25,34.1133551857875
4160.5,34.2033078944078
4160.75,34.2932606030278
4161,34.3832133116477
4161.25,34.4731660202677
4161.5,34.5631187288877
4161.75,34.653071437508
4162,34.7430241461279
4162.25,34.8329768547479
4162.5,34.9229295633679
4162.75,35.0128822719882
4163,35.1028349806081
4163.25,35.1927876892281
4163.5,35.2827403978481
4163.75,35.3726931064684
4164,35.4626458150883
4164.25,35.5525985237083
4164.5,35.6425512323283
4164.75,35.7325039409482
4165,35.8424181158517
4165.25,36.0123287876894
4165.5,36.1822394595271
4165.75,36.3521501313648
4166,36.5220608032031
4166.25,36.6919714750408
4166.5,36.8618821468786
4166.75,37.0317928187163
4167,37.2017034905546
4167.25,37.3716141623923
4167.5,37.54152483423
4167.75,37.7114355060678
4168,37.8813461779055
4168.25,38.0512568497438
4168.5,38.2211675215815
4168.75,38.3910781934192
4169,38.560988865257
4169.25,38.7308995370953
4169.5,38.900810208933
4169.75,39.0707208807707
4170,39.1462229450771
4170.25,38.9213411735263
4170.5,38.6964594019764
4170.75,38.4715776304265
4171,38.2466958588766
4171.25,38.0218140873267
4171.5,37.7969323157759
4171.75,37.572050544226
4172,37.3471687726761
4172.25,37.1222870011262
4172.5,36.8974052295755
4172.75,36.6725234580255
4173,36.4476416864756
4173.25,36.2227599149257
4173.5,35.997878143375
4173.75,35.7729963718251
4174,35.5481146002751
4174.25,35.3232328287252
4174.5,35.0983510571753
4174.75,34.8734692856246
4175,34.6794350056299
4175.25,34.5894822970099
4175.5,34.4995295883899
4175.75,34.4095768797696
4176,34.3196241711497
4176.25,34.2296714625297
4176.5,34.1397187539097
4176.75,34.0497660452894
4177,33.9598133366695
4177.25,33.8698606280495
4177.5,33.7799079194295
4177.75,33.6899552108096
4178,33.6000025021893
4178.25,33.5100497935693
4178.5,33.4200970849493
4178.75,33.3301443763294
4179,33.2401916677091
4179.25,33.1502389590891
4179.5,33.0602862504691
4179.75,32.9703335418492
4180,32.8880105091954
4180.25,32.8330394094832
4180.5,32.778068309771
4180.75,32.7230972100588
4181,32.6681261103466
4181.25,32.6131550106342
4181.5,32.558183910922
4181.75,32.5032128112098
4182,32.4482417114976
4182.25,32.3932706117852
4182.5,32.338299512073
4182.75,32.2833284123608
4183,32.2283573126486
4183.25,32.1733862129362
4183.5,32.118415113224
4183.75,32.0634440135118
4184,32.0084729137996
4184.25,31.9535018140874
4184.5,31.898530714375
4184.75,31.8435596146628
4185,31.8031122231953
4185.25,31.8181043412986
4185.5,31.833096459402
4185.75,31.8480885775053
4186,31.8630806956087
4186.25,31.878072813712
4186.5,31.8930649318154
4186.75,31.9080570499187
4187,31.923049168022
4187.25,31.9380412861254
4187.5,31.9530334042287
4187.75,31.9680255223321
4188,31.9830176404354
4188.25,31.9980097585387
4188.5,32.0130018766421
4188.75,32.0279939947454
4189,32.0429861128488
4189.25,32.0579782309521
4189.5,32.0729703490554
4189.75,32.0879624671588
4190,32.1531825347182
4190.25,32.4230406605781
4190.5,32.692898786438
4190.75,32.9627569122979
4191,33.2326150381588
4191.25,33.5024731640187
4191.5,33.7723312898786
4191.75,34.0421894157385
4192,34.3120475415994
4192.25,34.5819056674593
4192.5,34.8517637933192
4192.75,35.1216219191791
4193,35.39148004504
4193.25,35.6613381708999
4193.5,35.9311962967598
4193.75,36.2010544226197
4194,36.4709125484796
4194.25,36.7407706743405
4194.5,37.0106288002004
4194.75,37.2804869260603
4195,37.5242402101838
4195.25,37.6541719004131
4195.5,37.7841035906419
4195.75,37.9140352808708
4196,38.0439669710996
4196.25,38.1738986613289
4196.5,38.3038303515578
4196.75,38.4337620417866
4197,38.5636937320155
4197.25,38.6936254222443
4197.5,38.8235571124736
4197.75,38.9534888027025
4198,39.0834204929313
4198.25,39.2133521831601
4198.5,39.3432838733894
4198.75,39.4732155636183
4199,39.6031472538471
4199.25,39.733078944076
4199.5,39.8630106343053
4199.75,39.9929423245341
4200,40.1079179281872
4200.25,40.1528942824972
4200.5,40.1978706368071
4200.75,40.2428469911173
4201,40.2878233454273
4201.25,40.3327996997373
4201.5,40.3777760540472
4201.75,40.4227524083574
4202,40.4677287626674
4202.25,40.5127051169774
4202.5,40.5576814712873
4202.75,40.6026578255975
4203,40.6476341799075
4203.25,40.6926105342175
4203.5,40.7375868885274
4203.75,40.7825632428374
4204,40.8275395971476
4204.25,40.8725159514576
4204.5,40.9174923057675
4204.75,40.9624686600775
4205,40.9950366570749
4205.25,40.9650524208682
4205.5,40.9350681846616
4205.75,40.9050839484549
4206,40.8750997122482
4206.25,40.8451154760415
4206.5,40.8151312398348
4206.75,40.7851470036282
4207,40.7551627674215
4207.25,40.7251785312148
4207.5,40.6951942950081
4207.75,40.6652100588015
4208,40.6352258225948
4208.25,40.605241586388
4208.5,40.5752573501814
4208.75,40.5452731139747
4209,40.5152888777681
4209.25,40.4853046415613
4209.5,40.4553204053546
4209.75,40.425336169148
4210,40.4154935568622
4210.25,40.5154410108844
4210.5,40.6153884649069
4210.75,40.7153359189291
4211,40.8152833729513
4211.25,40.9152308269735
4211.5,41.015178280996
4211.75,41.1151257350182
4212,41.2150731890404
4212.25,41.3150206430626
4212.5,41.4149680970851
4212.75,41.5149155511073
4213,41.6148630051295
4213.25,41.7148104591517
4213.5,41.8147579131743
4213.75,41.9147053671964
4214,42.0146528212186
4214.25,42.1146002752408
4214.5,42.214547729263
4214.75,42.3144951832855
4215,42.3927786813461
4215.25,42.342804954335
4215.5,42.292831227324
4215.75,42.2428575003127
4216,42.1928837733016
4216.25,42.1429100462905
4216.5,42.0929363192794
4216.75,42.0429625922681
4217,41.992988865257
4217.25,41.9430151382459
4217.5,41.8930414112348
4217.75,41.8430676842237
4218,41.7930939572125
4218.25,41.7431202302014
4218.5,41.6931465031903
4218.75,41.6431727761792
4219,41.5931990491679
4219.25,41.5432253221568
4219.5,41.4932515951457
4219.75,41.4432778681346
4220,41.395982484674
4220.25,41.3659982484674
4220.5,41.3360140122607
4220.75,41.3060297760541
4221,41.2760455398474
4221.25,41.2460613036406
4221.5,41.216077067434
4221.75,41.1860928312273
4222,41.1561085950207
4222.25,41.1261243588139
4222.5,41.0961401226072
4222.75,41.0661558864006
4223,41.0361716501939
4223.25,41.0061874139872
4223.5,40.9762031777805
4223.75,40.9462189415739
4224,40.9162347053672
4224.25,40.8862504691606
4224.5,40.8562662329538
4224.75,40.8262819967471
4225,40.7827228825222
4225.25,40.6427964468911
4225.5,40.5028700112596
4225.75,40.3629435756285
4226,40.2230171399975
4226.25,40.0830907043664
4226.5,39.9431642687348
4226.75,39.8032378331038
4227,39.6633113974727
4227.25,39.5233849618417
4227.5,39.3834585262106
4227.75,39.243532090579
4228,39.103605654948
4228.25,38.9636792193169
4228.5,38.8237527836858
4228.75,38.6838263480543
4229,38.5438999124232
4229.25,38.4039734767922
4229.5,38.2640470411611
4229.75,38.1241206055295
4230,38
4230.25,38
4230.5,38
4230.75,38
4231,38
4231.25,38
4231.5,38
4231.75,38
4232,38
4232.25,38
4232.5,38
4232.75,38
4233,38
4233.25,38
4233.5,38
4233.75,38
4234,38
4234.25,38
4234.5,38
4234.75,38
4235,38
4235.25,38
4235.5,38
4235.75,38
4236,38
4236.25,38
4236.5,38
4236.75,38
4237,38
4237.25,38
4237.5,38
4237.75,38
4238,38
4238.25,38
4238.5,38
4238.75,38
4239,38
4239.25,38
4239.5,38
4239.75,38
4240,37.9949465782559
4240.25,37.9399754785437
4240.5,37.8850043788315
4240.75,37.8300332791191
4241,37.7750621794069
4241.25,37.7200910796947
4241.5,37.6651199799825
4241.75,37.6101488802701
4242,37.5551777805579
4242.25,37.5002066808457
4242.5,37.4452355811335
4242.75,37.3902644814211
4243,37.3352933817089
4243.25,37.2803222819967
4243.5,37.2253511822845
4243.75,37.1703800825723
4244,37.1154089828599
4244.25,37.0604378831477
4244.5,37.0054667834355
4244.75,36.9504956837233
4245,36.898372576004
4245.25,36.8783830851995
4245.5,36.8583935943951
4245.75,36.8384041035907
4246,36.8184146127861
4246.25,36.7984251219817
4246.5,36.7784356311773
4246.75,36.7584461403728
4247,36.7384566495684
4247.25,36.7184671587639
4247.5,36.6984776679595
4247.75,36.678488177155
4248,36.6584986863506
4248.25,36.6385091955461
4248.5,36.6185197047416
4248.75,36.5985302139372
4249,36.5785407231328
4249.25,36.5585512323282
4249.5,36.5385617415238
4249.75,36.5185722507194
4250,36.4879534592769
4250.25,36.3180427874392
4250.5,36.1481321156009
4250.75,35.9782214437632
4251,35.8083107719255
4251.25,35.6384001000878
4251.5,35.4684894282494
4251.75,35.2985787564117
4252,35.128668084574
4252.25,34.9587574127363
4252.5,34.7888467408979
4252.75,34.6189360690602
4253,34.4490253972225
4253.25,34.2791147253848
4253.5,34.1092040535471
4253.75,33.9392933817087
4254,33.769382709871
4254.25,33.5994720380333
4254.5,33.4295613661956
4254.75,33.2596506943573
4255,33.0984911797823
4255.25,33.0735043162767
4255.5,33.0485174527712
4255.75,33.0235305892656
4256,32.99854372576
4256.25,32.9735568622545
4256.5,32.9485699987489
4256.75,32.9235831352434
4257,32.8985962717377
4257.25,32.8736094082322
4257.5,32.8486225447266
4257.75,32.8236356812211
4258,32.7986488177155
4258.25,32.7736619542099
4258.5,32.7486750907044
4258.75,32.7236882271988
4259,32.6987013636932
4259.25,32.6737145001876
4259.5,32.6487276366821
4259.75,32.6237407731765
4260,32.5967601651446
4260.25,32.5317943200299
4260.5,32.4668284749155
4260.75,32.4018626298011
4261,32.3368967846867
4261.25,32.271930939572
4261.5,32.2069650944576
4261.75,32.1419992493432
4262,32.0770334042288
4262.25,32.0120675591141
4262.5,31.9471017139997
4262.75,31.8821358688853
4263,31.8171700237708
4263.25,31.7522041786564
4263.5,31.6872383335418
4263.75,31.6222724884273
4264,31.5573066433129
4264.25,31.4923407981985
4264.5,31.4273749530838
4264.75,31.3624091079694
4265,31.3049168022019
4265.25,31.4298511197297
4265.5,31.5547854372579
4265.75,31.6797197547856
4266,31.8046540723133
4266.25,31.929588389841
4266.5,32.0545227073688
4266.75,32.179457024897
4267,32.3043913424247
4267.25,32.4293256599524
4267.5,32.5542599774802
4267.75,32.6791942950083
4268,32.8041286125361
4268.25,32.9290629300638
4268.5,33.0539972475915
4268.75,33.1789315651197
4269,33.3038658826475
4269.25,33.4288002001752
4269.5,33.5537345177029
4269.75,33.6786688352311
4270,33.7995676216689
4270.25,33.7845755035656
4270.5,33.7695833854623
4270.75,33.754591267359
4271,33.7395991492556
4271.25,33.7246070311522
4271.5,33.7096149130489
4271.75,33.6946227949456
4272,33.6796306768422
4272.25,33.6646385587389
4272.5,33.6496464406356
4272.75,33.6346543225322
4273,33.6196622044288
4273.25,33.6046700863255
4273.5,33.5896779682222
4273.75,33.5746858501189
4274,33.5596937320155
4274.25,33.5447016139121
4274.5,33.5297094958088
4274.75,33.5147173777055
4275,33.5
4275.25,33.5
4275.5,33.5
4275.75,33.5
4276,33.5
4276.25,33.5
4276.5,33.5
4276.75,33.5
4277,33.5
4277.25,33.5
4277.5,33.5
4277.75,33.5
4278,33.5
4278.25,33.5
4278.5,33.5
4278.75,33.5
4279,33.5
4279.25,33.5
4279.5,33.5
4279.75,33.5
4280,33.5004293757038
4280.25,33.555400475416
4280.5,33.6103715751282
4280.75,33.6653426748406
4281,33.7203137745528
4281.25,33.775284874265
4281.5,33.8302559739772
4281.75,33.8852270736896
4282,33.9401981734018
4282.25,33.995169273114
4282.5,34.0501403728262
4282.75,34.1051114725386
4283,34.1600825722508
4283.25,34.215053671963
4283.5,34.2700247716752
4283.75,34.3249958713874
4284,34.3799669710998
4284.25,34.434938070812
4284.5,34.4899091705242
4284.75,34.5448802702364
4285,34.5998513699488
4285.25,34.6299031652696
4285.5,34.6598874014763
4285.75,34.689871637683
4286,34.7198558738897
4286.25,34.7498401100964
4286.5,34.779824346303
4286.75,34.8098085825097
4287,34.8397928187163
4287.25,34.8697770549231
4287.5,34.8997612911298
4287.75,34.9297455273364
4288,34.9597297635431
4288.25,34.9897139997498
4288.5,35.0196982359565
4288.75,35.0496824721631
4289,35.0796667083698
4289.25,35.1096509445766
4289.5,35.1396351807832
4289.75,35.1696194169899
4290,35.1996036531965
4290.25,35.2345192043037
4290.5,35.2695008132116
4290.75,35.3044824221194
4291,35.3394640310271
4291.25,35.3744456399349
4291.5,35.4094272488428
4291.75,35.4444088577506
4292,35.4793904666583
4292.25,35.5143720755661
4292.5,35.549353684474
4292.75,35.5843352933818
4293,35.6193169022895
4293.25,35.6542985111973
4293.5,35.6892801201051
4293.75,35.7242617290129
4294,35.7592433379207
4294.25,35.7942249468285
4294.5,35.8292065557362
4294.75,35.8641881646441
4295,35.8991697735519
4295.25,35.7633944701614
4295.5,35.6234680345303
4295.75,35.4835415988987
4296,35.3436151632677
4296.25,35.2036887276366
4296.5,35.0637622920056
4296.75,34.9238358563745
4297,34.7839094207429
4297.25,34.6439829851119
4297.5,34.5040565494808
4297.75,34.3641301138498
4298,34.2242036782182
4298.25,34.0842772425871
4298.5,33.9443508069561
4298.75,33.804424371325
4299,33.6644979356934
4299.25,33.5245715000624
4299.5,33.3846450644313
4299.75,33.2447186288003
4300,33.1047921931692
4300.25,33.0179542099336
4300.5,32.9329988740147
4300.75,32.8480435380958
4301,32.763088202177
4301.25,32.6781328662578
4301.5,32.593177530339
4301.75,32.5082221944201
4302,32.4232668585013
4302.25,32.3383115225821
4302.5,32.2533561866632
4302.75,32.1684008507444
4303,32.0834455148255
4303.25,31.9984901789067
4303.5,31.9135348429875
4303.75,31.8285795070686
4304,31.7436241711498
4304.25,31.6586688352309
4304.5,31.5737134993117
4304.75,31.4887581633929
4305,31.403802827474
4305.25,31.3904526460653
4305.5,31.3804579006631
4305.75,31.3704631552608
4306,31.3604684098586
4306.25,31.3504736644564
4306.5,31.3404789190542
4306.75,31.3304841736519
4307,31.3204894282497
4307.25,31.3104946828475
4307.5,31.3004999374453
4307.75,31.290505192043
4308,31.2805104466408
4308.25,31.2705157012386
4308.5,31.2605209558364
4308.75,31.2505262104341
4309,31.2405314650319
4309.25,31.2305367196297
4309.5,31.2205419742275
4309.75,31.2105472288252
4310,31.200552483423
4310.25,31.237769047917
4310.5,31.2777480295258
4310.75,31.3177270111347
4311,31.3577059927437
4311.25,31.3976849743526
4311.5,31.4376639559615
4311.75,31.4776429375703
4312,31.5176219191794
4312.25,31.5576009007882
4312.5,31.5975798823971
4312.75,31.637558864006
4313,31.6775378456149
4313.25,31.7175168272239
4313.5,31.7574958088328
4313.75,31.7974747904416
4314,31.8374537720505
4314.25,31.8774327536595
4314.5,31.9174117352684
4314.75,31.9573907168773
4315,31.9973696984861
4315.25,32.0606916051546
4315.5,32.1256574502691
4315.75,32.1906232953835
4316,32.2555891404979
4316.25,32.3205549856123
4316.5,32.385520830727
4316.75,32.4504866758414
4317,32.5154525209558
4317.25,32.5804183660702
4317.5,32.6453842111849
4317.75,32.7103500562993
4318,32.7753159014137
4318.25,32.8402817465282
4318.5,32.9052475916428
4318.75,32.9702134367572
4319,33.0351792818717
4319.25,33.1001451269861
4319.5,33.1651109721005
4319.75,33.2300768172152
4320,33.2950426623296
4320.25,33.2676877267609
4320.5,33.2327061178532
4320.75,33.1977245089453
4321,33.1627429000375
4321.25,33.1277612911297
4321.5,33.092779682222
4321.75,33.0577980733141
4322,33.0228164644063
4322.25,32.9878348554985
4322.5,32.9528532465908
4322.75,32.917871637683
4323,32.8828900287751
4323.25,32.8479084198674
4323.5,32.8129268109596
4323.75,32.7779452020518
4324,32.7429635931439
4324.25,32.7079819842362
4324.5,32.6730003753284
4324.75,32.6380187664207
4325,32.6030371575128
4325.25,32.568055548605
4325.5,32.5330739396972
4325.75,32.4980923307895
4326,32.4631107218816
4326.25,32.4281291129738
4326.5,32.393147504066
4326.75,32.3581658951583
4327,32.3231842862505
4327.25,32.2882026773426
4327.5,32.2532210684348
4327.75,32.2182394595271
4328,32.1832578506193
4328.25,32.1482762417114
4328.5,32.1132946328037
4328.75,32.0783130238959
4329,32.0433314149881
4329.25,32.0083498060802
4329.5,31.9733681971725
4329.75,31.9383865882647
4330,31.9034049793569
4330.25,31.8368467408984
4330.5,31.7668835230826
4330.75,31.696920305267
4331,31.6269570874515
4331.25,31.556993869636
4331.5,31.4870306518202
4331.75,31.4170674340047
4332,31.3471042161891
4332.25,31.2771409983736
4332.5,31.2071777805578
4332.75,31.1372145627423
4333,31.0672513449268
4333.25,30.9972881271112
4333.5,30.9273249092957
4333.75,30.8573616914799
4334,30.7873984736644
4334.25,30.7174352558489
4334.5,30.6474720380333
4334.75,30.5775088202176
4335,30.507545602402
4335.25,30.4732495933942
4335.5,30.4432653571876
4335.75,30.4132811209808
4336,30.3832968847741
4336.25,30.3533126485675
4336.5,30.3233284123608
4336.75,30.2933441761542
4337,30.2633599399474
4337.25,30.2333757037407
4337.5,30.2033914675341
4337.75,30.1734072313274
4338,30.1434229951207
4338.25,30.113438758914
4338.5,30.0834545227074
4338.75,30.0534702865007
4339,30.0234860502939
4339.25,29.9935018140873
4339.5,29.9635175778806
4339.75,29.933533341674
4340,29.9035491054673
4340.25,29.9220292756162
4340.5,29.9470161391218
4340.75,29.9720030026273
4341,29.9969898661328
4341.25,30.0219767296385
4341.5,30.046963593144
4341.75,30.0719504566496
4342,30.0969373201551
4342.25,30.1219241836608
4342.5,30.1469110471663
4342.75,30.1718979106718
4343,30.1968847741774
4343.25,30.2218716376829
4343.5,30.2468585011886
4343.75,30.2718453646941
4344,30.2968322281997
4344.25,30.3218190917052
4344.5,30.3468059552109
4344.75,30.3717928187164
4345,30.3967796822219
4345.25,30.5610724383835
4345.5,30.7459752283252
4345.75,30.9308780182662
4346,31.1157808082073
4346.25,31.3006835981483
4346.5,31.4855863880894
4346.75,31.6704891780311
4347,31.8553919679721
4347.25,32.0402947579132
4347.5,32.2251975478542
4347.75,32.4101003377959
4348,32.595003127737
4348.25,32.779905917678
4348.5,32.964808707619
4348.75,33.1497114975608
4349,33.3346142875018
4349.25,33.5195170774429
4349.5,33.7044198673839
4349.75,33.8893226573249
4350,34.0742254472667
4350.25,34.1301053421744
4350.5,34.1650869510822
4350.75,34.20006855999
4351,34.2350501688979
4351.25,34.2700317778056
4351.5,34.3050133867134
4351.75,34.3399949956211
4352,34.374976604529
4352.25,34.4099582134368
4352.5,34.4449398223446
4352.75,34.4799214312523
4353,34.5149030401601
4353.25,34.549884649068
4353.5,34.5848662579758
4353.75,34.6198478668835
4354,34.6548294757913
4354.25,34.6898110846992
4354.5,34.7247926936069
4354.75,34.7597743025147
4355,34.7947559114225
4355.25,34.7362767421492
4355.5,34.6613161516326
4355.75,34.5863555611159
4356,34.5113949705993
4356.25,34.4364343800827
4356.5,34.3614737895658
4356.75,34.2865131990491
4357,34.2115526085325
4357.25,34.1365920180158
4357.5,34.0616314274989
4357.75,33.9866708369823
4358,33.9117102464656
4358.25,33.836749655949
4358.5,33.7617890654321
4358.75,33.6868284749155
4359,33.6118678843988
4359.25,33.5369072938822
4359.5,33.4619467033655
4359.75,33.3869861128486
4360,33.312025522332
4360.25,33.2832173151508
4360.5,33.2632278243463
4360.75,33.2432383335418
4361,33.2232488427374
4361.25,33.2032593519329
4361.5,33.1832698611285
4361.75,33.163280370324
4362,33.1432908795196
4362.25,33.1233013887151
4362.5,33.1033118979107
4362.75,33.0833224071062
4363,33.0633329163017
4363.25,33.0433434254973
4363.5,33.0233539346929
4363.75,33.0033644438884
4364,32.9833749530839
4364.25,32.9633854622795
4364.5,32.943395971475
4364.75,32.9234064806706
4365,32.9034169898661
4365.25,32.9
4365.5,32.9
4365.75,32.9
4366,32.9
4366.25,32.9
4366.5,32.9
4366.75,32.9
4367,32.9
4367.25,32.9
4367.5,32.9
4367.75,32.9
4368,32.9
4368.25,32.9
4368.5,32.9
4368.75,32.9
4369,32.9
4369.25,32.9
4369.5,32.9
4369.75,32.9
4370,32.9
4370.25,32.9368152133116
4370.5,32.9817915676217
4370.75,33.0267679219317
4371,33.0717442762417
4371.25,33.1167206305517
4371.5,33.1616969848618
4371.75,33.2066733391718
4372,33.2516496934818
4372.25,33.2966260477918
4372.5,33.3416024021018
4372.75,33.3865787564119
4373,33.4315551107219
4373.25,33.4765314650319
4373.5,33.5215078193419
4373.75,33.566484173652
4374,33.611460527962
4374.25,33.656436882272
4374.5,33.701413236582
4374.75,33.7463895908921
4375,33.7913659452021
4375.25,33.7475055673714
4375.5,33.682539722257
4375.75,33.6175738771426
4376,33.5526080320279
4376.25,33.4876421869135
4376.5,33.4226763417991
4376.75,33.3577104966847
4377,33.29274465157
4377.25,33.2277788064556
4377.5,33.1628129613412
4377.75,33.0978471162267
4378,33.0328812711121
4378.25,32.9679154259977
4378.5,32.9029495808833
4378.75,32.8379837357688
4379,32.7730178906544
4379.25,32.7080520455398
4379.5,32.6430862004253
4379.75,32.5781203553109
4380,32.5131545101965
4380.25,32.480072563493
4380.5,32.4550856999875
4380.75,32.4300988364819
4381,32.4051119729764
4381.25,32.3801251094707
4381.5,32.3551382459652
4381.75,32.3301513824596
4382,32.3051645189541
4382.25,32.2801776554485
4382.5,32.2551907919429
4382.75,32.2302039284374
4383,32.2052170649318
4383.25,32.1802302014263
4383.5,32.1552433379206
4383.75,32.1302564744151
4384,32.1052696109095
4384.25,32.080282747404
4384.5,32.0552958838984
4384.75,32.0303090203928
4385,32.0053221568873
4385.25,31.9410058801452
4385.5,31.8660452896283
4385.75,31.7910846991116
4386,31.716124108595
4386.25,31.6411635180783
4386.5,31.5662029275617
4386.75,31.4912423370448
4387,31.4162817465281
4387.25,31.3413211560115
4387.5,31.2663605654949
4387.75,31.191399974978
4388,31.1164393844613
4388.25,31.0414787939447
4388.5,30.966518203428
4388.75,30.8915576129111
4389,30.8165970223945
4389.25,30.7416364318779
4389.5,30.6666758413612
4389.75,30.5917152508446
4390,30.5167546603277
4390.25,30.5155215813837
4390.5,30.5355110721882
4390.75,30.5555005629926
4391,30.5754900537971
4391.25,30.5954795446015
4391.5,30.615469035406
4391.75,30.6354585262104
4392,30.6554480170149
4392.25,30.6754375078194
4392.5,30.6954269986238
4392.75,30.7154164894282
4393,30.7354059802327
4393.25,30.7553954710372
4393.5,30.7753849618416
4393.75,30.7953744526461
4394,30.8153639434505
4394.25,30.835353434255
4394.5,30.8553429250594
4394.75,30.8753324158639
4395,30.8953219066683
4395.25,30.9153113974728
4395.5,30.9353008882773
4395.75,30.9552903790817
4396,30.9752798698861
4396.25,30.9952693606906
4396.5,31.0152588514951
4396.75,31.0352483422995
4397,31.055237833104
4397.25,31.0752273239084
4397.5,31.0952168147129
4397.75,31.1152063055174
4398,31.1351957963218
4398.25,31.1551852871262
4398.5,31.1751747779307
4398.75,31.1951642687352
4399,31.2151537595396
4399.25,31.235143250344
4399.5,31.2551327411485
4399.75,31.275122231953
4400,31.2951117227574
4400.25,31.4170344051045
4400.5,31.5719529588388
4400.75,31.7268715125738
4401,31.8817900663082
4401.25,32.0367086200426
4401.5,32.191627173777
4401.75,32.3465457275119
4402,32.5014642812463
4402.25,32.6563828349807
4402.5,32.8113013887151
4402.75,32.9662199424495
4403,33.1211384961844
4403.25,33.2760570499188
4403.5,33.4309756036532
4403.75,33.5858941573876
4404,33.7408127111225
4404.25,33.8957312648569
4404.5,34.0506498185913
4404.75,34.2055683723257
4405,34.3604869260606
4405.25,34.5079599649695
4405.5,34.6528837733017
4405.75,34.7978075816339
4406,34.942731389966
4406.25,35.0876551982987
4406.5,35.2325790066309
4406.75,35.3775028149631
4407,35.5224266232952
4407.25,35.6673504316279
4407.5,35.8122742399601
4407.75,35.9571980482923
4408,36.1021218566245
4408.25,36.2470456649571
4408.5,36.3919694732893
4408.75,36.5368932816215
4409,36.6818170899537
4409.25,36.8267408982858
4409.5,36.9716647066185
4409.75,37.1165885149507
4410,37.2615123232829
4410.25,37.39542549731
4410.5,37.5253571875393
4410.75,37.6552888777682
4411,37.785220567997
4411.25,37.9151522582259
4411.5,38.0450839484552
4411.75,38.175015638684
4412,38.3049473289129
4412.25,38.4348790191417
4412.5,38.5648107093705
4412.75,38.6947423995999
4413,38.8246740898287
4413.25,38.9546057800575
4413.5,39.0845374702864
4413.75,39.2144691605157
4414,39.3444008507445
4414.25,39.4743325409734
4414.5,39.6042642312022
4414.75,39.7341959214315
4415,39.8641276116604
4415.25,39.7408227198798
4415.5,39.520938321031
4415.75,39.3010539221822
4416,39.0811695233326
4416.25,38.8612851244838
4416.5,38.641400725635
4416.75,38.4215163267861
4417,38.2016319279365
4417.25,37.9817475290877
4417.5,37.7618631302389
4417.75,37.5419787313901
4418,37.3220943325405
4418.25,37.1022099336917
4418.5,36.8823255348429
4418.75,36.6624411359941
4419,36.4425567371453
4419.25,36.2226723382957
4419.5,36.0027879394469
4419.75,35.7829035405981
4420,35.5630191417492
4420.25,35.4251324909294
4420.5,35.3201876642061
4420.75,35.2152428374828
4421,35.1102980107595
4421.25,35.0053531840358
4421.5,34.9004083573125
4421.75,34.7954635305892
4422,34.6905187038659
4422.25,34.5855738771426
4422.5,34.480629050419
4422.75,34.3756842236957
4423,34.2707393969724
4423.25,34.1657945702491
4423.5,34.0608497435254
4423.75,33.9559049168021
4424,33.8509600900788
4424.25,33.7460152633555
4424.5,33.6410704366318
4424.75,33.5361256099085
4425,33.4311807831852
4425.25,33.4351257350181
4425.5,33.4850994620292
4425.75,33.5350731890405
4426,33.5850469160516
4426.25,33.6350206430627
4426.5,33.6849943700738
4426.75,33.734968097085
4427,33.7849418240961
4427.25,33.8349155511072
4427.5,33.8848892781183
4427.75,33.9348630051296
4428,33.9848367321407
4428.25,34.0348104591518
4428.5,34.0847841861629
4428.75,34.134757913174
4429,34.1847316401852
4429.25,34.2347053671963
4429.5,34.2846790942074
4429.75,34.3346528212185
4430,34.3846265482298
4430.25,34.4207601651445
4430.5,34.4507444013512
4430.75,34.4807286375578
4431,34.5107128737646
4431.25,34.5406971099713
4431.5,34.5706813461779
4431.75,34.6006655823846
4432,34.6306498185912
4432.25,34.660634054798
4432.5,34.6906182910046
4432.75,34.7206025272113
4433,34.750586763418
4433.25,34.7805709996247
4433.5,34.8105552358314
4433.75,34.840539472038
4434,34.8705237082447
4434.25,34.9005079444515
4434.5,34.9304921806581
4434.75,34.9604764168648
4435,34.9904606530714
4435.25,35.1635591142246
4435.5,35.4034330038787
4435.75,35.643306893532
4436,35.8831807831852
4436.25,36.1230546728385
4436.5,36.3629285624926
4436.75,36.6028024521458
4437,36.8426763417991
4437.25,37.0825502314523
4437.5,37.3224241211065
4437.75,37.5622980107597
4438,37.8021719004129
4438.25,38.0420457900662
4438.5,38.2819196797203
4438.75,38.5217935693736
4439,38.7616674590268
4439.25,39.00154134868
4439.5,39.2414152383333
4439.75,39.4812891279874
4440,39.7211630176406
4440.25,39.5718643813337
4440.5,39.2320430376582
4440.75,38.8922216939816
4441,38.5524003503061
4441.25,38.2125790066307
4441.5,37.8727576629553
4441.75,37.5329363192786
4442,37.1931149756032
4442.25,36.8532936319277
4442.5,36.5134722882523
4442.75,36.1736509445769
4443,35.8338296009002
4443.25,35.4940082572248
4443.5,35.1541869135493
4443.75,34.8143655698739
4444,34.4745442261972
4444.25,34.1347228825218
4444.5,33.7949015388464
4444.75,33.455080195171
4445,33.1152588514943
4445.25,32.9570689353183
4445.5,32.8921030902039
4445.75,32.8271372450895
4446,32.7621713999751
4446.25,32.6972055548604
4446.5,32.632239709746
4446.75,32.5672738646316
4447,32.5023080195171
4447.25,32.4373421744025
4447.5,32.3723763292881
4447.75,32.3074104841736
4448,32.2424446390592
4448.25,32.1774787939446
4448.5,32.1125129488301
4448.75,32.0475471037157
4449,31.9825812586013
4449.25,31.9176154134869
4449.5,31.8526495683722
4449.75,31.7876837232578
4450,31.7227178781434
4450.25,31.5765059427
4450.5,31.3866057800572
4450.75,31.196705617415
4451,31.0068054547729
4451.25,30.8169052921307
4451.5,30.6270051294879
4451.75,30.4371049668457
4452,30.2472048042036
4452.25,30.0573046415614
4452.5,29.8674044789193
4452.75,29.6775043162764
4453,29.4876041536343
4453.25,29.2977039909921
4453.5,29.10780382835
4453.75,28.9179036657071
4454,28.728003503065
4454.25,28.5381033404228
4454.5,28.3482031777807
4454.75,28.1583030151378
4455,27.9684028524957
4455.25,27.9671432503441
4455.5,28.0720880770674
4455.75,28.1770329037907
4456,28.2819777305144
4456.25,28.3869225572377
4456.5,28.491867383961
4456.75,28.5968122106843
4457,28.7017570374079
4457.25,28.8067018641312
4457.5,28.9116466908545
4457.75,29.0165915175778
4458,29.1215363443015
4458.25,29.2264811710248
4458.5,29.3314259977481
4458.75,29.4363708244714
4459,29.5413156511947
4459.25,29.6462604779184
4459.5,29.7512053046416
4459.75,29.8561501313649
4460,29.9610949580882
4460.25,30.0125790066308
4460.5,30.0325684974353
4460.75,30.0525579882397
4461,30.0725474790442
4461.25,30.0925369698487
4461.5,30.1125264606531
4461.75,30.1325159514575
4462,30.152505442262
4462.25,30.1724949330664
4462.5,30.1924844238709
4462.75,30.2124739146754
4463,30.2324634054798
4463.25,30.2524528962842
4463.5,30.2724423870887
4463.75,30.2924318778932
4464,30.3124213686976
4464.25,30.3324108595021
4464.5,30.3524003503066
4464.75,30.372389841111
4465,30.3923793319154
4465.25,30.4803973476792
4465.5,30.610329037908
4465.75,30.7402607281373
4466,30.8701924183662
4466.25,31.000124108595
4466.5,31.1300557988239
4466.75,31.2599874890532
4467,31.389919179282
4467.25,31.5198508695108
4467.5,31.6497825597397
4467.75,31.779714249969
4468,31.9096459401978
4468.25,32.0395776304267
4468.5,32.1695093206555
4468.75,32.2994410108844
4469,32.4293727011137
4469.25,32.5593043913425
4469.5,32.6892360815714
4469.75,32.8191677718002
4470,32.9490994620295
4470.25,33
4470.5,33
4470.75,33
4471,33
4471.25,33
4471.5,33
4471.75,33
4472,33
4472.25,33
4472.5,33
4472.75,33
4473,33
4473.25,33
4473.5,33
4473.75,33
4474,33
4474.25,33
4474.5,33
4474.75,33
4475,33
4475.25,33.011948454898
4475.5,33.0319379457025
4475.75,33.051927436507
4476,33.0719169273114
4476.25,33.0919064181158
4476.5,33.1118959089203
4476.75,33.1318853997248
4477,33.1518748905292
4477.25,33.1718643813337
4477.5,33.1918538721382
4477.75,33.2118433629426
4478,33.231832853747
4478.25,33.2518223445515
4478.5,33.2718118353559
4478.75,33.2918013261604
4479,33.3117908169649
4479.25,33.3317803077693
4479.5,33.3517697985737
4479.75,33.3717592893782
4480,33.3917487801827
4480.25,33.4322802452146
4480.5,33.4872513449268
4480.75,33.5422224446392
4481,33.5971935443514
4481.25,33.6521646440636
4481.5,33.7071357437758
4481.75,33.762106843488
4482,33.8170779432004
4482.25,33.8720490429126
4482.5,33.9270201426248
4482.75,33.981991242337
4483,34.0369623420494
4483.25,34.0919334417616
4483.5,34.1469045414738
4483.75,34.201875641186
4484,34.2568467408984
4484.25,34.3118178406106
4484.5,34.3667889403228
4484.75,34.421760040035
4485,34.4767311397472
4485.25,34.5778145877645
4485.5,34.7127436506944
4485.75,34.8476727136244
4486,34.9826017765543
4486.25,35.1175308394848
4486.5,35.2524599024147
4486.75,35.3873889653447
4487,35.5223180282746
4487.25,35.6572470912051
4487.5,35.792176154135
4487.75,35.927105217065
4488,36.0620342799949
4488.25,36.1969633429249
4488.5,36.3318924058553
4488.75,36.4668214687853
4489,36.6017505317152
4489.25,36.7366795946452
4489.5,36.8716086575756
4489.75,37.0065377205056
4490,37.1414667834355
4490.25,37.2028294757913
4490.5,37.2078268484924
4490.75,37.2128242211936
4491,37.2178215938947
4491.25,37.2228189665958
4491.5,37.2278163392969
4491.75,37.232813711998
4492,37.2378110846991
4492.25,37.2428084574002
4492.5,37.2478058301013
4492.75,37.2528032028025
4493,37.2578005755036
4493.25,37.2627979482047
4493.5,37.2677953209058
4493.75,37.2727926936069
4494,37.277790066308
4494.25,37.2827874390091
4494.5,37.2877848117102
4494.75,37.2927821844114
4495,37.2977795571125
4495.25,37.3111077192544
4495.5,37.3310972100588
4495.75,37.3510867008632
4496,37.3710761916677
4496.25,37.3910656824722
4496.5,37.4110551732766
4496.75,37.4310446640811
4497,37.4510341548856
4497.25,37.47102364569
4497.5,37.4910131364944
4497.75,37.5110026272989
4498,37.5309921181034
4498.25,37.5509816089078
4498.5,37.5709710997123
4498.75,37.5909605905167
4499,37.6109500813211
4499.25,37.6309395721256
4499.5,37.6509290629301
4499.75,37.6709185537345
4500,37.690908044539
4500.25,37.8498411109726
4500.5,38.1246966095337
4500.75,38.3995521080947
4501,38.6744076066557
4501.25,38.9492631052177
4501.5,39.2241186037787
4501.75,39.4989741023397
4502,39.7738296009007
4502.25,40.0486850994617
4502.5,40.3235405980237
4502.75,40.5983960965848
4503,40.8732515951458
4503.25,41.1481070937068
4503.5,41.4229625922688
4503.75,41.6978180908298
4504,41.9726735893908
4504.25,42.2475290879518
4504.5,42.5223845865138
4504.75,42.7972400850748
4505,43.0720955836358
4505.25,43.4297780557987
4505.5,43.8595521080941
4505.75,44.2893261603911
4506,44.7191002126865
4506.25,45.1488742649819
4506.5,45.5786483172773
4506.75,46.0084223695742
4507,46.4381964218696
4507.25,46.867970474165
4507.5,47.2977445264604
4507.75,47.7275185787574
4508,48.1572926310528
4508.25,48.5870666833482
4508.5,49.0168407356436
4508.75,49.446614787939
4509,49.8763888402359
4509.25,50.3061628925313
4509.5,50.7359369448267
4509.75,51.1657109971221
4510,51.5954850494191
4510.25,51.8419086700864
4510.5,51.9218666333042
4510.75,52.0018245965219
4511,52.0817825597399
4511.25,52.1617405229577
4511.5,52.2416984861754
4511.75,52.3216564493932
4512,52.4016144126109
4512.25,52.481572375829
4512.5,52.5615303390467
4512.75,52.6414883022645
4513,52.7214462654822
4513.25,52.8014042287003
4513.5,52.881362191918
4513.75,52.9613201551358
4514,53.0412781183535
4514.25,53.1212360815716
4514.5,53.2011940447893
4514.75,53.281152008007
4515,53.3611099712248
4515.25,53.1612926310527
4515.5,52.6965369698479
4515.75,52.2317813086447
4516,51.7670256474415
4516.25,51.3022699862384
4516.5,50.8375143250335
4516.75,50.3727586638304
4517,49.9080030026272
4517.25,49.443247341424
4517.5,48.9784916802192
4517.75,48.513736019016
4518,48.0489803578129
4518.25,47.5842246966097
4518.5,47.1194690354065
4518.75,46.6547133742017
4519,46.1899577129985
4519.25,45.7252020517954
4519.5,45.2604463905922
4519.75,44.7956907293873
4520,44.3309350681842
4520.25,44.0673154009758
4520.5,44.0023495558614
4520.75,43.9373837107468
4521,43.8724178656323
4521.25,43.8074520205179
4521.5,43.7424861754035
4521.75,43.6775203302891
4522,43.6125544851744
4522.25,43.54758864006
4522.5,43.4826227949456
4522.75,43.4176569498312
4523,43.3526911047165
4523.25,43.2877252596021
4523.5,43.2227594144877
4523.75,43.1577935693732
4524,43.0928277242586
4524.25,43.0278618791442
4524.5,42.9628960340297
4524.75,42.8979301889153
4525,42.8329643438009
4525.25,42.6079909921175
4525.5,42.218195921431
4525.75,41.8284008507444
4526,41.4386057800579
4526.25,41.04881070937
4526.5,40.6590156386834
4526.75,40.2692205679969
4527,39.8794254973104
4527.25,39.4896304266225
4527.5,39.0998353559359
4527.75,38.7100402852494
4528,38.3202452145629
4528.25,37.9304501438764
4528.5,37.5406550731884
4528.75,37.1508600025019
4529,36.7610649318154
4529.25,36.3712698611289
4529.5,35.9814747904409
4529.75,35.5916797197544
4530,35.2018846490679
4530.25,34.8747263855876
4530.5,34.6148630051289
4530.75,34.3549996246713
4531,34.0951362442136
4531.25,33.8352728637559
4531.5,33.5754094832982
4531.75,33.3155461028396
4532,33.0556827223819
4532.25,32.7958193419242
4532.5,32.5359559614665
4532.75,32.2760925810079
4533,32.0162292005502
4533.25,31.7563658200925
4533.5,31.4965024396349
4533.75,31.2366390591762
4534,30.9767756787186
4534.25,30.7169122982609
4534.5,30.4570489178032
4534.75,30.1971855373455
4535,29.9373221568869
4535.25,29.8259221819092
4535.5,29.8808932816214
4535.75,29.9358643813336
4536,29.990835481046
4536.25,30.0458065807582
4536.5,30.1007776804704
4536.75,30.1557487801826
4537,30.210719879895
4537.25,30.2656909796072
4537.5,30.3206620793194
4537.75,30.3756331790316
4538,30.4306042787438
4538.25,30.4855753784562
4538.5,30.5405464781684
4538.75,30.5955175778806
4539,30.6504886775928
4539.25,30.7054597773052
4539.5,30.7604308770174
4539.75,30.8154019767296
4540,30.8703730764418
4540.25,31.0428489928694
4540.5,31.3526861003382
4540.75,31.662523207807
4541,31.9723603152757
4541.25,32.2821974227445
4541.5,32.5920345302144
4541.75,32.9018716376832
4542,33.211708745152
4542.25,33.5215458526207
4542.5,33.8313829600906
4542.75,34.1412200675594
4543,34.4510571750282
4543.25,34.760894282497
4543.5,35.0707313899669
4543.75,35.3805684974356
4544,35.6904056049044
4544.25,36.0002427123732
4544.5,36.310079819842
4544.75,36.6199169273119
4545,36.9297540347806
4545.25,37.2170764418866
4545.5,37.4769398223443
4545.75,37.7368032028029
4546,37.9966665832606
4546.25,38.2565299637183
4546.5,38.516393344176
4546.75,38.7762567246346
4547,39.0361201050923
4547.25,39.2959834855499
4547.5,39.5558468660076
4547.75,39.8157102464653
4548,40.0755736269239
4548.25,40.3354370073816
4548.5,40.5953003878393
4548.75,40.855163768297
4549,41.1150271487556
4549.25,41.3748905292133
4549.5,41.634753909671
4549.75,41.8946172901287
4550,42.1544806705873
4550.25,42.2010484173649
4550.5,41.976166645815
4550.75,41.7512848742651
4551,41.5264031027144
4551.25,41.3015213311644
4551.5,41.0766395596145
4551.75,40.8517577880646
4552,40.6268760165147
4552.25,40.401994244964
4552.5,40.177112473414
4552.75,39.9522307018641
4553,39.7273489303142
4553.25,39.5024671587635
4553.5,39.2775853872135
4553.75,39.0527036156636
4554,38.8278218441137
4554.25,38.602940072563
4554.5,38.3780583010131
4554.75,38.1531765294631
4555,37.9282947579132
4555.25,37.7484869260604
4555.5,37.6285499812334
4555.75,37.5086130364068
4556,37.3886760915801
4556.25,37.2687391467535
4556.5,37.1488022019264
4556.75,37.0288652570998
4557,36.9089283122732
4557.25,36.7889913674466
4557.5,36.6690544226195
4557.75,36.5491174777929
4558,36.4291805329663
4558.25,36.3092435881397
4558.5,36.189306643313
4558.75,36.069369698486
4559,35.9494327536593
4559.25,35.8294958088327
4559.5,35.7095588640061
4559.75,35.589621919179
4560,35.4696849743524
4560.25,35.3581233579382
4560.5,35.258175903916
4560.75,35.1582284498934
4561,35.0582809958712
4561.25,34.9583335418491
4561.5,34.8583860878269
4561.75,34.7584386338047
4562,34.6584911797821
4562.25,34.55854372576
4562.5,34.4585962717378
4562.75,34.3586488177156
4563,34.258701363693
4563.25,34.1587539096709
4563.5,34.0588064556487
4563.75,33.9588590016265
4564,33.8589115476039
4564.25,33.7589640935817
4564.5,33.6590166395596
4564.75,33.5590691855374
4565,33.4591217315152
4565.25,33.4040825722507
4565.5,33.414077317653
4565.75,33.4240720630552
4566,33.4340668084574
4566.25,33.4440615538596
4566.5,33.4540562992619
4566.75,33.4640510446641
4567,33.4740457900663
4567.25,33.4840405354686
4567.5,33.4940352808708
4567.75,33.504030026273
4568,33.5140247716752
4568.25,33.5240195170774
4568.5,33.5340142624797
4568.75,33.5440090078819
4569,33.5540037532841
4569.25,33.5639984986863
4569.5,33.5739932440886
4569.75,33.5839879894908
4570,33.593982734893
4570.25,33.5602251970475
4570.5,33.4602777430249
4570.75,33.3603302890027
4571,33.2603828349806
4571.25,33.1604353809584
4571.5,33.0604879269362
4571.75,32.9605404729136
4572,32.8605930188915
4572.25,32.7606455648693
4572.5,32.6606981108471
4572.75,32.5607506568245
4573,32.4608032028023
4573.25,32.3608557487802
4573.5,32.260908294758
4573.75,32.1609608407354
4574,32.0610133867132
4574.25,31.9610659326911
4574.5,31.8611184786689
4574.75,31.7611710246467
4575,31.6612235706241
4575.25,31.6271067183786
4575.5,31.6970699361942
4575.75,31.7670331540097
4576,31.8369963718255
4576.25,31.906959589641
4576.5,31.9769228074565
4576.75,32.0468860252721
4577,32.1168492430879
4577.25,32.1868124609034
4577.5,32.2567756787189
4577.75,32.3267388965344
4578,32.39670211435
4578.25,32.4666653321658
4578.5,32.5366285499813
4578.75,32.6065917677968
4579,32.6765549856123
4579.25,32.7465182034281
4579.5,32.8164814212437
4579.75,32.8864446390592
4580,32.9564078568747
4580.25,32.9698616289251
4580.5,32.8899036657074
4580.75,32.8099457024896
4581,32.7299877392719
4581.25,32.6500297760541
4581.5,32.5700718128361
4581.75,32.4901138496184
4582,32.4101558864006
4582.25,32.3301979231829
4582.5,32.2502399599648
4582.75,32.1702819967471
4583,32.0903240335293
4583.25,32.0103660703116
4583.5,31.9304081070935
4583.75,31.8504501438758
4584,31.770492180658
4584.25,31.6905342174403
4584.5,31.6105762542225
4584.75,31.5306182910045
4585,31.4506603277868
4585.25,31.4109866132866
4585.5,31.4409708494933
4585.75,31.4709550857
4586,31.5009393219067
4586.25,31.5309235581134
4586.5,31.56090779432
4586.75,31.5908920305268
4587,31.6208762667334
4587.25,31.6508605029401
4587.5,31.6808447391467
4587.75,31.7108289753534
4588,31.7408132115602
4588.25,31.7707974477668
4588.5,31.8007816839735
4588.75,31.8307659201801
4589,31.8607501563869
4589.25,31.8907343925936
4589.5,31.9207186288002
4589.75,31.9507028650069
4590,31.9806871012136
4590.25,32
4590.5,32
4590.75,32
4591,32
4591.25,32
4591.5,32
4591.75,32
4592,32
4592.25,32
4592.5,32
4592.75,32
4593,32
4593.25,32
4593.5,32
4593.75,32
4594,32
4594.25,32
4594.5,32
4594.75,32
4595,32
4595.25,31.9896439384462
4595.5,31.9596597022394
4595.75,31.9296754660327
4596,31.8996912298261
4596.25,31.8697069936194
4596.5,31.8397227574127
4596.75,31.809738521206
4597,31.7797542849994
4597.25,31.7497700487927
4597.5,31.7197858125861
4597.75,31.6898015763793
4598,31.6598173401726
4598.25,31.629833103966
4598.5,31.5998488677593
4598.75,31.5698646315526
4599,31.5398803953459
4599.25,31.5098961591392
4599.5,31.4799119229326
4599.75,31.4499276867258
4600,31.4199434505192
4600.25,31.4267754285
4600.5,31.5067333917177
4600.75,31.5866913549355
4601,31.6666493181535
