2094,909.806529074119
2094.25,911.379730455023
2094.5,912.475946954765
2094.75,912.844409797261
2095,912.440742355271
2095.25,911.229041944069
2095.5,909.310412565388
2095.75,907.613467358571
2096,907.375942643091
2096.25,909.829797418979
2096.5,915.157390190955
2096.75,921.327114118528
2097,926.026658516471
2097.25,927.084431016137
2097.5,924.572586915061
2097.75,920.364042993839
2098,916.382491480879
2098.25,914.25062290052
2098.5,913.83968513335
2098.75,914.389116971303
2099,915.13913623485
2099.25,915.627113207156
2099.5,916.031181385233
2099.75,916.612830911448
2100,917.618236338051
2100.25,919.0146974012
2100.5,920.526182418137
2100.75,921.868494243393
2101,922.82076136178
2101.25,923.521540718782
2101.5,924.236040931606
2101.75,925.228903044869
2102,926.606948494336
2102.25,928.121186490961
2102.5,929.473904475642
2102.75,930.375482731498
2103,930.72570527476
2103.25,930.615593604266
2103.5,930.14462882166
2103.75,929.415100695269
2104,928.551709853389
2104.25,927.68988693627
2104.5,926.965123952492
2104.75,926.474770560217
2105,926.187269730981
2105.25,926.043859631688
2105.5,925.986903616421
2105.75,926.019497590708
2106,926.235169221372
2106.25,926.734807919202
2106.5,927.594188235878
2106.75,928.572231235148
2107,929.210959547847
2107.25,929.048176556448
2107.5,927.827322355696
2107.75,926.287595648013
2108,925.469186371525
2108.25,926.407645038063
2108.5,929.35945417374
2108.75,932.939451673366
2109,935.554583586034
2109.25,935.684237851139
2109.5,933.351604485162
2109.75,930.058609774538
2110,927.366601170169
2110.25,926.614373184327
2110.5,927.342714454142
2110.75,928.222429919566
2111,927.918772438937
2111.25,925.674818939195
2111.5,922.639521683259
2111.75,920.354220289671
2112,920.335113880388
2112.25,922.779707044631
2112.5,925.943746155115
2112.75,927.927345562917
2113,927.032918807614
2113.25,923.86452636254
2113.5,920.487722551075
2113.75,918.991388166603
2114,920.861827462105
2114.25,924.872715111774
2114.5,929.034741722332
2114.75,931.371161504792
2115,931.013252538798
2115.25,929.049957431166
2115.5,926.770207249644
2115.75,925.410636416002
2116,925.289258303007
2116.25,925.940134215006
2116.5,926.87217496421
2116.75,927.629561560287
2117,927.974415856913
2117.25,927.752014068941
2117.5,926.808296705777
2117.75,925.217159109088
2118,923.640603430478
2118.25,922.834195003795
2118.5,923.525290561009
2118.75,925.568956678849
2119,927.802109659964
2119.25,929.004066377611
2119.5,928.161255311207
2119.75,926.069875735213
2120,924.460998466654
2120.25,925.073488086069
2120.5,928.918918056081
2120.75,934.372369545788
2121,939.211687509157
2121.25,941.241729901541
2121.5,939.893512642342
2121.75,937.121693650684
2122,935.098380719846
2122.25,935.87630346248
2122.5,939.481905166638
2122.75,944.249118395975
2123,948.459931332439
2123.25,950.625256027249
2123.5,950.799135740095
2123.75,949.673046305707
2124,947.940475720034
2124.25,946.296717993959
2124.5,945.443611852206
2124.75,946.084478061735
2125,948.916920831231
2125.25,953.880777785859
2125.5,959.407248846142
2125.75,963.748931553915
2126,965.214779707095
2126.25,963.7822883898
2126.5,961.335027647941
2126.75,959.86069448696
2127,961.214600189196
2127.25,965.182631483017
2127.5,969.911093130918
2127.75,973.501336232443
2128,974.326749110924
2128.25,973.135757639566
2128.5,971.902783243172
2128.75,972.612472535298
2129,976.755549070793
2129.25,982.736097327076
2129.5,987.768184963718
2129.75,989.063358159061
2130,984.80317598113
2130.25,977.529499149573
2130.5,971.008824447372
2130.75,969.007712624188
2131,974.100578455011
2131.25,984.166593413699
2131.5,995.929172170734
2131.75,1006.11320720329
2132,1012.424358605
2132.25,1015.24520554464
2132.5,1015.41083731779
2132.75,1013.75629208978
2133,1011.06326378211
2133.25,1007.95915635709
2133.5,1005.04364126374
2133.75,1002.91637141774
2134,1002.0337219831
2134.25,1002.36335189354
2134.5,1003.76880972397
2134.75,1006.11363748875
2135,1009.15616886189
2135.25,1012.28284623062
2135.5,1014.7979807154
2135.75,1016.00588458009
2136,1015.44258610687
2136.25,1013.52406516383
2136.5,1010.87514926682
2136.75,1008.12066593167
2137,1005.88669932888
2137.25,1004.80511633704
2137.5,1005.50944612929
2137.75,1008.633218026
2138,1014.51809088757
2138.25,1022.02645749621
2138.5,1029.55318829235
2138.75,1035.49297239541
2139,1038.55730527983
2139.25,1039.24943452961
2139.5,1038.70183623133
2139.75,1038.04767317937
2140,1038.28467568649
2140.25,1039.19754940324
2140.5,1039.93159512078
2140.75,1039.62637045407
2141,1037.47825559872
2141.25,1033.57033981509
2141.5,1028.68745238689
2141.75,1023.63361547121
2142,1019.20411681391
2142.25,1015.91335876874
2142.5,1013.94158134316
2142.75,1013.44953388403
2143,1014.59679462349
2143.25,1017.48022472481
2143.5,1022.10358306609
2143.75,1028.46308145889
2144,1036.54788876303
2144.25,1045.77279912661
2144.5,1054.56194566205
2144.75,1061.241325318
2145,1064.1392240799
2145.25,1062.48186168542
2145.5,1057.75419618876
2145.75,1051.79074936543
2146,1046.42604299095
2146.25,1043.20762902336
2146.5,1042.13862105583
2146.75,1042.70483868648
2147,1044.39172887934
2147.25,1046.64896283822
2147.5,1048.57881585781
2147.75,1049.08818446689
2148,1047.08178692117
2148.25,1041.55787200958
2148.5,1033.32808426201
2148.75,1024.84755280152
2149,1018.63085191264
2149.25,1017.15961977429
2149.5,1021.24651543889
2149.75,1029.2799659031
2150,1039.45778169093
2150.25,1049.98160677974
2150.5,1059.37581507215
2150.75,1066.72717887578
2151,1071.17892320955
2151.25,1071.87473021114
2151.5,1068.53611798393
2151.75,1062.59258348719
2152,1055.78767906332
2152.25,1049.86495705474
2152.5,1046.33408713254
2152.75,1045.05092104916
2153,1045.15832581078
2153.25,1045.79636838971
2153.5,1046.14525644182
2153.75,1045.94531123064
2154,1045.34820781184
2154.25,1044.51511841565
2154.5,1043.61026278107
2154.75,1042.89566083508
2155,1042.74956653043
2155.25,1043.55700259178
2155.5,1045.70078905413
2155.75,1049.31702159181
2156,1054.07291766377
2156.25,1059.58323342991
2156.5,1065.46270391538
2156.75,1071.27026453699
2157,1076.38795094734
2157.25,1080.1628246891
2157.5,1081.9419473049
2157.75,1081.21710031212
2158,1078.48995993726
2158.25,1074.69249956276
2158.5,1070.75828699369
2158.75,1067.60091277445
2159,1065.65221833798
2159.25,1064.84958780052
2159.5,1065.10788583644
2159.75,1066.34089388433
2160,1068.26908532884
2160.25,1070.19824811572
2160.5,1071.3805477427
2160.75,1071.06814970754
2161,1068.80567632543
2161.25,1065.49684372556
2161.5,1062.43987178838
2161.75,1060.93302280539
2162,1062.14243919205
2162.25,1065.69530396318
2162.5,1070.22446537918
2162.75,1074.34613383949
2163,1076.702900061
2163.25,1076.84042729434
2163.5,1075.41119797159
2163.75,1073.13535360303
2164,1070.73284065231
2164.25,1068.75918391455
2164.5,1067.30657867019
2164.75,1066.38619642996
2165,1066.0092087046
2165.25,1066.14813017218
2165.5,1066.51919671728
2165.75,1066.73435930926
2166,1066.40526551182
2166.25,1065.16745964185
2166.5,1063.05984350658
2166.75,1060.45704862219
2167,1057.74393474639
2167.25,1055.30470994281
2167.5,1053.47563050919
2167.75,1052.51303549355
2168,1052.66569149336
2168.25,1054.18227340739
2168.5,1057.10336566734
2168.75,1060.81827599206
2169,1064.58924232977
2169.25,1067.67850262867
2169.5,1069.4616125257
2169.75,1069.99378073584
2170,1069.58245433177
2170.25,1068.53549646778
2170.5,1067.14919592493
2170.75,1065.54273887043
2171,1063.69694668389
2171.25,1061.58896221264
2171.5,1059.20048294796
2171.75,1056.809274284
2172,1055.16561366996
2172.25,1055.06205775563
2172.5,1057.2908908899
2172.75,1062.02917030487
2173,1067.52916696895
2173.25,1071.66775737952
2173.5,1072.32181803394
2173.75,1067.92679371749
2174,1060.39391935047
2174.25,1052.96922599114
2174.5,1048.90150392962
2174.75,1051.22453522388
2175,1059.2860795112
2175.25,1069.33567833923
2175.5,1077.52653918285
2175.75,1080.07087129023
2176,1075.93049708112
2176.25,1067.92779915574
2176.5,1059.17440349244
2176.75,1052.78183018885
2177,1050.91287191286
2177.25,1052.46828121488
2177.5,1055.64825783175
2177.75,1058.65300150027
2178,1059.90586013563
2178.25,1059.2893110387
2178.5,1057.27220275575
2178.75,1054.32497453076
2179,1050.9294459295
2179.25,1047.7359536008
2179.5,1045.52366152547
2179.75,1045.07499614521
2180,1047.14958050503
2180.25,1051.56966265595
2180.5,1056.90951860397
2180.75,1061.65690221879
2181,1064.30319769998
2181.25,1064.04755922933
2181.5,1061.63892024892
2181.75,1058.03143505413
2182,1054.17925794039
2182.25,1050.951951599
2182.5,1048.82673691128
2182.75,1048.16716999769
2183,1049.33679520865
2183.25,1052.58436932508
2183.5,1057.10712920355
2183.75,1061.53782677257
2184,1064.50381474835
2184.25,1064.69954866124
2184.5,1062.13714787782
2184.75,1058.03200917322
2185,1053.64369569316
2185.25,1050.22830970087
2185.5,1048.71037816534
2185.75,1049.41272184642
2186,1052.59458382415
2186.25,1058.51508380543
2186.5,1067.00808556198
2186.75,1076.53073570541
2187,1085.26208779792
2187.25,1091.38119540177
2187.5,1093.38754458258
2187.75,1091.87396902632
2188,1088.27384644055
2188.25,1084.02282404213
2188.5,1080.52460976236
2188.75,1078.33739846076
2189,1077.10724023122
2189.25,1076.43489550111
2189.5,1075.92146618011
2189.75,1075.34118946375
2190,1074.9224748408
2190.25,1074.96730205099
2190.5,1075.77765083405
2190.75,1077.56160949219
2191,1079.91407580621
2191.25,1082.18380230639
2191.5,1083.7188779894
2191.75,1083.90632096782
2192,1082.89680973802
2192.25,1081.53797220122
2192.5,1080.7029882206
2192.75,1081.26306744111
2193,1083.66669684629
2193.25,1087.41672793163
2193.5,1091.88767543395
2193.75,1096.45405409007
2194,1100.511341704
2194.25,1103.57739744512
2194.5,1105.21436516768
2194.75,1104.98444968456
2195,1102.47831263934
2195.25,1097.9824476882
2195.5,1092.50294384149
2195.75,1087.07910128863
2196,1082.75012763226
2196.25,1080.23982831715
2196.5,1079.25183090192
2196.75,1079.28387571099
2197,1079.83370306878
2197.25,1080.46975423783
2197.5,1081.39852560522
2197.75,1083.16491893213
2198,1086.3169412308
2198.25,1091.37786061294
2198.5,1098.01008856629
2198.75,1104.81284084749
2199,1110.31956029891
2199.25,1113.06381454375
2199.5,1112.17112702602
2199.75,1108.72705449398
2200,1104.22228046155
2200.25,1100.14748844267
2200.5,1097.90931488909
2200.75,1097.71138519905
2201,1098.85838985547
2201.25,1100.63341062183
2201.5,1102.32019231396
2201.75,1103.31904024745
2202,1103.27941804375
2202.25,1101.88287448119
2202.5,1098.81095833805
2202.75,1093.92330162155
2203,1088.36500819566
2203.25,1083.84554632227
2203.5,1082.07680328227
2203.75,1084.7241171641
2204,1091.79757764258
2204.25,1101.24231068966
2204.5,1110.87369155007
2204.75,1118.50738522337
2205,1122.59246423578
2205.25,1123.55391684373
2205.5,1122.20094553311
2205.75,1119.34275278977
2206,1115.76714901232
2206.25,1111.95594870793
2206.5,1108.16241618043
2206.75,1104.63432744108
2207,1101.61928916672
2207.25,1099.27328892647
2207.5,1097.50957001145
2207.75,1096.20162903302
2208,1095.22296260253
2208.25,1094.45025409795
2208.5,1093.78970109687
2208.75,1093.16348573053
2209,1092.49394764888
2209.25,1091.70929723665
2209.5,1091.0478318008
2209.75,1091.2056935251
2210,1092.91586087679
2210.25,1096.91131232312
2210.5,1103.48204698151
2210.75,1111.05676388617
2211,1117.57537559951
2211.25,1120.97779262983
2211.5,1119.36405384421
2211.75,1113.27213879799
2212,1105.13844585341
2212.25,1097.44947659525
2212.5,1092.69070940554
2212.75,1092.34218130604
2213,1094.99644301306
2213.25,1098.73090353784
2213.5,1101.62297189162
2213.75,1101.97480922331
2214,1100.11345502722
2214.25,1097.43840233277
2214.5,1095.35893823127
2214.75,1095.26892589967
2215,1097.62604156199
2215.25,1101.43065521342
2215.5,1105.55704778731
2215.75,1108.87950021697
2216,1110.52934695121
2216.25,1110.82645341872
2216.5,1110.43395565933
2216.75,1110.01502316881
2217,1110.20320543759
2217.25,1110.99879518493
2217.5,1111.7944017314
2217.75,1111.95813179141
2218,1110.85821377633
2218.25,1108.20985721452
2218.5,1104.83519832892
2218.75,1101.77662916182
2219,1100.07654175549
2219.25,1100.67666130931
2219.5,1103.18732981365
2219.75,1106.27666285191
2220,1108.59286858394
2220.25,1108.78904671446
2220.5,1106.23199451627
2220.75,1101.745511591
2221,1096.33113588784
2221.25,1090.99040535598
2221.5,1086.69215936131
2221.75,1084.16039580771
2222,1084.00811771744
2222.25,1086.84777706039
2222.5,1093.25074994429
2222.75,1102.48495896413
2223,1112.27760454808
2223.25,1120.26694111239
2223.5,1124.09157781291
2223.75,1122.39531584676
2224,1117.02709136685
2224.25,1110.47327201002
2224.5,1105.22022541308
2224.75,1103.61354763093
2225,1105.71648086054
2225.25,1109.74070685355
2225.5,1113.84447797323
2225.75,1116.18797774131
2226,1115.61336696715
2226.25,1112.64695138208
2226.5,1108.07044292014
2226.75,1102.66555351536
2227,1097.21976919906
2227.25,1092.58016366434
2227.5,1089.62895416636
2227.75,1089.24881179943
2228,1092.31027453393
2228.25,1098.71513046088
2228.5,1106.70586262626
2228.75,1114.36204386542
2229,1119.76324701365
2229.25,1121.46647661121
2229.5,1120.37068859817
2229.75,1118.09177650952
2230,1116.24581780845
2230.25,1116.40583270361
2230.5,1118.89106430588
2230.75,1122.6003791453
2231,1126.35610393442
2231.25,1128.98056538586
2231.5,1129.57233218923
2231.75,1128.37462167994
2232,1125.92708720428
2232.25,1122.76938257396
2232.5,1119.43269490509
2232.75,1116.22557305902
2233,1113.21722462921
2233.25,1110.46504442942
2233.5,1108.0264272734
2233.75,1106.04222786292
2234,1104.9990576325
2234.25,1105.47305208192
2234.5,1108.04034684915
2234.75,1113.20104964278
2235,1120.09496735678
2235.25,1126.68770464647
2235.5,1130.9063106608
2235.75,1130.67914687719
2236,1125.08776286176
2236.25,1116.48041205689
2236.5,1107.77978259826
2236.75,1101.90856262155
2237,1101.58011255826
2237.25,1106.27952936583
2237.5,1112.95670010464
2237.75,1118.49333749732
2238,1119.77728364056
2238.25,1115.20930017902
2238.5,1106.67707878143
2238.75,1096.55787901251
2239,1087.22896043687
2239.25,1080.89853646767
2239.5,1078.08043614016
2239.75,1078.3115322971
2240,1081.11692091088
2240.25,1086.01318925935
2240.5,1092.11519499015
2240.75,1097.97071728435
2241,1102.08472004424
2241.25,1102.9621855442
2241.5,1099.69469413608
2241.75,1093.5021980453
2242,1086.08721677836
2242.25,1079.1522698417
2242.5,1074.30233050954
2242.75,1071.79544032313
2243,1070.90752362553
2243.25,1070.8922111966
2243.5,1071.00739866321
2243.75,1070.80963608737
2244,1070.34481049993
2244.25,1069.7041496585
2244.5,1068.97888190015
2244.75,1068.28706582346
2245,1067.84525138968
2245.25,1067.89258285398
2245.5,1068.66820447155
2245.75,1070.33615790381
2246,1072.41262174513
2246.25,1074.08263987984
2246.5,1074.52859169737
2246.75,1072.97323007029
2247,1069.67791447725
2247.25,1066.00767772966
2247.5,1063.38095453156
2247.75,1063.21313844607
2248,1066.08394665918
2248.25,1070.60473596239
2248.5,1075.1036541597
2248.75,1077.90884905512
2249,1077.70567988798
2249.25,1074.94983280499
2249.5,1070.64441566096
2249.75,1065.79269740078
2250,1061.37913041876
2250.25,1058.12453928284
2250.5,1056.55560061288
2250.75,1057.1944794016
2251,1060.54166564879
2251.25,1066.02174546492
2251.5,1071.50937879925
2251.75,1074.75876795238
2252,1073.52600158545
2252.25,1066.93848208855
2252.5,1057.91360320333
2252.75,1050.01802059525
2253,1046.81838992974
2253.25,1051.14456920851
2253.5,1060.85942964536
2253.75,1071.77395232126
2254,1079.69263900955
2254.25,1080.73088809205
2254.5,1074.97778155206
2254.75,1065.2677935073
2255,1054.49005826396
2255.25,1045.51448392153
2255.5,1039.90889493893
2255.75,1037.13251744855
2256,1036.45220347184
2256.25,1037.13500264654
2256.5,1038.59122405678
2256.75,1040.62696344954
2257,1043.11609148154
2257.25,1045.93247880948
2257.5,1048.85440172395
2257.75,1051.25047872916
2258,1052.37961416756
2258.25,1051.50071114034
2258.5,1048.04882264004
2258.75,1042.79023266431
2259,1037.09957772428
2259.25,1032.35462355214
2259.5,1029.85627063085
2259.75,1029.70413198905
2260,1031.04618492886
2260.25,1033.00432287789
2260.5,1034.71544413878
2260.75,1035.72538679362
2261,1036.02788508008
2261.25,1035.63948961433
2261.5,1034.57743491317
2261.75,1032.90124913185
2262,1030.73675027985
2262.25,1028.21554546394
2262.5,1025.46982485986
2262.75,1022.77424085606
2263,1020.7310960461
2263.25,1019.98858565202
2263.5,1021.19474631151
2263.75,1024.67083015187
2264,1029.72406319622
2264.25,1035.46556839735
2264.5,1041.00646870821
2264.75,1045.55110434835
2265,1048.67528084958
2265.25,1050.04732045356
2265.5,1049.33554540191
2265.75,1046.40145642307
2266,1042.37494331954
2266.25,1038.89753125093
2266.5,1037.61216306986
2266.75,1039.98720759561
2267,1045.26293044146
2267.25,1051.14177599439
2267.5,1055.2956485758
2267.75,1055.48571158245
2268,1051.63248612422
2268.25,1045.87666970272
2268.5,1040.4603855725
2268.75,1037.6142925555
2269,1038.37213782662
2269.25,1041.53899212852
2269.5,1045.67676113587
2269.75,1049.34793834059
2270,1051.66880262609
2270.25,1053.33793933938
2270.5,1055.33471384936
2270.75,1058.63849152494
2271,1063.91770580796
2271.25,1070.24600454605
2271.5,1076.18712569752
2271.75,1080.30458071174
2272,1081.29155728662
2272.25,1079.27047352794
2272.5,1075.24998348074
2272.75,1070.25198163083
2273,1065.29149523844
2273.25,1061.03506733458
2273.5,1057.64277001864
2273.75,1055.23481971198
2274,1053.93138652961
2274.25,1053.76941475067
2274.5,1054.53085649169
2274.75,1055.94899425244
2275,1057.75711053269
2275.25,1059.73607024246
2275.5,1061.94582217724
2275.75,1064.54774789996
2276,1067.70337318278
2276.25,1071.52618172652
2276.5,1075.51715858185
2276.75,1078.75487233609
2277,1080.30951886568
2277.25,1079.27167085833
2277.5,1075.71202140507
2277.75,1071.09534437068
2278,1066.99281751957
2278.25,1064.97556419407
2278.5,1065.96200271888
2278.75,1068.59336635615
2279,1071.01457720416
2279.25,1071.37055736117
2279.5,1068.11629657416
2279.75,1062.1065222251
2280,1055.31535550461
2280.25,1049.72320795596
2280.5,1047.23945250695
2280.75,1048.15286770603
2281,1051.13898892719
2281.25,1054.8037831796
2281.5,1057.76426195777
2281.75,1059.42808671803
2282,1060.50829769441
2282.25,1061.84010927854
2282.5,1064.25856077527
2282.75,1068.19450961026
2283,1072.81192737868
2283.25,1077.02722548008
2283.5,1079.75681531401
2283.75,1080.0936986254
2284,1078.33290786768
2284.25,1075.27038058743
2284.5,1071.70371058549
2284.75,1068.41141916969
2285,1065.7452244373
2285.25,1063.63653022359
2285.5,1061.99896575603
2285.75,1060.74512796094
2286,1059.62677596376
2286.25,1058.06182221646
2286.5,1055.42664475313
2286.75,1051.09762160786
2287,1044.93677381801
2287.25,1038.85688021734
2287.5,1035.31194497311
2287.75,1036.75597527505
2288,1045.16283855237
2288.25,1058.69567179047
2288.5,1073.70135059745
2288.75,1086.51558931171
2289,1093.67595860053
2289.25,1094.44995904535
2289.5,1090.06730216113
2289.75,1081.80074459963
2290,1070.92576216265
2290.25,1059.00001192922
2290.5,1048.10564738368
2290.75,1040.3819227717
2291,1037.96809233891
2291.25,1042.1594772118
2291.5,1050.5583398774
2291.75,1059.75702852703
2292,1066.34786656016
2292.25,1067.42873488625
2292.5,1063.6241590399
2292.75,1057.0608196302
2293,1049.87095441154
2293.25,1044.13010284065
2293.5,1040.87214342455
2293.75,1040.21707695362
2294,1042.25389986796
2294.25,1047.05754187555
2294.5,1054.01074661008
2294.75,1061.50259950951
2295,1067.84534337869
2295.25,1071.35482649803
2295.5,1071.31742107764
2295.75,1069.29611586202
2296,1067.17995441539
2296.25,1066.85798030199
2296.5,1069.66405713623
2296.75,1073.91292522135
2297,1076.89797391485
2297.25,1075.91178507311
2297.5,1068.54278630623
2297.75,1056.31607587729
2298,1043.55462930146
2298.25,1034.64115115253
2298.5,1033.90088485896
2298.75,1042.23514671298
2299,1055.25177253056
2299.25,1068.10483156113
2299.5,1075.95965450918
2299.75,1076.29975170992
2300,1071.74719764602
2300.25,1065.61417033501
2300.5,1061.21284779445
2300.75,1061.21743984234
2301,1064.8762707448
2301.25,1070.29263378907
2301.5,1075.56901399185
2301.75,1078.93989442575
2302,1080.22124911881
2302.25,1080.27214565534
2302.5,1079.97008906893
2302.75,1080.1800560112
2303,1081.10013086429
2303.25,1081.94073840152
2303.5,1081.83250377967
2303.75,1079.90606360229
2304,1075.73530246507
2304.25,1070.51243047891
2304.5,1065.79889201626
2304.75,1063.15613144957
2305,1063.96805130505
2305.25,1067.85136848485
2305.5,1073.40939783523
2305.75,1079.23344223053
2306,1083.9453669322
2306.25,1087.02844469374
2306.5,1088.92584167454
2306.75,1090.13105599327
2307,1091.13730310494
2307.25,1092.25537897398
2307.5,1093.30013469671
2307.75,1094.00293740872
2308,1094.09515424561
2308.25,1093.3405405015
2308.5,1091.76967233776
2308.75,1089.54437166622
2309,1086.82737463613
2309.25,1083.78310103624
2309.5,1080.6451994371
2309.75,1077.7394974136
2310,1075.39821450283
2310.25,1073.95355465988
2310.5,1073.5987538662
2310.75,1074.04934801542
2311,1074.91830819881
2311.25,1075.81860550767
2311.5,1076.435213676
2311.75,1077.07008813817
2312,1078.33879570066
2312.25,1080.85937600799
2312.5,1085.21778969897
2312.75,1091.05864921174
2313,1096.95598801631
2313.25,1101.42578026816
2313.5,1102.98491240671
2313.75,1100.90936661863
2314,1096.61065464188
2314.25,1091.87307828931
2314.5,1088.48093937383
2314.75,1088.00784838932
2315,1089.90318420052
2315.25,1092.38591176106
2315.5,1093.65995353327
2315.75,1091.95842240959
2316,1087.02267785213
2316.25,1080.80182263121
2316.5,1075.42044754495
2316.75,1073.0031433915
2317,1075.07884521625
2317.25,1080.66808963201
2317.5,1088.13122750607
2317.75,1095.82860654416
2318,1102.22149509304
2318.25,1106.84693236688
2318.5,1109.89237605407
2318.75,1111.55432248371
2319,1112.02998955299
2319.25,1111.57291321581
2319.5,1110.53237057838
2319.75,1109.2669477623
2320,1108.13523088917
2320.25,1107.38456525755
2320.5,1106.56245504052
2320.75,1104.94491967404
2321,1101.80738088747
2321.25,1096.46290790038
2321.5,1089.53637148741
2321.75,1083.27378759416
2322,1080.02155913486
2322.25,1082.12607733242
2322.5,1090.90808612543
2322.75,1103.85937912666
2323,1117.57841611914
2323.25,1128.66365688598
2323.5,1134.02488889735
2323.75,1133.84213239433
2324,1130.25055229796
2324.25,1125.41160506732
2324.5,1121.4844609996
2324.75,1119.90427752522
2325,1120.35359205352
2325.25,1122.25495844213
2325.5,1125.0309305487
2325.75,1128.10663009743
2326,1130.93531525369
2326.25,1132.98761422149
2326.5,1133.7344114961
2326.75,1132.64798257344
2327,1129.59161253142
2327.25,1125.35370836524
2327.5,1120.85645415154
2327.75,1117.02203396694
2328,1114.70195081336
2328.25,1113.86514355922
2328.5,1113.88083802843
2328.75,1114.10681005323
2329,1113.90264117275
2329.25,1113.10695589059
2329.5,1112.67882753588
2329.75,1113.73727398253
2330,1117.40131310448
2330.25,1124.57237245851
2330.5,1134.10722525768
2330.75,1143.74232521128
2331,1151.2026497858
2331.25,1154.22483413237
2331.5,1151.93811937828
2331.75,1146.16678085146
2332,1139.04339859177
2332.25,1132.70055263907
2332.5,1129.11457645645
2332.75,1128.22222708797
2333,1128.53002554273
2333.25,1128.51494670755
2333.5,1126.65474875989
2333.75,1122.20250309452
2334,1116.63981406947
2334.25,1111.84623212305
2334.5,1109.7013076936
2334.75,1111.9210198391
2335,1117.80650215472
2335.25,1124.81650252547
2335.5,1130.36332340505
2335.75,1131.86327860514
2336,1128.16368001078
2336.25,1121.65209763583
2336.5,1115.25406633391
2336.75,1111.89512095864
2337,1114.24956851676
2337.25,1121.71399641265
2337.5,1131.38735648794
2337.75,1140.32117816019
2338,1145.57230706064
2338.25,1145.52677038843
2338.5,1141.64219079384
2338.75,1135.80874102216
2339,1129.91659381867
2339.25,1125.74324257876
2339.5,1123.42949331841
2339.75,1121.88098918655
2340,1119.97299859821
2340.25,1116.58121811645
2340.5,1111.22455586608
2340.75,1105.35807867617
2341,1100.79968444163
2341.25,1099.36727105738
2341.5,1102.71298526542
2341.75,1110.26102371621
2342,1119.84097001362
2342.25,1129.24778232906
2342.5,1136.28294869479
2342.75,1139.74599383287
2343,1140.49809748638
2343.25,1139.65548003456
2343.5,1138.33436185663
2343.75,1137.56645266846
2344,1137.47231816193
2344.25,1137.61686122339
2344.5,1137.55706743865
2344.75,1136.85014307843
2345,1135.18175208928
2345.25,1132.58163961637
2345.5,1129.13655525163
2345.75,1124.93324858699
2346,1120.07586915948
2346.25,1114.94198935146
2346.5,1110.12655350437
2346.75,1106.23051045835
2347,1103.85474158208
2347.25,1103.49936375253
2347.5,1105.36136183834
2347.75,1109.58095029065
2348,1116.29834356056
2348.25,1125.53936647583
2348.5,1136.06156255984
2348.75,1145.8325149717
2349,1152.80785526267
2349.25,1154.94946840464
2349.5,1151.48222232074
2349.75,1144.41866059405
2350,1136.14388017255
2350.25,1129.04297800417
2350.5,1125.35875056545
2350.75,1125.06267475587
2351,1126.30211903244
2351.25,1127.17294381753
2351.5,1125.77129104165
2351.75,1120.99348922747
2352,1114.28796812273
2352.25,1107.6108459136
2352.5,1102.91824078625
2352.75,1102.05457591684
2353,1104.99220302819
2353.25,1110.15221876819
2353.5,1115.90889964534
2353.75,1120.63833823736
2354,1123.35883077069
2354.25,1124.67498234467
2354.5,1125.43203151854
2354.75,1126.47521685153
2355,1128.57105254172
2355.25,1131.62620258382
2355.5,1135.0177752861
2355.75,1138.11511859297
2356,1140.28861296556
2356.25,1141.21228769441
2356.5,1141.28494292244
2356.75,1141.01121939125
2357,1140.89575784247
2357.25,1141.40420913905
2357.5,1142.45443589592
2357.75,1143.56011647818
2358,1144.22549490357
2358.25,1143.95483504694
2358.5,1142.41562656662
2358.75,1139.83399890895
2359,1136.55549503675
2359.25,1132.92565791283
2359.5,1129.29395859553
2359.75,1126.11119331418
2360,1123.93598643752
2360.25,1123.33219260132
2360.5,1124.86366644132
2360.75,1128.82623685175
2361,1134.27806266547
2361.25,1139.92029421878
2361.5,1144.454047928
2361.75,1146.62009565809
2362,1146.31379904689
2362.25,1144.73845468603
2362.5,1143.16783324007
2362.75,1142.87570537357
2363,1144.86301395658
2363.25,1148.50401817823
2363.5,1152.57260267697
2363.75,1155.84169917199
2364,1157.09312029273
2364.25,1155.81683389714
2364.5,1152.71523603171
2364.75,1148.60969258398
2365,1144.32156944149
2365.25,1140.6347154146
2365.5,1137.89947097884
2365.75,1136.18773650579
2366,1135.56682721167
2366.25,1136.10396982761
2366.5,1137.73644791256
2366.75,1140.01130815447
2367,1142.40264488755
2367.25,1144.38455244604
2367.5,1145.45134068274
2367.75,1145.46513033764
2368,1144.6088224577
2368.25,1143.07607226693
2368.5,1141.0605349893
2368.75,1138.77452800396
2369,1136.51145497243
2369.25,1134.58673695512
2369.5,1133.31579543735
2369.75,1133.00101231011
2370,1133.46233972004
2370.25,1133.90684433514
2370.5,1133.50199265378
2370.75,1131.41525117434
2371,1127.07273633101
2371.25,1121.40399134974
2371.5,1115.88036330249
2371.75,1111.97392263686
2372,1111.13670875679
2372.25,1113.76972987912
2372.5,1118.7261681563
2372.75,1124.7351251977
2373,1130.52570261264
2373.25,1135.00436724545
2373.5,1138.0121667068
2373.75,1139.69686858743
2374,1140.20642117884
2374.25,1139.68774101151
2374.5,1138.24373261199
2374.75,1135.91776143901
2375,1132.74896661995
2375.25,1128.77648728217
2375.5,1124.10902184025
2375.75,1119.33054062562
2376,1115.223738547
2376.25,1112.57197932077
2376.5,1112.14951564884
2376.75,1114.0929167391
2377,1117.49411511528
2377.25,1121.34827312155
2377.5,1124.65055310206
2377.75,1126.58966032215
2378,1127.5209975448
2378.25,1128.2350036127
2378.5,1129.52285853363
2378.75,1132.16144290807
2379,1136.23581257264
2379.25,1140.84466367203
2379.5,1145.01115297881
2379.75,1147.7584372655
2380,1148.27917020638
2380.25,1146.86677856367
2380.5,1144.25431051473
2380.75,1141.17596523691
2381,1138.36382893164
2381.25,1136.29129604675
2381.5,1134.92770969928
2381.75,1134.18427210258
2382,1133.97218546999
2382.25,1134.18983172321
2382.5,1134.59987805993
2382.75,1134.88337035151
2383,1134.7202375755
2383.25,1133.79137391314
2383.5,1132.16082455337
2383.75,1130.85841077411
2384,1131.063751942
2384.25,1133.95646742372
2384.5,1140.5782204641
2384.75,1150.06826807788
2385,1160.17998098791
2385.25,1168.63533840974
2385.5,1173.15665066286
2385.75,1172.37232573875
2386,1167.79180449733
2386.25,1161.49584738745
2386.5,1155.565214858
2386.75,1152.046296994
2387,1151.52278917917
2387.25,1152.60166071173
2387.5,1153.74977237731
2387.75,1153.43398496152
2388,1150.33376700192
2388.25,1144.84346530275
2388.5,1138.18605139648
2388.75,1131.58987835581
2389,1126.2822318448
2389.25,1123.09480949927
2389.5,1121.87399652306
2389.75,1122.31533549504
2390,1124.11436899407
2390.25,1126.96289136933
2390.5,1130.50690625462
2390.75,1134.36178663891
2391,1138.14234380366
2391.25,1141.46362299129
2391.5,1144.03963646366
2391.75,1145.83654681056
2392,1146.8600884705
2392.25,1147.11599588198
2392.5,1146.62040887768
2392.75,1145.552043567
2393,1144.21838282494
2393.25,1142.93043759008
2393.5,1141.99921880077
2393.75,1141.59954856004
2394,1141.36345546842
2394.25,1140.78775844557
2394.5,1139.36927641109
2394.75,1136.62619897428
2395,1132.76497258991
2395.25,1128.81142467042
2395.5,1125.83922839792
2395.75,1124.92205695455
2396,1126.87004248256
2396.25,1130.98374796498
2396.5,1136.02718723791
2396.75,1140.76372971067
2397,1143.97426680752
2397.25,1145.20257499172
2397.5,1145.0334954298
2397.75,1144.12671841146
2398,1143.1419342264
2398.25,1142.64570443237
2398.5,1142.53658724112
2398.75,1142.42149387162
2399,1141.90611808183
2399.25,1140.59809657297
2399.5,1138.37249642046
2399.75,1135.64214316734
2400,1132.88429060634
2400.25,1130.57619253018
2400.5,1129.17462160371
2400.75,1128.90399231054
2401,1129.84148961656
2401.25,1132.06196226295
2401.5,1135.63966977416
2401.75,1140.40096400457
2402,1145.54113849016
2402.25,1150.15654692796
2402.5,1153.34354301504
2402.75,1154.26615321484
2403,1153.048838552
2403.25,1150.52960816013
2403.5,1147.56339599293
2403.75,1145.00513600406
2404,1143.51869345119
2404.25,1142.99794242115
2404.5,1143.14281943872
2404.75,1143.65326102575
2405,1144.23093583137
2405.25,1144.63835860023
2405.5,1144.71352300658
2405.75,1144.29912409202
2406,1143.23785689811
2406.25,1141.399440401
2406.5,1138.82865593237
2406.75,1135.64004036154
2407,1131.9483107901
2407.25,1127.87033872093
2407.5,1123.73932878916
2407.75,1120.28667414422
2408,1118.28659415334
2408.25,1118.5133081838
2408.5,1121.60206876586
2408.75,1126.99324113918
2409,1133.51810117311
2409.25,1140.00307162455
2409.5,1145.27880778245
2409.75,1148.57131893974
2410,1149.8185030843
2410.25,1149.03274708892
2410.5,1146.22643782634
2410.75,1141.46960554177
2411,1135.42379225024
2411.25,1129.09787962591
2411.5,1123.50517624775
2411.75,1119.65846138447
2412,1118.15872935027
2412.25,1118.45857744622
2412.5,1119.81197613334
2412.75,1121.47289587264
2413,1122.72817373465
2413.25,1123.28338444727
2413.5,1123.13275007373
2413.75,1122.27620701575
2414,1120.71406316465
2414.25,1118.60190963078
2414.5,1116.49018477053
2414.75,1114.99115879984
2415,1114.71710193464
2415.25,1116.20368056374
2415.5,1119.10629159476
2415.75,1122.51724565656
2416,1125.51968321864
2416.25,1127.19852143905
2416.5,1126.9718526193
2416.75,1124.98082930421
2417,1121.46136846322
2417.25,1116.64938706573
2417.5,1110.81850668191
2417.75,1104.62897870573
2418,1098.96795965696
2418.25,1094.72549314229
2418.5,1092.7881430337
2418.75,1093.58583218902
2419,1096.64179948722
2419.25,1101.37229122899
2419.5,1107.193553715
2419.75,1113.53401833129
2420,1119.89437925179
2420.25,1125.80186791223
2420.5,1130.78375640335
2420.75,1134.37413859128
2421,1136.32119171347
2421.25,1136.62478311571
2421.5,1135.2991850705
2421.75,1132.35866985035
2422,1127.91208759769
2422.25,1122.57046372663
2422.5,1117.11085063143
2422.75,1112.31040608634
2423,1108.93381836972
2423.25,1107.19189118398
2423.5,1106.53314897867
2423.75,1106.35063067678
2424,1106.03737520132
2424.25,1105.12109026687
2424.5,1103.7782776756
2424.75,1102.38057318643
2425,1101.29965117593
2425.25,1100.9042141397
2425.5,1101.4989531804
2425.75,1103.32687109154
2426,1106.62846360148
2426.25,1111.64390524913
2426.5,1118.28626987443
2426.75,1125.52523216699
2427,1132.16140385059
2427.25,1136.99539664896
2427.5,1138.94031945279
2427.75,1138.21910021368
2428,1135.90068087891
2428.25,1133.06814724764
2428.5,1130.80416270069
2428.75,1129.80143306166
2429,1129.6412251803
2429.25,1129.7080978946
2429.5,1129.38661004253
2429.75,1128.10286156541
2430,1125.92903375589
2430.25,1123.44750048278
2430.5,1121.2545230194
2430.75,1119.94630835756
2431,1119.95545249659
2431.25,1121.19029803141
2431.5,1123.45439889645
2431.75,1126.55130902612
2432,1130.28159392976
2432.25,1134.40009199531
2432.5,1138.62591621052
2432.75,1142.67722976368
2433,1146.2722293061
2433.25,1149.2048005246
2433.5,1151.50565113345
2433.75,1153.25168127685
2434,1154.51979109899
2434.25,1155.38514231533
2434.5,1155.882619328
2434.75,1156.00666551883
2435,1155.74995309936
2435.25,1155.10515428114
2435.5,1154.04746991584
2435.75,1152.45116167459
2436,1150.15432230988
2436.25,1146.99499832873
2436.5,1142.81500938026
2436.75,1137.87641204332
2437,1133.23858876551
2437.25,1130.04995436173
2437.5,1129.45892364684
2437.75,1132.45471715911
2438,1138.27866886903
2438.25,1145.09138946286
2438.5,1151.03747393913
2438.75,1154.2640910562
2439,1153.84913414875
2439.25,1151.17867043903
2439.5,1147.99044574845
2439.75,1146.02220589842
2440,1146.91564812132
2440.25,1150.52103725433
2440.5,1155.10247138385
2440.75,1158.86924382101
2441,1160.03064787697
2441.25,1157.3143704867
2441.5,1151.76770504285
2441.75,1145.0864816486
2442,1138.96656067085
2442.25,1135.08824891622
2442.5,1134.12293271891
2442.75,1135.13301334959
2443,1137.03706882951
2443.25,1138.75367717988
2443.5,1139.37292175916
2443.75,1139.34272345325
2444,1139.75681519663
2444.25,1141.71286466183
2444.5,1146.30160269467
2444.75,1153.49422707811
2445,1160.91778508582
2445.25,1165.90467197621
2445.5,1165.78728300763
2445.75,1158.20780904782
2446,1144.74064535765
2446.25,1129.66356689047
2446.5,1117.30751121354
2446.75,1112.00341589419
2447,1116.58755097583
2447.25,1127.67657031956
2447.5,1140.269579343
2447.75,1149.36567991212
2448,1150.19193998688
2448.25,1142.37279130931
2448.5,1129.50587111166
2448.75,1115.33167736734
2449,1103.59070804964
2449.25,1097.2920329268
2449.5,1095.88630895891
2449.75,1097.74363238423
2450,1101.23385249162
2450.25,1104.75859668192
2450.5,1107.3773087338
2450.75,1108.76904118428
2451,1108.63697458037
2451.25,1106.6845383548
2451.5,1102.86391980124
2451.75,1097.84315813099
2452,1092.41827752459
2452.25,1087.38530216261
2452.5,1083.46090694506
2452.75,1080.49194408028
2453,1077.78810254761
2453.25,1074.65113814194
2453.5,1070.39420360796
2453.75,1064.98701508782
2454,1059.40159304199
2454.25,1054.69440606566
2454.5,1051.92186488952
2454.75,1051.63611108605
2455,1052.6579925442
2455.25,1053.4370999107
2455.5,1052.42302383229
2455.75,1048.43945562204
2456,1042.72207392664
2456.25,1037.46349470505
2456.5,1034.85874504187
2456.75,1036.88965982515
2457,1042.75305352779
2457.25,1049.69173316904
2457.5,1054.9080867694
2457.75,1055.70236541671
2458,1051.67762105971
2458.25,1044.76894298088
2458.5,1037.01513111641
2458.75,1030.44602168245
2459,1026.20414903754
2459.25,1023.80585224444
2459.5,1022.59350222462
2459.75,1021.90978582767
2460,1021.25678528344
2460.25,1020.55439361294
2460.5,1019.79012822128
2460.75,1018.95152002844
2461,1018.12016571278
2461.25,1017.69661396562
2461.5,1018.14895055611
2461.75,1019.94526125341
2462,1023.31410530211
2462.25,1027.46450521904
2462.5,1031.33426963923
2462.75,1033.86120493226
2463,1034.24860085743
2463.25,1033.13866573807
2463.5,1031.65883252788
2463.75,1030.93690666242
2464,1031.90666005266
2464.25,1033.88623453844
2464.5,1035.39192647675
2464.75,1034.93425121214
2465,1031.19458549049
2465.25,1025.05091126983
2465.5,1018.90510185298
2465.75,1015.18968480963
2466,1016.22027073892
2466.25,1021.66602894019
2466.5,1028.57316667827
2466.75,1033.87567021747
2467,1034.59875823841
2467.25,1030.54920894026
2467.5,1024.75797569727
2467.75,1020.43637296342
2468,1020.76726112722
2468.25,1026.7927081986
2468.5,1035.9598703107
2468.75,1045.37190056621
2469,1052.1398402531
2469.25,1054.6371020709
2469.5,1053.87484077527
2469.75,1051.19495655999
2470,1047.93934770042
2470.25,1045.17749864809
2470.5,1042.95125763163
2470.75,1041.06019563112
2471,1039.30388362661
2471.25,1037.51837034891
2471.5,1035.78664852676
2471.75,1034.29411139298
2472,1033.22648210448
2472.25,1032.75441489951
2472.5,1032.8764910223
2472.75,1033.48173284792
2473,1034.45740108284
2473.25,1035.68295546281
2473.5,1036.88788487411
2473.75,1037.66644622056
2474,1037.60805310139
2474.25,1036.31705411682
2474.5,1033.97953236223
2474.75,1031.53792266194
2475,1029.98527434719
2475.25,1030.30788741219
2475.5,1032.6890013163
2475.75,1035.75945918551
2476,1037.97275370554
2476.25,1037.78376870459
2476.5,1034.52393758427
2476.75,1029.89968948888
2477,1026.01579385851
2477.25,1024.97702013331
2477.5,1028.12392772077
2477.75,1033.54886738048
2478,1038.48133805698
2478.25,1040.15083196184
2478.5,1036.40278348187
2478.75,1028.62681136052
2479,1019.47766350326
2479.25,1011.61165874483
2479.5,1007.41538433436
2479.75,1006.67559478898
2480,1007.72542960074
2480.25,1008.88212361216
2480.5,1008.58443768765
2480.75,1006.61832256471
2481,1003.60873764487
2481.25,1000.19333173524
2481.5,996.970731796323
2481.75,994.046282252322
2482,991.187180126688
2482.25,988.154021127102
2482.5,984.740999463032
2482.75,981.16071093374
2483,977.909512870028
2483.25,975.489153758864
2483.5,974.316282852848
2483.75,973.928863440267
2484,973.34641105494
2484.25,971.581737653553
2484.5,967.845851469979
2484.75,962.814650867704
2485,957.82063977845
2485.25,954.199420133261
2485.5,952.992097762066
2485.75,953.722676376031
2486,955.428026596387
2486.25,957.144962724903
2486.5,958.136586282208
2486.75,958.338304701037
2487,957.809809819068
2487.25,956.611220240718
2487.5,954.84456793637
2487.75,952.688519064727
2488,950.329913735647
2488.25,947.95669123666
2488.5,945.790188189348
2488.75,944.090387144529
2489,943.11942656572
2489.25,943.111701076337
2489.5,943.956376350718
2489.75,945.308610926772
2490,946.819123686067
2490.25,948.155511324497
2490.5,949.08358105991
2490.75,949.404569358704
2491,948.919913436317
2491.25,947.71808926823
2491.5,946.770549955026
2491.75,947.217980005547
2492,950.18638846461
2492.25,955.591386058676
2492.5,961.253257793572
2492.75,964.783742795123
2493,963.905160874113
2493.25,958.928637801952
2493.5,952.779610043196
2493.75,948.49919584757
2494,948.86122741036
2494.25,953.162831531205
2494.5,958.269185598033
2494.75,960.995534737649
2495,958.809624606083
2495.25,953.370387660405
2495.5,947.993883777908
2495.75,946.000264990781
2496,949.582741749356
2496.25,956.431216252145
2496.5,963.110877051607
2496.75,966.197437057749
2497,964.094579044342
2497.25,959.102242315828
2497.5,954.020428389734
2497.75,951.617027581859
2498,952.973292651821
2498.25,956.6855922187
2498.5,961.150981644244
2498.75,964.824480898294
2499,967.252559552029
2499.25,968.95365672366
2499.5,970.480179394536
2499.75,972.286026987881
2500,973.78080981718
2500.25,973.745396199183
2500.5,970.952023260895
2500.75,964.530735732157
2501,956.185194806465
2501.25,948.745428889478
2501.5,945.046223166569
2501.75,947.086393528692
2502,952.718336721549
2502.25,958.511266864244
2502.5,961.037624151114
2502.75,958.523341501193
2503,953.462997136617
2503.25,949.030753818454
2503.5,948.373631596465
2503.75,952.614117586581
2504,959.484945841426
2504.25,966.395714056591
2504.5,970.842239307855
2504.75,972.190861790298
2505,971.617988919479
2505.25,970.374152219885
2505.5,969.605705099591
2505.75,969.105705188276
2506,967.721464129743
2506.25,964.280920384563
2506.5,957.931181431915
2506.75,950.536499512802
2507,945.334804042026
2507.25,945.574641628168
2507.5,953.462434213882
2507.75,965.647890869562
2508,976.936106910179
2508.25,982.133858154897
2508.5,978.356604316392
2508.75,969.177942268294
2509,959.292077952228
2509.25,953.383925610836
2509.5,953.973603734853
2509.75,958.651841412584
2510,964.326699745659
2510.25,967.949117979712
2510.5,968.39066009251
2510.75,967.175451579343
2511,966.02168409271
2511.25,966.56955986916
2511.5,968.737526994801
2511.75,970.761355458449
2512,970.806642334781
2512.25,967.241883276697
2512.5,960.99147443249
2512.75,954.727523085461
2513,951.156040820758
2513.25,952.531339585242
2513.5,957.3652650347
2513.75,962.319968190106
2514,964.044475375953
2514.25,960.206161447371
2514.5,953.053393991631
2514.75,946.122113520722
2515,942.946981602768
2515.25,945.494031680923
2515.5,951.134868148984
2515.75,956.4043201824
2516,957.87745277745
2516.25,954.550215945482
2516.5,949.174809669515
2516.75,944.827005907507
2517,944.453273695248
2517.25,948.03969885421
2517.5,952.619511048087
2517.75,955.098142432733
2518,952.765635431635
2518.25,946.554061595929
2518.5,939.40335823078
2518.75,934.274450771211
2519,933.465952562841
2519.25,935.748745162445
2519.5,938.723846702575
2519.75,939.995000351649
2520,938.306040170945
2520.25,935.176566310213
2520.5,932.540576369174
2520.75,932.283687499225
2521,934.507948050007
2521.25,937.053212951705
2521.5,937.613532832307
2521.75,934.234693239869
2522,928.844142984475
2522.25,925.77860525028
2522.5,929.410896608617
2522.75,942.467182408502
2523,959.620100079106
2523.25,973.083993596531
2523.5,975.098941578621
2523.75,962.654440350666
2524,942.953341633448
2524.25,924.52292497433
2524.5,915.816117536034
2524.75,919.939441701085
2525,931.158900825707
2525.25,942.91142622273
2525.5,949.037252258221
2525.75,948.525669702435
2526,943.920626954098
2526.25,937.836705993295
2526.5,932.61397903832
2526.75,928.899073111874
2527,926.693475439663
2527.25,925.997278585803
2527.5,926.677726222115
2527.75,928.217890398315
2528,930.031804888162
2528.25,931.537583912453
2528.5,932.307093821243
2528.75,932.109154907381
2529,930.725474701454
2529.25,927.977071835917
2529.5,924.118437927663
2529.75,919.672947533321
2530,915.167996367612
2530.25,911.100276146989
2530.5,907.828561248179
2530.75,905.672918415946
2531,904.946530442492
2531.25,905.436125133504
2531.5,906.03942945115
2531.75,905.568479678573
2532,902.986089196144
2532.25,898.917151106064
2532.5,895.017312649926
2532.75,892.957475469955
2533,893.63247886275
2533.25,895.353771079035
2533.5,895.895918266116
2533.75,893.154139461501
2534,887.940597545845
2534.25,884.065496821629
2534.5,885.475917820935
2534.75,894.723627008038
2535,907.029123909721
2535.25,915.213488508493
2535.5,912.222711085534
2535.75,897.081048782737
2536,877.460551783514
2536.25,861.693570897728
2536.5,857.252565512998
2536.75,862.903619990029
2537,872.353211946906
2537.25,879.27446207118
2537.5,880.265857105921
2537.75,877.310743975158
2538,872.971672788721
2538.25,869.608681265657
2538.5,867.863324420696
2538.75,867.51068311001
2539,868.316855967766
2539.25,869.811879518505
2539.5,871.091322955105
2539.75,871.204032039595
2540,869.463263024158
2540.25,867.151072506022
2540.5,866.437701257203
2540.75,869.464886849679
2541,876.095500494023
2541.25,882.469483774179
2541.5,884.383153496889
2541.75,878.528601356569
2542,867.398174398061
2542.25,855.794445090248
2542.5,848.490874144901
2542.75,847.670003410083
2543,851.190214353918
2543.25,856.499402952705
2543.5,861.284667894644
2543.75,864.504289580278
2544,865.537171251128
2544.25,863.8133724728
2544.5,860.064967319556
2544.75,856.403651389222
2545,855.00754049405
2545.25,857.195631560685
2545.5,861.029426096736
2545.75,863.798489484101
2546,863.020684597298
2546.25,859.658972740994
2546.5,857.343316800611
2546.75,859.768610883722
2547,868.280021465833
2547.25,878.039799899692
2547.5,883.205296629925
2547.75,878.654017286867
2548,866.546299008623
2548.25,853.270875908275
2548.5,845.258937589487
2548.75,846.024424121741
2549,852.076363279178
2549.25,858.893980674022
2549.5,862.452756920608
2549.75,862.516298140779
2550,860.594381468519
2550.25,858.197515628252
2550.5,856.377333455489
2550.75,855.505099635394
2551,855.89701965436
2551.25,857.700473346484
2551.5,860.187861624565
2551.75,862.348984719908
2552,863.216507554415
2552.25,862.860025671837
2552.5,862.413343423654
2552.75,863.058699578193
2553,865.419192473951
2553.25,868.12240157171
2553.5,869.350916850326
2553.75,867.415946429829
2554,862.663284738802
2554.25,857.063234940345
2554.5,852.630806492048
2554.75,850.777414384371
2555,851.173238172468
2555.25,853.176343059849
2555.5,856.119273813919
2555.75,859.069401748633
2556,860.936878341571
2556.25,860.640798354747
2556.5,858.088752999383
2556.75,854.946688343755
2557,853.061727731739
2557.25,853.989703902867
2557.5,857.379350832014
2557.75,862.112131923745
2558,867.071235261573
2558.25,871.267676737067
2558.5,873.867472807635
2558.75,874.045957498011
2559,871.291641343283
2559.25,866.479284876869
2559.5,860.86708109988
2559.75,855.702053011648
2560,851.934217348875
2560.25,850.192638058627
2560.5,851.090370959618
2560.75,854.713884268583
2561,859.27163494652
2561.25,862.553592444741
2561.5,862.536258937676
2561.75,859.640229580987
2562,856.004529633401
2562.25,853.800190696035
2562.5,854.198005107299
2562.75,856.023542988714
2563,857.766670840114
2563.25,858.105841945318
2563.5,857.274158120609
2563.75,856.269858020844
2564,856.083881900331
2564.25,856.95465819474
2564.5,857.957585299739
2564.75,858.068408076341
2565,856.480405173847
2565.25,853.526610328604
2565.5,849.912070386228
2565.75,846.33143082347
2566,843.208781142501
2566.25,840.682019832132
2566.5,838.875246655942
2566.75,837.793493082775
2567,837.073691494385
2567.25,836.281860868796
2567.5,835.025184643724
2567.75,833.293402623764
2568,831.284015746931
2568.25,829.195776269308
2568.5,827.193077906408
2568.75,825.394070889117
2569,823.913625374046
2569.25,822.776016632359
2569.5,821.708477235995
2569.75,820.377453623601
2570,818.517153619004
2570.25,816.412720198733
2570.5,814.61730770575
2570.75,813.654391058121
2571,813.290796173209
2571.25,812.51795596089
2571.5,810.297644538398
2571.75,806.379069588221
2572,802.106829229804
2572.25,799.018393327894
2572.5,798.202198429005
2572.75,798.899558818535
2573,799.876901174775
2573.25,800.044103630161
2573.5,799.389493690008
2573.75,798.391998140909
2574,797.511057238276
2574.25,796.870551529193
2574.5,796.332433791711
2574.75,795.756367121547
2575,795.180272947514
2575.25,794.871971743169
2575.5,795.112916692752
2575.75,795.920135463239
2576,796.750806095102
2576.25,796.990824369392
2576.5,796.233584438338
2576.75,794.811434822094
2577,793.221150885203
2577.25,791.881237652913
2577.5,790.717569043264
2577.75,789.464839184784
2578,787.890763890428
2578.25,786.135154411553
2578.5,784.570190477368
2578.75,783.551369802596
2579,783.015427794436
2579.25,782.50458828233
2579.5,781.553680632448
2579.75,780.032932047391
2580,778.263575370255
2580.25,776.597098718603
2580.5,775.221076829218
2580.75,774.012424854499
2581,772.813549976637
2581.25,771.526278737939
2581.5,770.204782603035
2581.75,768.927312224969
2582,767.807477753529
2582.25,767.077472888454
2582.5,766.994322240792
2582.75,767.566431169777
2583,767.755632090221
2583.25,766.248415109895
2583.5,762.192189403727
2583.75,757.116046048112
2584,753.316082041467
2584.25,752.622340961281
2584.5,753.93117294756
2584.75,755.001121734847
2585,753.951809412248
2585.25,751.276914073629
2585.5,748.422944029465
2585.75,746.639487400745
2586,745.788868685688
2586.25,745.144143123543
2586.5,744.077547250684
2586.75,742.648330870482
2587,741.201012527049
2587.25,740.026080647888
2587.5,739.064125382785
2587.75,738.118504498452
2588,737.092911493588
2588.25,736.46430906764
2588.5,736.912312888866
2588.75,738.717313501616
2589,740.194268893287
2589.25,739.054669343942
2589.5,733.899824231729
2589.75,727.075131510545
2590,721.910390787983
2590.25,720.696176255471
2590.5,721.891751406256
2590.75,723.075184907307
2591,722.648276026774
2591.25,721.196948840737
2591.5,719.661744801812
2591.75,718.572691261192
2592,717.656502404792
2592.25,716.551961589147
2592.5,715.145923091079
2592.75,713.676562712197
2593,712.399390992167
2593.25,711.354970247911
2593.5,710.368521865599
2593.75,709.285791063219
2594,708.325909986945
2594.25,707.961645664024
2594.5,708.546559066262
2594.75,709.53875840958
2595,710.003197989403
2595.25,709.246021621343
2595.5,707.619417776886
2595.75,705.756855534787
2596,704.130898567273
2596.25,702.782703646409
2596.5,701.682137088104
2596.75,700.816945319479
2597,700.204265775776
2597.25,699.856872347948
2597.5,699.626873859049
2597.75,699.20714536073
2598,698.326173469841
2598.25,697.14516503346
2598.5,696.078241070333
2598.75,695.458637054607
2599,695.175145512381
2599.25,694.97032351955
2599.5,694.661137628236
2599.75,694.271275858381
2600,693.861628410939
2600.25,693.584527959361
2600.5,693.730245430967
2600.75,694.561272365056
2601,695.670738318771
2601.25,696.090666715191
2601.5,695.009651296487
2601.75,692.937083657044
2602,690.988491452808
2602.25,690.018968667766
2602.5,689.852874875655
2602.75,690.063087661046
2603,690.275180358251
2603.25,690.218886268487
2603.5,689.652439079504
2603.75,688.738851008245
2604,688.063583720652
2604.25,688.147176776911
2604.5,688.704050692682
2604.75,689.002559369435
2605,688.512939893966
2605.25,687.605200576507
2605.5,686.892719194311
2605.75,686.724053585495
2606,686.882235558879
2606.25,687.081914576975
2606.5,687.155002106499
2606.75,687.060981749319
2607,686.758422843367
2607.25,686.135126929434
2607.5,685.039317144451
2607.75,683.440137054446
2608,681.835102408687
2608.25,680.862788955572
2608.5,680.766408054967
2608.75,680.981736826754
2609,680.865609636335
2609.25,680.209559235413
2609.5,679.231072413931
2609.75,678.171887458316
2610,677.323596666462
2610.25,677.001123414788
2610.5,677.334614034972
2610.75,677.850188368928
2611,677.959854254069
2611.25,677.526494555428
2611.5,677.064221428998
2611.75,677.091535590903
2612,677.548867081289
2612.25,677.98454722804
2612.5,678.053481681541
2612.75,677.957012862827
2613,678.058469940766
2613.25,678.491594676081
2613.5,678.916164664741
2613.75,678.950021795935
2614,678.566638241371
2614.25,678.08063526835
2614.5,677.791038216024
2614.75,677.779981538256
2615,678.032347989289
2615.25,678.478869654444
2615.5,678.88501318959
2615.75,678.991145629086
2616,678.83449255029
2616.25,678.863107743968
2616.5,679.510797527752
2616.75,680.682638666097
2617,681.936485718932
2617.25,682.903097664467
2617.5,683.586979743288
2617.75,684.102882646815
2618,684.528845714884
2618.25,684.864558938852
2618.5,685.109296743852
2618.75,685.506506430391
2619,686.556833446804
2619.25,688.640071414864
2619.5,690.938404492985
2619.75,692.000413619421
2620,690.907106918026
2620.25,688.943742865842
2620.5,687.953721785941
2620.75,688.811449317602
2621,690.370159561897
2621.25,691.26999568373
2621.5,691.198750538906
2621.75,690.970789521792
2622,691.365468093993
2622.25,692.252714239097
2622.5,692.977676693671
2622.75,693.061322074326
2623,692.88627438215
2623.25,693.088732697276
2623.5,694.009195558811
2623.75,695.274573598228
2624,696.413004358929
2624.25,697.212766363901
2624.5,697.799849005183
2624.75,698.312538107576
2625,698.745197798876
2625.25,698.986050695593
2625.5,698.934873232886
2625.75,698.587401023206
2626,697.979533967586
2626.25,697.185129901421
2626.5,696.417025947906
2626.75,695.919022032659
2627,695.802517856017
2627.25,695.911910978597
2627.5,696.061647340214
2627.75,696.1286661482
2628,696.060676209327
2628.25,695.816763161902
2628.5,695.443420464764
2628.75,695.04327661993
2629,694.729977011619
2629.25,694.674426334185
2629.5,695.067549106488
2629.75,695.925868926156
2630,696.754288350158
2630.25,696.972095187985
2630.5,696.492101361898
2630.75,696.010490913191
2631,696.245283338786
2631.25,696.983682704152
2631.5,697.16656615827
2631.75,695.878717620509
2632,693.713020612133
2632.25,692.03358855977
2632.5,691.846236833975
2632.75,692.534760136704
2633,693.034112535266
2633.25,692.758182769739
2633.5,692.199932071709
2633.75,691.987087796222
2634,692.31246001141
2634.25,692.839157740215
2634.5,693.215001373186
2634.75,693.290140820521
2635,693.048824960001
2635.25,692.527945883209
2635.5,692.049269076607
2635.75,692.034610823862
2636,692.684132482984
2636.25,693.562862791976
2636.5,694.12901161484
2636.75,694.182254054932
2637,694.035826288061
2637.25,694.024863351625
2637.5,694.136315815299
2637.75,694.066113748214
2638,693.555074122922
2638.25,692.75134945949
2638.5,691.989442851983
2638.75,691.513108838223
2639,691.217170842599
2639.25,690.914309895016
2639.5,690.518697582417
2639.75,690.142311364789
2640,689.916140399315
2640.25,689.876870034926
2640.5,689.963051162552
2640.75,690.102965966702
2641,690.170972347742
2641.25,690.011679633635
2641.5,689.553073694189
2641.75,689.095227498685
2642,689.040558086132
2642.25,689.586052209169
2642.5,690.47646677297
2642.75,691.39674632264
2643,692.044867304505
2643.25,692.133700910163
2643.5,691.44003508197
2643.75,690.427864671618
2644,689.983479807618
2644.25,690.753952560347
2644.5,692.125616423121
2644.75,693.082056381241
2645,693.023252107478
2645.25,692.39922185608
2645.5,691.816799962578
2645.75,691.625094002672
2646,691.824833060106
2646.25,692.38379550987
2646.5,693.154231179799
2646.75,693.903335926263
2647,694.431873819637
2647.25,694.765622697675
2647.5,695.01814836689
2647.75,695.292313669179
2648,695.655902918644
2648.25,696.169079531492
2648.5,696.844464433106
2648.75,697.612550689736
2649,698.390683565446
2649.25,698.986026483361
2649.5,699.098121458643
2649.75,698.486676533657
2650,697.540535733656
2650.25,697.002982104839
2650.5,697.424889086635
2650.75,698.360833366108
2651,699.050757166964
2651.25,699.070589645803
2651.5,698.903417295006
2651.75,699.175455486714
2652,700.022853071034
2652.25,700.829752323281
2652.5,700.953221606707
2652.75,700.452001910522
2653,700.015102615246
2653.25,700.270965656474
2653.5,701.094050950215
2653.75,701.956677104512
2654,702.444184639388
2654.25,702.706201280053
2654.5,703.062373646258
2654.75,703.706791464414
2655,704.490739715113
2655.25,705.208481473979
2655.5,705.717048837514
2655.75,705.975058559575
2656,705.952463865274
2656.25,705.667600224666
2656.5,705.187536603205
2656.75,704.592672978339
2657,704.090371480897
2657.25,703.968476560707
2657.5,704.442442425508
2657.75,705.267583931683
2658,706.021904420419
2658.25,706.422044339116
2658.5,706.681922251624
2658.75,707.125523834431
2659,707.881714193286
2659.25,708.659922228207
2659.5,709.123483127361
2659.75,709.287068761435
2660,709.639729170883
2660.25,710.670498553929
2660.5,712.249151888382
2660.75,713.701068200859
2661,714.399204360605
2661.25,714.377210532563
2661.5,714.048757241064
2661.75,713.767717706192
2662,713.48623186459
2662.25,713.001686599409
2662.5,712.252528465933
2662.75,711.747138176981
2663,712.136582225314
2663.25,713.633987780596
2663.5,715.311829493
2663.75,716.069336804065
2664,715.603969305898
2664.25,714.97552912766
2664.5,715.345791736759
2664.75,716.874242794867
2665,718.52790663643
2665.25,719.259486950514
2665.5,718.941569727587
2665.75,718.205878488875
2666,717.698522439774
2666.25,717.978859286009
2666.5,719.554726148928
2666.75,722.728812169073
2667,726.410751250421
2667.25,728.929197867578
2667.5,729.047293136018
2667.75,727.584025587042
2668,725.963187044391
2668.25,725.28293057226
2668.5,725.449116058813
2668.75,726.094921729297
2669,726.891806669519
2669.25,727.616801049491
2669.5,728.065725785245
2669.75,728.156483385793
2670,728.063394017861
2670.25,727.991438959884
2670.5,728.024685064052
2670.75,728.047507726183
2671,727.927911970114
2671.25,727.625599038539
2671.5,727.220114234375
2671.75,726.802579598649
2672,726.55013441641
2672.25,726.729202764325
2672.5,727.579748699578
2672.75,728.840789762196
2673,729.842485073754
2673.25,729.962588616518
2673.5,729.263382676751
2673.75,728.245153122603
2674,727.369715874056
2674.25,726.701624615157
2674.5,726.100759185094
2674.75,725.468897706148
2675,724.993592338666
2675.25,724.977502086697
2675.5,725.604033544811
2675.75,726.472986351782
2676,727.006378782327
2676.25,726.830945882394
2676.5,726.313483880088
2676.75,725.987641734589
2677,726.18114195277
2677.25,726.654204576417
2677.5,727.071326439967
2677.75,727.292453413694
2678,727.587769589108
2678.25,728.27512216209
2678.5,729.39158821304
2678.75,730.515810251672
2679,731.190015655226
2679.25,731.181943946228
2679.5,730.550798272281
2679.75,729.38079489941
2680,727.901447630545
2680.25,726.49617041763
2680.5,725.545876882362
2680.75,725.255473316372
2681,725.67858527403
2681.25,726.823137227242
2681.5,728.20055136911
2681.75,728.990920688324
2682,728.500303358912
2682.25,727.183599024025
2682.5,726.08720541325
2682.75,726.068216789658
2683,726.695622568985
2683.25,727.013999003795
2683.5,726.337061270392
2683.75,725.314728675472
2684,725.008526230279
2684.25,726.096781728201
2684.5,727.822822062073
2684.75,729.094746093597
2685,729.218309226991
2685.25,728.607138937798
2685.5,727.864866334449
2685.75,727.31866773027
2686,726.689409940365
2686.25,725.62258365364
2686.5,724.17425471474
2686.75,723.107517007421
2687,723.234680863936
2687.25,724.515392870295
2687.5,725.772628796236
2687.75,725.801410672918
2688,724.579839522787
2688.25,723.274669558917
2688.5,723.029899609479
2688.75,723.843135605339
2689,724.815971247638
2689.25,725.107468344657
2689.5,724.70956260989
2689.75,724.102575926954
2690,723.727707882515
2690.25,723.693634923242
2690.5,723.960939239718
2690.75,724.484627784929
2691,725.193725311394
2691.25,726.008671923614
2691.5,726.798023547804
2691.75,727.229139786097
2692,726.920864007149
2692.25,725.773725108973
2692.5,724.50989619237
2692.75,723.998238406395
2693,724.607201133719
2693.25,725.583581558291
2693.5,726.029361499274
2693.75,725.635206888105
2694,725.083271832774
2694.25,725.135027962157
2694.5,725.926859254031
2694.75,726.779707517896
2695,726.993919332246
2695.25,726.663436216471
2695.5,726.679072665502
2695.75,727.891536576492
2696,729.985539166705
2696.25,731.725363598107
2696.5,732.005448351892
2696.75,731.424675612542
2697,731.636034371704
2697.25,734.023976682468
2697.5,737.536313320541
2697.75,739.881622583805
2698,739.190368271995
2698.25,736.525185544185
2698.5,734.168274626596
2698.75,733.994810394625
2699,735.416200189446
2699.25,736.929970070936
2699.5,737.352591524134
2699.75,737.080140581606
2700,736.994576696616
2700.25,737.740140933626
2700.5,738.95860632348
2700.75,740.027693020214
2701,740.520179953033
2701.25,740.712258233797
2701.5,741.038563506646
2701.75,741.75682688317
2702,742.558399775677
2702.25,743.021742638444
2702.5,742.948771089143
2702.75,742.785045236717
2703,743.090764227386
2703.25,744.123647623441
2703.5,745.338079020132
2703.75,746.057338825785
2704,745.866743608232
2704.25,744.993903723225
2704.5,743.763228527937
2704.75,742.550302210957
2705,741.850577854925
2705.25,742.174407826463
2705.5,743.595594458577
2705.75,745.232131522335
2706,746.080011851319
2706.25,745.752898409428
2706.5,745.10176107054
2706.75,745.119762910549
2707,746.17982338856
2707.25,747.465956674762
2707.5,748.034447950821
2707.75,747.583903727305
2708,746.978631671074
2708.25,747.19954368715
2708.5,748.640046840813
2708.75,750.650322597409
2709,752.476610794639
2709.25,753.632315571503
2709.5,754.090045092202
2709.75,753.868603802552
2710,753.065208512525
2710.25,751.914792772312
2710.5,750.667164525735
2710.75,749.662644666957
2711,749.407576854792
2711.25,750.42050192235
2711.5,752.64540556971
2711.75,754.960907643983
2712,756.138756139978
2712.25,755.852795346342
2712.5,755.449472186767
2712.75,756.44874074359
2713,759.327863810908
2713.25,762.499478603248
2713.5,764.13989230333
2713.75,763.52033114849
2714,762.228795174678
2714.25,762.145668720879
2714.5,764.278758837133
2714.75,767.474526555093
2715,770.251055243168
2715.25,771.570786419699
2715.5,771.659845186374
2715.75,770.96748616387
2716,769.916496828897
2716.25,768.834351435997
2716.5,768.027076372808
2716.75,767.722523491555
2717,767.786344586064
2717.25,767.979367424431
2717.5,768.093127476036
2717.75,768.096291893389
2718,768.020883422432
2718.25,767.905898907416
2718.5,767.84013739964
2718.75,767.934277147453
2719,768.28769863915
2719.25,768.895562508969
2719.5,769.697140139719
2719.75,770.620558567956
2720,771.469007903386
2720.25,771.964319027096
2720.5,771.861536754301
2720.75,771.469574632691
2721,771.542960186948
2721.25,772.809894827452
2721.5,775.082123400398
2721.75,777.243441316223
2722,778.158568731555
2722.25,777.518722468158
2722.5,776.068502728132
2722.75,774.61786342886
2723,773.732008304194
2723.25,773.555940399213
2723.5,774.192378629102
2723.75,775.540405594362
2724,777.038724583777
2724.25,778.063028000411
2724.5,778.297814969634
2724.75,778.346996649282
2725,778.984823717225
2725.25,780.688699575587
2725.5,782.702674536718
2725.75,783.950528296812
2726,783.644703756471
2726.25,782.702339389355
2726.5,782.664125705804
2726.75,784.851727390411
2727,788.576134216422
2727.25,792.07078319476
2727.5,793.670498432145
2727.75,793.358112155386
2728,792.373751125234
2728.25,791.963295323473
2728.5,792.528977756662
2728.75,793.463909277122
2729,794.104657250189
2729.25,794.088043591968
2729.5,793.612916507987
2729.75,792.939815960224
2730,792.273032694202
2730.25,791.643470331349
2730.5,791.048730517337
2730.75,790.502693192124
2731,790.103223474486
2731.25,789.975193332494
2731.5,790.226408260481
2731.75,790.81677929767
2732,791.630387868438
2732.25,792.559850261045
2732.5,793.639409810628
2732.75,795.014781640596
2733,796.822001352363
2733.25,798.766077878928
2733.5,800.025728454517
2733.75,799.752455961099
2734,797.739057319605
2734.25,795.059955816452
2734.5,792.941978955986
2734.75,792.276726580943
2735,792.764957460435
2735.25,793.843121518269
2735.5,794.998483620448
2735.75,796.021852389925
2736,796.816264734075
2736.25,797.280848539486
2736.5,797.271262637181
2736.75,796.616940090067
2737,795.171226752347
2737.25,793.336200123665
2737.5,792.057392194785
2737.75,792.291277844797
2738,794.180085149308
2738.25,796.557163336731
2738.5,798.138928924979
2738.75,798.210062817503
2739,797.508810990373
2739.25,797.002522771736
2739.5,797.380102883861
2739.75,798.07369307648
2740,798.161025172954
2740.25,796.857194229096
2740.5,794.489884509516
2740.75,791.926211202288
2741,790.003370556647
2741.25,789.015436668532
2741.5,788.815631587981
2741.75,789.239066761264
2742,789.930246176778
2742.25,790.296169542906
2742.5,789.73328384803
2742.75,788.115551846258
2743,786.219575996288
2743.25,784.922043322983
2743.5,784.769568540051
2743.75,785.327710236675
2744,785.980588679857
2744.25,786.237520622151
2744.5,786.172651707679
2744.75,786.019341521119
2745,785.943535463668
2745.25,785.637623762478
2745.5,784.591058202128
2745.75,782.370843270675
2746,779.4372236375
2746.25,776.818615439703
2746.5,775.497270936049
2746.75,775.375714545513
2747,775.373548379966
2747.25,774.403385668628
2747.5,772.313866262634
2747.75,770.071548634537
2748,768.696187226466
2748.25,768.455701821479
2748.5,768.448641670998
2748.75,767.678453335361
2749,765.828237588876
2749.25,763.87930239295
2749.5,762.956663843999
2749.75,763.542664032231
2750,764.620121759097
2750.25,764.959261919344
2750.5,763.880090352912
2750.75,762.19060100341
2751,760.947941145134
2751.25,760.80625640586
2751.5,761.119921205376
2751.75,760.981774613506
2752,759.768072695188
2752.25,757.896983492111
2752.5,756.026043073859
2752.75,754.670682278295
2753,753.75028345864
2753.25,753.027977535084
2753.5,752.312825934796
2753.75,751.620933765106
2754,751.026718334459
2754.25,750.58593700261
2754.5,750.267129697394
2754.75,750.013379509943
2755,749.7663096576
2755.25,749.460653106577
2755.5,749.029107781471
2755.75,748.459688221213
2756,748.002017678854
2756.25,747.982980498698
2756.5,748.601913667391
2756.75,749.46216706338
2757,749.993170747646
2757.25,749.764272715236
2757.5,748.983040475419
2757.75,748.038886807179
2758,747.250086851024
2758.25,746.610439143011
2758.5,746.021296754586
2758.75,745.399295156809
2759,744.72913185679
2759.25,744.014436787159
2759.5,743.307350241695
2759.75,742.865812036438
2760,743.002328196659
2760.25,743.841928560149
2760.5,744.769595881799
2760.75,744.987744138724
2761,744.037662731029
2761.25,742.6906036917
2761.5,741.99673589338
2761.75,742.626309735126
2762,743.950593275338
2762.25,745.063608016575
2762.5,745.359828513682
2762.75,745.168098148748
2763,744.998185135973
2763.25,745.144162045884
2763.5,745.267573637916
2763.75,744.914891442488
2764,743.833449789755
2764.25,742.32628194515
2764.5,740.791515551539
2764.75,739.526574963192
2765,738.565918231379
2765.25,737.901491159331
2765.5,737.490978120518
2765.75,737.211324344233
2766,736.92828726561
2766.25,736.573475094057
2766.5,736.214166278975
2766.75,735.934184847248
2767,735.800470866751
2767.25,735.849803283965
2767.5,736.114234323049
2767.75,736.531928528987
2768,736.896802986445
2768.25,736.996440762948
2768.5,736.859116410714
2768.75,736.831871724558
2769,737.270140752052
2769.25,738.119341812769
2769.5,738.851168233416
2769.75,738.931389620475
2770,738.303199524682
2770.25,737.39133562885
2770.5,736.628281392591
2770.75,736.187908454468
2771,736.011556255647
2771.25,736.036568234819
2771.5,736.266293995895
2771.75,736.755872678148
2772,737.541345938859
2772.25,738.404433106087
2772.5,738.954762264406
2772.75,738.854613586602
2773,738.341781117258
2773.25,737.992852559913
2773.5,738.31194934826
2773.75,739.12291724162
2774,739.894317460988
2774.25,740.206907686098
2774.5,740.513339482198
2774.75,741.664958914479
2775,744.267176195926
2775.25,747.274312853632
2775.5,748.96624200297
2775.75,748.012781189678
2776,745.445195598115
2776.25,743.174845135216
2776.5,742.771307032843
2776.75,743.761518764375
2777,744.91992905847
2777.25,745.279727578045
2777.5,745.293182608572
2777.75,745.894451638392
2778,747.720680292996
2778.25,749.881313559009
2778.5,750.996624694321
2778.75,750.12686629179
2779,748.48635554535
2779.25,747.947257777257
2779.5,749.848727002297
2779.75,752.889320534994
2780,754.951611278979
2780.25,754.4983074616
2780.5,752.797590255542
2780.75,751.964214665014
2781,753.55875965717
2781.25,756.295030155147
2781.5,757.975536667181
2781.75,756.93431289208
2782,754.304073775244
2782.25,752.134702963207
2782.5,752.079934919257
2782.75,753.491906954305
2783,754.894714473882
2783.25,755.081383819856
2783.5,754.450662049432
2783.75,753.992475522613
2784,754.498169357756
2784.25,755.496839823771
2784.5,756.025371911214
2784.75,755.320030882605
2785,753.950717296189
2785.25,753.031642732831
2785.5,753.481963266095
2785.75,754.809468755446
2786,755.905482220869
2786.25,755.866514837672
2786.5,755.338444524179
2786.75,755.667032419439
2787,757.934485817162
2787.25,761.071052453875
2787.5,762.967743676188
2787.75,761.821766353486
2788,758.560758942794
2788.25,755.521122378355
2788.5,754.817982955182
2788.75,756.137983028167
2789,757.724534241205
2789.25,757.95978104341
2789.5,756.991259088323
2789.75,756.073522890799
2790,756.378942754014
2790.25,757.831931685296
2790.5,759.504676593808
2790.75,760.504110951396
2791,760.642394871466
2791.25,760.244863806123
2791.5,759.645190392283
2791.75,759.124546601662
2792,758.921661949453
2792.25,759.262003035307
2792.5,760.141195830821
2792.75,761.348562713234
2793,762.665986634512
2793.25,763.872732627724
2793.5,764.745484541993
2793.75,765.06528851278
2794,764.739927679584
2794.25,763.818812259504
2794.5,762.366991899649
2794.75,760.772260773266
2795,759.844477505594
2795.25,760.408781129304
2795.5,762.562817947573
2795.75,765.312579392654
2796,767.579816962497
2796.25,768.699764109911
2796.5,768.698201530086
2796.75,767.668856503913
2797,766.026604875527
2797.25,764.831819429682
2797.5,765.21999195437
2797.75,767.575611584114
2798,770.436394427115
2798.25,772.062075682676
2798.5,771.608923275654
2798.75,770.854023615635
2799,772.050816755797
2799.25,776.496547186309
2799.5,781.860363169018
2799.75,784.951056614145
2800,783.406463888803
2800.25,778.962559666956
2800.5,774.619358635723
2800.75,773.049416076754
2801,774.420348498697
2801.25,777.744079843324
2801.5,782.000992595406
2801.75,785.903944821554
2802,788.005256274163
2802.25,786.98580534644
2802.5,783.666557077411
2802.75,780.615300234475
2803,780.385428602886
2803.25,783.333321182076
2803.5,787.147773774335
2803.75,789.378788363095
2804,789.194451771863
2804.25,788.463454822193
2804.5,789.308326416096
2804.75,792.71491285238
2805,796.744988789896
2805.25,798.996595425709
2805.5,797.873022287057
2805.75,795.059068060204
2806,793.075320840484
2806.25,794.015456377686
2806.5,796.795821049433
2806.75,798.89994760537
2807,798.017131622378
2807.25,794.715122887759
2807.5,791.631500008917
2807.75,791.380639491545
2808,794.324890486517
2808.25,798.121764884062
2808.5,800.281634540109
2808.75,799.668787397996
2809,797.665041696691
2809.25,795.926324877197
2809.5,795.683271332948
2809.75,796.769366444792
2810,798.731622022742
2810.25,801.12205357637
2810.5,803.52127903112
2810.75,805.520062778893
2811,806.74469830414
2811.25,807.206732697346
2811.5,807.153742324849
2811.75,806.828909259435
2812,806.259372313694
2812.25,805.233697515902
2812.5,803.530364003972
2812.75,801.246617197061
2813,799.126667338686
2813.25,797.993099207041
2813.5,798.430826262708
2813.75,800.124141829092
2814,802.544047954083
2814.25,805.143159277964
2814.5,807.249018241901
2814.75,808.137080936996
2815,807.166039979028
2815.25,804.875552083851
2815.5,802.681256397861
2815.75,801.994271270819
2816,803.13311505475
2816.25,804.928472107895
2816.5,806.106185297555
2816.75,805.93551630118
2817,804.989859730465
2817.25,804.034213693139
2817.5,803.699543517405
2817.75,803.994089681798
2818,804.745376670696
2818.25,805.751641507567
2818.5,806.542482719459
2818.75,806.503058022733
2819,805.062346061434
2819.25,802.622913992962
2819.5,800.525480444269
2819.75,800.13644001599
2820,801.778778355597
2820.25,803.959547761824
2820.5,805.004207213312
2820.75,803.919110386639
2821,801.792403322299
2821.25,800.108715558772
2821.5,800.076923390929
2821.75,801.272016902156
2822,802.669467354628
2822.25,803.325524628002
2822.5,803.233655762443
2822.75,802.986125001599
2823,803.167574229554
2823.25,803.87337604452
2823.5,804.653426909753
2823.75,805.031207156368
2824,804.807430355246
2824.25,804.326652655671
2824.5,803.996673455577
2824.75,804.041139099887
2825,804.003097472405
2825.25,803.268400384307
2825.5,801.379085246107
2825.75,798.993686966148
2826,797.256735788776
2826.25,797.222425868362
2826.5,798.554723555295
2826.75,799.84297462427
2827,799.68211456603
2827.25,797.89199959646
2827.5,795.840550233355
2827.75,794.990592665685
2828,795.999626227606
2828.25,797.780274098429
2828.5,799.016916374707
2828.75,798.715376539388
2829,797.054915852966
2829.25,794.482485698314
2829.5,791.462378860101
2829.75,788.573740527283
2830,786.442409684439
2830.25,785.62193521792
2830.5,785.798646636314
2830.75,786.087136619987
2831,785.622785959476
2831.25,784.2049092373
2831.5,782.271976382216
2831.75,780.286099260441
2832,778.603062134857
2832.25,777.429386227518
2832.5,776.958783215416
2832.75,777.181093357527
2833,777.68652089872
2833.25,778.019143683194
2833.5,777.892435734345
2833.75,777.469780736238
2834,776.988423339231
2834.25,776.661717809398
2834.5,776.614800349645
2834.75,776.952449438147
2835,777.681062666803
2835.25,778.304346615548
2835.5,778.165870250198
2835.75,776.749450244506
2836,774.540953576369
2836.25,772.462040456404
2836.5,771.346725338702
2836.75,771.101706196147
2837,771.084760378268
2837.25,770.680721184251
2837.5,769.765276790074
2837.75,768.581409218231
2838,767.376055452826
2838.25,766.296410322492
2838.5,765.396661283737
2838.75,764.72602521945
2839,764.29300617644
2839.25,764.060299110424
2839.5,763.987559491787
2839.75,764.010447123856
2840,764.03302429518
2840.25,763.959276852839
2840.5,763.813087673061
2840.75,763.801457271946
2841,764.143791246847
2841.25,764.788749987914
2841.5,765.204313015131
2841.75,764.811824432021
2842,763.459807767872
2842.25,761.881005094626
2842.5,760.916614022607
2842.75,761.005950363107
2843,761.603933453011
2843.25,762.017884799224
2843.5,761.821875615445
2843.75,761.331318384451
2844,760.989329105254
2844.25,761.09939244396
2844.5,761.518420542355
2844.75,762.014238912144
2845,762.446674733755
2845.25,763.01091094806
2845.5,763.97851925829
2845.75,765.47628118713
2846,767.021557754682
2846.25,767.971398807504
2846.5,767.933193416226
2846.75,767.761505686752
2847,768.69852556467
2847.25,771.643950881287
2847.5,775.369465313658
2847.75,777.830940887678
2848,777.301915076148
2848.25,774.581087766155
2848.5,771.666933665731
2848.75,770.407508545913
2849,770.820647453912
2849.25,771.744829513748
2849.5,772.066899665389
2849.75,771.761659443044
2850,771.679349274206
2850.25,772.650987103943
2850.5,774.471168160749
2850.75,775.884917954108
2851,775.626426604485
2851.25,773.765749783888
2851.5,772.075770095722
2851.75,772.421868641669
2852,775.305372042939
2852.25,778.935400490547
2852.5,781.307315810284
2852.75,781.435318585196
2853,780.512011897871
2853.25,780.010273997251
2853.5,780.8423986089
2853.75,782.211762690286
2854,782.997265346336
2854.25,782.377251137754
2854.5,780.835651129035
2854.75,779.212126471888
2855,778.274696386775
2855.25,778.323909555734
2855.5,779.472832600705
2855.75,781.745570091439
2856,784.323779263099
2856.25,785.92255762925
2856.5,785.36823801863
2856.75,783.202713473247
2857,781.276896667538
2857.25,781.412156659953
2857.5,783.674567733655
2857.75,786.178610621971
2858,786.962682538122
2858.25,785.594240821032
2858.5,783.997703564991
2858.75,784.293668932129
2859,787.339374219986
2859.25,791.071961618286
2859.5,793.017366540431
2859.75,791.595416150982
2860,788.291383789681
2860.25,785.247129445306
2860.5,784.226310016956
2860.75,784.814247180232
2861,785.817970293693
2861.25,786.17072134805
2861.5,785.952369018937
2861.75,785.850406842942
2862,786.498272431171
2862.25,787.621384145786
2862.5,788.237892322095
2862.75,787.383787591485
2863,785.162054777746
2863.25,782.886526472033
2863.5,781.924657974812
2863.75,782.726979140563
2864,784.187983314224
2864.25,785.053362022649
2864.5,784.743987613429
2864.75,784.312791137684
2865,785.054397549549
2865.25,787.627847342802
2865.5,790.379695483677
2865.75,791.130728574345
2866,788.287427785632
2866.25,783.506084380014
2866.5,779.563720441139
2866.75,778.913153703949
2867,780.955084441061
2867.25,783.419736518833
2867.5,784.162004246498
2867.75,783.062136042259
2868,781.512207532892
2868.25,780.89519469817
2868.5,781.421655284908
2868.75,782.053048911216
2869,781.708190461108
2869.25,780.258832151685
2869.5,778.983078290176
2869.75,779.266299107392
2870,781.566957437639
2870.25,784.40810901863
2870.5,786.071090204629
2870.75,785.656302817312
2871,784.6431160569
2871.25,784.940386088694
2871.5,787.779701815862
2871.75,791.372689869066
2872,793.089545678594
2872.25,790.842585523808
2872.5,786.257943154082
2872.75,782.518160056818
2873,782.536290062945
2873.25,785.853054626174
2873.5,789.745902084058
2873.75,791.559869374206
2874,790.895909270702
2874.25,789.474586520734
2874.5,789.073568737771
2874.75,790.219409646692
2875,791.631876740951
2875.25,791.894078915965
2875.5,790.447161470626
2875.75,788.625679213632
2876,788.017132773598
2876.25,789.631801108138
2876.5,792.406866903878
2876.75,794.814276250269
2877,795.604194602008
2877.25,795.107220361376
2877.5,794.211280798173
2877.75,793.722313442619
2878,793.605180223982
2878.25,793.333892927778
2878.5,792.410595598685
2878.75,791.030887398906
2879,790.034911775021
2879.25,790.271498772438
2879.5,791.780484993805
2879.75,793.421391903398
2880,793.963437172445
2880.25,792.86392140337
2880.5,791.132325654461
2880.75,789.990804618806
2881,790.262842381543
2881.25,791.270535498028
2881.5,791.982607928554
2881.75,791.603321264295
2882,790.77710062854
2882.25,790.692517827583
2882.5,792.371664299062
2882.75,795.059175946782
2883,796.928677262964
2883.25,796.242845882919
2883.5,793.363035552275
2883.75,790.6005125239
2884,790.307184386199
2884.25,792.929722717677
2884.5,796.015312845801
2884.75,796.873334017157
2885,794.321245807842
2885.25,790.733861114315
2885.5,788.998668583104
2885.75,791.057016256918
2886,794.97666429031
2886.25,797.834198446598
2886.5,797.254338766643
2886.75,794.472284229504
2887,792.183824669234
2887.25,792.85606202224
2887.5,796.017704845918
2887.75,799.185368468423
2888,799.916615490285
2888.25,797.834030295545
2888.5,794.756812353011
2888.75,792.599805342027
2889,792.254567753159
2889.25,792.763354754043
2889.5,792.974398222333
2889.75,792.172602778682
2890,790.923907196565
2890.25,790.027952676138
2890.5,790.077606479025
2890.75,790.652130816287
2891,791.020700129844
2891.25,790.554919255335
2891.5,789.454874454018
2891.75,788.32164788313
2892,787.737226449907
2892.25,787.969268575213
2892.5,789.048782794661
2892.75,790.989397959931
2893,793.474560818502
2893.25,795.817805126148
2893.5,797.316803503323
2893.75,797.564509969192
2894,796.659162901415
2894.25,794.748740769899
2894.5,792.185614838779
2894.75,789.914556691827
2895,788.987049429271
2895.25,790.106725832341
2895.5,792.252057904732
2895.75,793.867691089937
2896,793.637002106117
2896.25,792.173161315577
2896.5,791.023008617263
2896.75,791.639228216601
2897,793.954008821548
2897.25,796.718510493395
2897.5,798.674920461767
2897.75,799.277097384987
2898,798.827541850202
2898.25,797.678610327293
2898.5,796.205612779499
2898.75,794.829601517311
2899,793.977045413577
2899.25,794.024283483523
2899.5,795.174308170767
2899.75,797.592669237844
2900,801.223877092428
2900.25,804.71241210454
2900.5,806.229037692754
2900.75,804.202535599961
2901,799.920859621629
2901.25,796.448543333422
2901.5,796.77460659924
2901.75,800.98068112091
2902,805.893440569177
2902.25,808.188567217023
2902.5,806.592489383002
2902.75,803.574145692865
2903,802.000654612799
2903.25,803.675894693422
2903.5,806.639739784425
2903.75,808.099531396225
2904,805.80603754527
2904.25,801.128685233598
2904.5,796.915306772202
2904.75,795.82854592685
2905,797.703636680913
2905.25,800.204039122459
2905.5,800.982744580665
2905.75,799.284000436474
2906,796.329581777175
2906.25,793.461903415758
2906.5,791.50189442106
2906.75,790.148138608127
2907,788.953547186572
2907.25,787.635951918744
2907.5,786.503822880135
2907.75,785.997801674895
2908,786.402825063557
2908.25,787.111013602845
2908.5,787.196838000353
2908.75,785.846728631745
2909,783.268672239908
2909.25,780.215786181646
2909.5,777.427322997829
2909.75,775.345863196053
2910,774.178895310008
2910.25,774.106900846773
2910.5,774.771703559634
2910.75,775.237157441829
2911,774.556601392497
2911.25,772.584688872958
2911.5,770.282013372137
2911.75,768.684982330365
2912,768.358526495791
2912.25,769.017141993707
2912.5,770.285603236393
2912.75,771.675491704537
2913,772.446599625796
2913.25,771.825416732001
2913.5,769.550710086406
2913.75,766.792646442356
2914,764.969455128713
2914.25,764.974820173993
2914.5,765.802472354955
2914.75,766.016108950979
2915,764.615611651402
2915.25,762.492047563235
2915.5,761.048913811064
2915.75,761.329921003185
2916,762.486339316545
2916.25,763.049437497404
2916.5,761.870412732801
2916.75,759.728339455998
2917,758.12016712982
2917.25,758.346021057423
2917.5,760.302961911599
2917.75,763.282126075563
2918,766.548195506963
2918.25,769.176958510071
2918.5,770.154987309116
2918.75,768.649050823362
2919,765.53577728137
2919.25,762.633789700494
2919.5,761.629134859915
2919.75,762.417091342622
2920,763.669899855729
2920.25,764.113600841359
2920.5,763.645611006547
2920.75,763.071482933786
2921,763.179898773667
2921.25,763.984681551926
2921.5,764.80403205899
2921.75,764.963584535971
2922,764.566310143242
2922.25,764.514406856321
2922.5,765.713321477155
2922.75,767.97446267998
2923,769.793535679001
2923.25,769.616891767814
2923.5,767.238898213717
2923.75,764.35229919256
2924,762.77944623722
2924.25,763.224849216489
2924.5,764.443264007763
2924.75,764.999372309925
2925,764.26475253763
2925.25,763.233197857605
2925.5,763.090569157164
2925.75,764.376926758803
2926,766.097062704784
2926.25,767.033352955988
2926.5,766.528323326905
2926.75,765.469840405568
2927,765.009924723268
2927.25,765.856351214856
2927.5,767.220658289971
2927.75,767.999713305254
2928,767.465576094775
2928.25,766.402183578295
2928.5,765.974239261086
2928.75,766.9960136761
2929,768.528080938213
2929.25,769.083564328535
2929.5,767.510599837529
2929.75,764.697569192709
2930,762.300499809758
2930.25,761.72704543477
2930.5,762.451229982857
2930.75,763.044861480511
2931,762.259248774138
2931.25,760.520225233844
2931.5,759.14553617502
2931.75,759.329573353072
2932,760.837066327764
2932.25,762.556126046189
2932.5,763.441050628039
2932.75,763.421946435441
2933,763.087622620131
2933.25,763.002326021527
2933.5,763.17270165555
2933.75,763.173552962543
2934,762.594101313536
2934.25,761.504332912982
2934.5,760.400904875845
2934.75,759.778146027628
2935,759.724385584865
2935.25,759.915281836505
2935.5,760.016792538598
2935.75,759.948250828066
2936,759.914858311395
2936.25,760.133190224804
2936.5,760.678899508193
2936.75,761.451096314424
2937,762.338808456925
2937.25,763.280467670029
2937.5,764.283271002409
2937.75,765.358566714418
2938,766.458338245854
2938.25,767.440692759208
2938.5,768.155798965292
2938.75,768.491075778724
2939,768.403211314196
2939.25,767.857344994661
2939.5,767.026479801287
2939.75,766.555409172549
2940,767.153400884164
2940.25,769.04621228723
2940.5,771.111783579611
2940.75,771.99513071584
2941,770.956218046117
2941.25,769.348335150619
2941.5,768.96979406331
2941.75,771.054454319718
2942,774.335463955916
2942.25,776.85367385844
2942.5,777.104184488949
2942.75,776.115548342398
2943,775.794244995505
2943.25,777.730868323912
2943.5,781.034971556453
2943.75,783.646805729142
2944,783.718450252522
2944.25,781.842165643636
2944.5,780.13736822933
2944.75,780.636385975094
2945,783.269413088551
2945.25,786.083051572696
2945.5,787.104969734635
2945.75,785.996248800482
2946,784.420262701368
2946.25,784.151662511563
2946.5,785.889356688044
2946.75,788.376255866944
2947,790.149314267953
2947.25,790.429143570976
2947.5,790.254849807911
2947.75,790.964562644886
2948,793.466708556659
2948.25,796.834446614529
2948.5,799.651059574498
2948.75,800.677519778684
2949,799.929893782728
2949.25,797.964799780255
2949.5,795.359019379214
2949.75,792.944801192126
2950,791.74383023406
2950.25,792.742236131775
2950.5,795.586523701964
2950.75,798.29878999053
2951,798.816800189887
2951.25,796.565351129168
2951.5,793.792665660425
2951.75,793.062318894427
2952,795.93408990612
2952.25,800.634343630009
2952.5,804.698394764375
2952.75,806.145980084495
2953,805.6958279174
2953.25,805.001104475323
2953.5,805.551070958336
2953.75,806.944269169268
2954,807.571287477498
2954.25,805.866339939
2954.5,802.122768822643
2954.75,798.750332065074
2955,798.263747284501
2955.25,801.556639156852
2955.5,806.124634777979
2955.75,809.035731110953
2956,808.394015062664
2956.25,806.087072037057
2956.5,804.865877487235
2956.75,807.036522575454
2957,811.557601827952
2957.25,815.8637393652
2957.5,817.525360792708
2957.75,816.493579982677
2958,814.679360812227
2958.25,814.035299748422
2958.5,815.286262860008
2958.75,817.112016132077
2959,817.99873621521
2959.25,816.976664517333
2959.5,814.947139602003
2959.75,813.213426884223
2960,812.92837209684
2960.25,814.053132214739
2960.5,815.981755148529
2960.75,818.117446391351
2961,820.120471062481
2961.25,821.890950602958
2961.5,823.338268754704
2961.75,824.381530820061
2962,824.958284201581
2962.25,825.008135223776
2962.5,824.581432210967
2962.75,824.21821220288
2963,824.593820797719
2963.25,826.277663657811
2963.5,828.607345084603
2963.75,830.125665517602
2964,829.390980551706
2964.25,826.338206844912
2964.5,822.855023953659
2964.75,820.977531667676
2965,822.052656300934
2965.25,825.030032165249
2965.5,828.33836956006
2965.75,830.537284810132
2966,831.278746956469
2966.25,830.757845728455
2966.5,829.196747922366
2966.75,827.510853638514
2967,827.412250006219
2967.25,830.655152187111
2967.5,837.720711966076
2967.75,845.59068195429
2968,850.650788755281
2968.25,849.940956692018
2968.5,845.232237895909
2968.75,840.376242158865
2969,839.156205901474
2969.25,842.397128682139
2969.5,847.109363084053
2969.75,850.051232176411
2970,849.008790528504
2970.25,845.341431123771
2970.5,841.184664665789
2970.75,838.552324373779
2971,837.936975797913
2971.25,838.796524283899
2971.5,840.568587484164
2971.75,842.648708638483
2972,844.358536172391
2972.25,845.012226777712
2972.5,844.201019747187
2972.75,842.897171301865
2973,842.502347808597
2973.25,844.318081696492
2973.5,847.77822841682
2973.75,850.664302782927
2974,850.705397800428
2974.25,846.998933665203
2974.5,841.918538780575
2974.75,838.317941957986
2975,838.611515559754
2975.25,841.645961973644
2975.5,844.534289001147
2975.75,844.4485669233
2976,841.019885297789
2976.25,836.918091769099
2976.5,835.001135407524
2976.75,837.072522361226
2977,841.183323255424
2977.25,844.550249163813
2977.5,844.698515675789
2977.75,842.348733527428
2978,840.111419941601
2978.25,840.589794700658
2978.5,844.260285043809
2978.75,848.174644537191
2979,849.074527544624
2979.25,844.75675732806
2979.5,837.790248013571
2979.75,832.092337441402
2980,831.350129454472
2980.25,835.246217823907
2980.5,840.067429263864
2980.75,842.009130396151
2981,839.437452112706
2981.25,835.06213519093
2981.5,832.110264455535
2981.75,833.143626266157
2982,836.792946154635
2982.25,840.250285622335
2982.5,840.84670082977
2982.75,838.584859945927
2983,835.854087239153
2983.25,835.122690191479
2983.5,837.470925954516
2983.75,840.695676280725
2984,842.119148875345
2984.25,839.631146341498
2984.5,834.825229037282
2984.75,830.780572364507
2985,830.470488670033
2985.25,833.965487637495
2985.5,838.207459802431
2985.75,839.986914351192
2986,837.714547349733
2986.25,833.950537521416
2986.5,831.909977927278
2986.75,834.282010252667
2987,839.75873839928
2987.25,845.196844047744
2987.5,847.538039422672
2987.75,846.327368559627
2988,843.974382557462
2988.25,843.035333078792
2988.5,845.032370048554
2988.75,848.184372579453
2989,850.052054099495
2989.25,848.500752549806
2989.5,844.503327929733
2989.75,840.849076298501
2990,840.322304972696
2990.25,843.61352133848
2990.5,847.896899200225
2990.75,850.010087045678
2991,847.703142655318
2991.25,843.05164721211
2991.5,839.41170247889
2991.75,839.967714284511
2992,844.654481993811
2992.25,850.505948791987
2992.5,854.460200242007
2992.75,854.955762456588
2993,853.898350203201
2993.25,853.681910103875
2993.5,856.307132907646
2993.75,860.587304606809
2994,863.789230356231
2994.25,863.213824243264
2994.5,858.440343693666
2994.75,852.376396064141
2995,848.193411367657
2995.25,848.35604152432
2995.5,851.501457573385
2995.75,854.97719789714
2996,856.229559475373
2996.25,854.918783769538
2996.5,852.875449736708
2996.75,852.020826056835
2997,853.562459604472
2997.25,856.48289928142
2997.5,859.332338173245
2997.75,860.794023027302
2998,861.048441027078
2998.25,861.21904052607
2998.5,862.437630008965
2998.75,864.945852723764
2999,867.187090820918
2999.25,867.38808664589
2999.5,864.154808700211
2999.75,859.009053046787
3000,854.825108855828
3000.25,854.45118347659
3000.5,858.513924981723
3000.75,864.069158138142
3001,867.850150986469
3001.25,867.358064477658
3001.5,864.199776710212
3001.75,861.348702420735
3002,861.704415369477
3002.25,865.739773158774
3002.5,871.027764150742
3002.75,874.971036352891
3003,875.683806791639
3003.25,874.232362858438
3003.5,872.448433816367
3003.75,872.099104775118
3004,873.376319260775
3004.25,874.846206234126
3004.5,875.000111392268
3004.75,872.856505324512
3005,869.543057930659
3005.25,866.714913931631
3005.5,865.962131228594
3005.75,867.377181337879
3006,869.554621800577
3006.25,871.023881779123
3006.5,870.887946629594
3006.75,870.309834589362
3007,870.914891713512
3007.25,874.217379218475
3007.5,879.706679720389
3007.75,885.104205846088
3008,888.072157205402
3008.25,887.160842090765
3008.5,883.85479797467
3008.75,880.243704658329
3009,878.341191494988
3009.25,878.506658166003
3009.5,879.496355855175
3009.75,880.000704684089
3010,879.079712840427
3010.25,877.289363660755
3010.5,875.564092381797
3010.75,874.805000095838
3011,875.052984858938
3011.25,875.433338086375
3011.5,875.02692276995
3011.75,873.308655087992
3012,871.446850213414
3012.25,871.064615400049
3012.5,873.705941462839
3012.75,878.873573813509
3013,883.897844249613
3013.25,886.003696804774
3013.5,883.343299688091
3013.75,877.911870109739
3014,872.700129839844
3014.25,870.619687519112
3014.5,872.179444251883
3014.75,875.10862710792
3015,876.981452801076
3015.25,876.0301399793
3015.5,873.452936015324
3015.75,871.283433295187
3016,871.491524971914
3016.25,874.191195423264
3016.5,877.39408277254
3016.75,878.998551291699
3017,877.624670746534
3017.25,875.067864423373
3017.5,873.996593494625
3017.75,876.978368723217
3018,883.641698296574
3018.25,890.286297087982
3018.5,893.032566766705
3018.75,889.164102669983
3019,881.333803292688
3019.25,873.742780708973
3019.5,870.522546477615
3019.75,872.749704546938
3020,877.321406443275
3020.25,880.833199111242
3020.5,880.570656650291
3020.75,877.59313768404
3021,874.243599392786
3021.25,872.830960403257
3021.5,874.047517321462
3021.75,876.326903868995
3022,877.934721721805
3022.25,877.534467590753
3022.5,876.074730030528
3022.75,875.318291814125
3023,876.994094178475
3023.25,881.18557925327
3023.5,885.653043553215
3023.75,887.981342406903
3024,886.267004538627
3024.25,881.693226515018
3024.5,876.594936731805
3024.75,873.288460339471
3025,872.648166034366
3025.25,873.1851420064
3025.5,873.191418309449
3025.75,871.267251117464
3026,868.173727989016
3026.25,865.596412475428
3026.5,865.204472545673
3026.75,867.394544161295
3027,870.544012752406
3027.25,872.85097422346
3027.5,872.835583063283
3027.75,870.960167345681
3028,868.411516909708
3028.25,866.361367447233
3028.5,865.232231539619
3028.75,864.400437603895
3029,863.1645472137
3029.25,860.966025919643
3029.5,858.008417028977
3029.75,854.748275965365
3030,851.638175205117
3030.25,849.010122329148
3030.5,847.059703534573
3030.75,845.97515764536
3031,845.768205243241
3031.25,845.825496572673
3031.5,845.395388547659
3031.75,843.814993170475
3032,841.491361616862
3032.25,839.540391834093
3032.5,839.080489384047
3032.75,840.272195810646
3033,841.54684520712
3033.25,841.154248707232
3033.5,837.861849081934
3033.75,833.065438130122
3034,828.992999237815
3034.25,827.747737825716
3034.5,829.198698287334
3034.75,831.288690824049
3035,831.906649540027
3035.25,830.116824325544
3035.5,827.298840771956
3035.75,825.102972975056
3036,824.788265214203
3036.25,825.603446019456
3036.5,826.153330839754
3036.75,825.146384230741
3037,822.746979291232
3037.25,820.191513578715
3037.5,818.730669701679
3037.75,818.873266142288
3038,819.913523732309
3038.25,821.033241484926
3038.5,821.560594096526
3038.75,821.347956757907
3039,820.365003916047
3039.25,818.638238897799
3039.5,816.683954581984
3039.75,815.268599649645
3040,815.126334533372
3040.25,816.092601982064
3040.5,817.038457482837
3040.75,816.791844951782
3041,814.9646744007
3041.25,812.855579153227
3041.5,811.982048136505
3041.75,813.419717199102
3042,816.159281350554
3042.25,818.577054398601
3042.5,819.214460152992
3042.75,818.336091383199
3043,817.231247615443
3043.25,817.169544355783
3043.5,818.275587808048
3043.75,819.26666882162
3044,818.775544582239
3044.25,816.228595920181
3044.5,813.07442555538
3044.75,811.079034722912
3045,811.611020079284
3045.25,813.73338658823
3045.5,815.67972819941
3045.75,815.818478094298
3046,814.307180014677
3046.25,812.565263371665
3046.5,812.017402153787
3046.75,813.091708893403
3047,814.812007051576
3047.25,816.096910385954
3047.5,816.299737258231
3047.75,815.988106699602
3048,815.940027975419
3048.25,816.783523118384
3048.5,818.221222821579
3048.75,819.603174596808
3049,820.310914184709
3049.25,820.220624743554
3049.5,819.596093764295
3049.75,818.712158188836
3050,817.890799782865
3050.25,817.531109284916
3050.5,818.039294415605
3050.75,819.583219125826
3051,821.47814543075
3051.25,822.848765205009
3051.5,822.962678311162
3051.75,822.269719786894
3052,821.803293269162
3052.25,822.56341582215
3052.5,824.569059267126
3052.75,826.787493927591
3053,828.13665038814
3053.25,828.131808900231
3053.5,827.676985900725
3053.75,827.873095028684
3054,829.513961550159
