2094,45.1519083969466
2094.25,45.0469662390808
2094.5,44.9420240812152
2094.75,44.8370819233494
2095,44.7321397654835
2095.25,44.6271976076179
2095.5,44.5222554497521
2095.75,44.4173132918865
2096,44.3123711340207
2096.25,44.2074289761548
2096.5,44.1024868182892
2096.75,43.9975446604234
2097,43.8926025025576
2097.25,43.787660344692
2097.5,43.6827181868261
2097.75,43.5777760289605
2098,43.4728338710947
2098.25,43.3678917132289
2098.5,43.2629495553632
2098.75,43.1580073974974
2099,43.3100889273624
2099.25,43.7798300149522
2099.5,44.2495711025421
2099.75,44.7193121901311
2100,45.1890532777209
2100.25,45.6587943653108
2100.5,46.1285354528998
2100.75,46.5982765404896
2101,47.0680176280786
2101.25,47.5377587156684
2101.5,48.0074998032583
2101.75,48.4772408908473
2102,48.9469819784371
2102.25,49.4167230660261
2102.5,49.886464153616
2102.75,50.3562052412058
2103,50.8259463287948
2103.25,51.2956874163846
2103.5,51.7654285039745
2103.75,52.2351695915635
2104,52.4651215865271
2104.25,52.3851656567247
2104.5,52.3052097269222
2104.75,52.2252537971197
2105,52.1452978673173
2105.25,52.0653419375148
2105.5,51.9853860077124
2105.75,51.9054300779098
2106,51.8254741481073
2106.25,51.7455182183049
2106.5,51.6655622885024
2106.75,51.5856063586999
2107,51.5056504288975
2107.25,51.425694499095
2107.5,51.3457385692926
2107.75,51.2657826394901
2108,51.1858267096875
2108.25,51.1058707798852
2108.5,51.0259148500826
2108.75,50.9459589202802
2109,50.8872511214291
2109.25,50.8572676477532
2109.5,50.8272841740773
2109.75,50.7973007004014
2110,50.7673172267254
2110.25,50.7373337530495
2110.5,50.7073502793736
2110.75,50.6773668056977
2111,50.6473833320217
2111.25,50.6173998583458
2111.5,50.5874163846699
2111.75,50.5574329109939
2112,50.527449437318
2112.25,50.4974659636421
2112.5,50.4674824899662
2112.75,50.4374990162903
2113,50.4075155426143
2113.25,50.3775320689384
2113.5,50.3475485952625
2113.75,50.3175651215865
2114,50.1716770284098
2114.25,49.861847800425
2114.5,49.5520185724402
2114.75,49.242189344456
2115,48.9323601164712
2115.25,48.6225308884864
2115.5,48.3127016605022
2115.75,48.0028724325174
2116,47.6930432045332
2116.25,47.3832139765484
2116.5,47.0733847485636
2116.75,46.7635555205794
2117,46.4537262925946
2117.25,46.1438970646104
2117.5,45.8340678366256
2117.75,45.5242386086408
2118,45.2144093806565
2118.25,44.9045801526718
2118.5,44.594750924687
2118.75,44.2849216967027
2119,44.0778389863854
2119.25,44.0228692846463
2119.5,43.9678995829071
2119.75,43.9129298811678
2120,43.8579601794287
2120.25,43.8029904776895
2120.5,43.7480207759503
2120.75,43.6930510742111
2121,43.6380813724718
2121.25,43.5831116707327
2121.5,43.5281419689935
2121.75,43.4731722672542
2122,43.4182025655151
2122.25,43.3632328637759
2122.5,43.3082631620367
2122.75,43.2532934602975
2123,43.1983237585582
2123.25,43.1433540568191
2123.5,43.0883843550799
2123.75,43.0334146533407
2124,42.9764854017471
2124.25,42.9165184543952
2124.5,42.8565515070434
2124.75,42.7965845596915
2125,42.7366176123396
2125.25,42.6766506649878
2125.5,42.6166837176359
2125.75,42.5567167702841
2126,42.4967498229323
2126.25,42.4367828755804
2126.5,42.3768159282286
2126.75,42.3168489808767
2127,42.2568820335249
2127.25,42.196915086173
2127.5,42.1369481388211
2127.75,42.0769811914693
2128,42.0170142441174
2128.25,41.9570472967655
2128.5,41.8970803494137
2128.75,41.8371134020618
2129,41.7523884473126
2129.25,41.6274573069962
2129.5,41.5025261666797
2129.75,41.3775950263635
2130,41.252663886047
2130.25,41.1277327457308
2130.5,41.0028016054144
2130.75,40.8778704650979
2131,40.7529393247817
2131.25,40.6280081844653
2131.5,40.5030770441488
2131.75,40.3781459038326
2132,40.2532147635161
2132.25,40.1282836231999
2132.5,40.0033524828835
2132.75,39.878421342567
2133,39.7534902022508
2133.25,39.6285590619344
2133.5,39.5036279216181
2133.75,39.3786967813017
2134,39.2944518769182
2134.25,39.2794601400803
2134.5,39.2644684032423
2134.75,39.2494766664043
2135,39.2344849295664
2135.25,39.2194931927284
2135.5,39.2045014558905
2135.75,39.1895097190525
2136,39.1745179822145
2136.25,39.1595262453766
2136.5,39.1445345085386
2136.75,39.1295427717006
2137,39.1145510348627
2137.25,39.0995592980247
2137.5,39.0845675611868
2137.75,39.0695758243488
2138,39.0545840875108
2138.25,39.0395923506729
2138.5,39.0246006138349
2138.75,39.0096088769969
2139,39.0017942866137
2139.25,39.0067915322263
2139.5,39.011788777839
2139.75,39.0167860234516
2140,39.0217832690643
2140.25,39.026780514677
2140.5,39.0317777602896
2140.75,39.0367750059023
2141,39.0417722515149
2141.25,39.0467694971276
2141.5,39.0517667427402
2141.75,39.0567639883529
2142,39.0617612339655
2142.25,39.0667584795782
2142.5,39.0717557251908
2142.75,39.0767529708035
2143,39.0817502164161
2143.25,39.0867474620288
2143.5,39.0917447076415
2143.75,39.0967419532541
2144,39.0895648067994
2144.25,39.0595813331235
2144.5,39.0295978594475
2144.75,38.9996143857716
2145,38.9696309120957
2145.25,38.9396474384198
2145.5,38.9096639647438
2145.75,38.8796804910679
2146,38.849697017392
2146.25,38.8197135437161
2146.5,38.7897300700401
2146.75,38.7597465963642
2147,38.7297631226883
2147.25,38.6997796490124
2147.5,38.6697961753364
2147.75,38.6398127016605
2148,38.6098292279846
2148.25,38.5798457543086
2148.5,38.5498622806328
2148.75,38.5198788069568
2149,38.5218934445581
2149.25,38.5868576375226
2149.5,38.6518218304871
2149.75,38.7167860234517
2150,38.7817502164161
2150.25,38.8467144093807
2150.5,38.9116786023451
2150.75,38.9766427953097
2151,39.0416069882742
2151.25,39.1065711812387
2151.5,39.1715353742032
2151.75,39.2364995671676
2152,39.3014637601322
2152.25,39.3664279530967
2152.5,39.4313921460612
2152.75,39.4963563390257
2153,39.5613205319903
2153.25,39.6262847249547
2153.5,39.6912489179193
2153.75,39.7562131108837
2154,39.9042574958684
2154.25,40.2240812150785
2154.5,40.543904934288
2154.75,40.8637286534981
2155,41.1835523727076
2155.25,41.5033760919177
2155.5,41.8231998111279
2155.75,42.1430235303374
2156,42.4628472495475
2156.25,42.7826709687576
2156.5,43.1024946879671
2156.75,43.4223184071772
2157,43.7421421263868
2157.25,44.0619658455969
2157.5,44.381789564807
2157.75,44.7016132840165
2158,45.0214370032266
2158.25,45.3412607224361
2158.5,45.6610844416462
2158.75,45.9809081608563
2159,46.201573935626
2159.25,46.2065711812387
2159.5,46.2115684268514
2159.75,46.216565672464
2160,46.2215629180767
2160.25,46.2265601636893
2160.5,46.231557409302
2160.75,46.2365546549146
2161,46.2415519005273
2161.25,46.2465491461399
2161.5,46.2515463917526
2161.75,46.2565436373652
2162,46.2615408829779
2162.25,46.2665381285905
2162.5,46.2715353742032
2162.75,46.2765326198159
2163,46.2815298654285
2163.25,46.2865271110412
2163.5,46.2915243566538
2163.75,46.2965216022665
2164,46.275698433934
2164.25,46.1957425041316
2164.5,46.1157865743291
2164.75,46.0358306445267
2165,45.9558747147242
2165.25,45.8759187849217
2165.5,45.7959628551193
2165.75,45.7160069253168
2166,45.6360509955142
2166.25,45.5560950657119
2166.5,45.4761391359093
2166.75,45.3961832061069
2167,45.3162272763044
2167.25,45.2362713465019
2167.5,45.1563154166995
2167.75,45.076359486897
2168,44.9964035570946
2168.25,44.9164476272921
2168.5,44.8364916974895
2168.75,44.7565357676872
2169,44.6780435980168
2169.25,44.603084913827
2169.5,44.5281262296373
2169.75,44.4531675454474
2170,44.3782088612576
2170.25,44.3032501770678
2170.5,44.2282914928779
2170.75,44.1533328086882
2171,44.0783741244983
2171.25,44.0034154403084
2171.5,43.9284567561187
2171.75,43.8534980719288
2172,43.7785393877391
2172.25,43.7035807035492
2172.5,43.6286220193594
2172.75,43.5536633351696
2173,43.4787046509798
2173.25,43.40374596679
2173.5,43.3287872826002
2173.75,43.2538285984103
2174,43.1887306209176
2174.25,43.1487526560164
2174.5,43.1087746911151
2174.75,43.0687967262139
2175,43.0288187613127
2175.25,42.9888407964115
2175.5,42.9488628315102
2175.75,42.9088848666089
2176,42.8689069017077
2176.25,42.8289289368065
2176.5,42.7889509719053
2176.75,42.748973007004
2177,42.7089950421028
2177.25,42.6690170772016
2177.5,42.6290391123003
2177.75,42.589061147399
2178,42.5490831824979
2178.25,42.5091052175966
2178.5,42.4691272526954
2178.75,42.4291492877941
2179,42.4135358463839
2179.25,42.4635083025104
2179.5,42.513480758637
2179.75,42.5634532147635
2180,42.61342567089
2180.25,42.6633981270166
2180.5,42.7133705831431
2180.75,42.7633430392697
2181,42.8133154953963
2181.25,42.8632879515228
2181.5,42.9132604076493
2181.75,42.9632328637758
2182,43.0132053199024
2182.25,43.063177776029
2182.5,43.1131502321555
2182.75,43.1631226882821
2183,43.2130951444085
2183.25,43.2630676005351
2183.5,43.3130400566617
2183.75,43.3630125127882
2184,43.3935075155426
2184.25,43.3685212874793
2184.5,43.3435350594161
2184.75,43.3185488313528
2185,43.2935626032895
2185.25,43.2685763752263
2185.5,43.243590147163
2185.75,43.2186039190997
2186,43.1936176910364
2186.25,43.1686314629732
2186.5,43.1436452349099
2186.75,43.1186590068466
2187,43.0936727787834
2187.25,43.0686865507201
2187.5,43.0437003226568
2187.75,43.0187140945935
2188,42.9937278665303
2188.25,42.968741638467
2188.5,42.9437554104037
2188.75,42.9187691823404
2189,42.9285984103249
2189.25,43.0435350594161
2189.5,43.158471708507
2189.75,43.2734083575981
2190,43.3883450066893
2190.25,43.5032816557802
2190.5,43.6182183048713
2190.75,43.7331549539625
2191,43.8480916030534
2191.25,43.9630282521445
2191.5,44.0779649012354
2191.75,44.1929015503266
2192,44.3078381994177
2192.25,44.4227748485086
2192.5,44.5377114975998
2192.75,44.6526481466907
2193,44.7675847957818
2193.25,44.882521444873
2193.5,44.9974580939639
2193.75,45.112394743055
2194,45.1940583930117
2194.25,45.1690721649485
2194.5,45.1440859368852
2194.75,45.1190997088219
2195,45.0941134807586
2195.25,45.0691272526954
2195.5,45.0441410246321
2195.75,45.0191547965688
2196,44.9941685685056
2196.25,44.9691823404423
2196.5,44.944196112379
2196.75,44.9192098843158
2197,44.8942236562525
2197.25,44.8692374281892
2197.5,44.8442512001259
2197.75,44.8192649720626
2198,44.7942787439994
2198.25,44.7692925159361
2198.5,44.7443062878728
2198.75,44.7193200598096
2199,44.6988667663493
2199.25,44.6938695207366
2199.5,44.6888722751239
2199.75,44.6838750295113
2200,44.6788777838986
2200.25,44.673880538286
2200.5,44.6688832926733
2200.75,44.6638860470607
2201,44.658888801448
2201.25,44.6538915558354
2201.5,44.6488943102227
2201.75,44.6438970646101
2202,44.6388998189974
2202.25,44.6339025733848
2202.5,44.6289053277721
2202.75,44.6239080821594
2203,44.6189108365468
2203.25,44.6139135909341
2203.5,44.6089163453215
2203.75,44.6039190997088
2204,44.6355788148264
2204.25,44.8004879200441
2204.5,44.9653970252615
2204.75,45.1303061304792
2205,45.2952152356969
2205.25,45.4601243409143
2205.5,45.6250334461321
2205.75,45.7899425513498
2206,45.9548516565672
2206.25,46.1197607617849
2206.5,46.2846698670023
2206.75,46.44957897222
2207,46.6144880774377
2207.25,46.7793971826551
2207.5,46.9443062878728
2207.75,47.1092153930903
2208,47.274124498308
2208.25,47.4390336035257
2208.5,47.6039427087431
2208.75,47.7688518139608
2209,47.859077673723
2209.25,47.659187849217
2209.5,47.4592980247107
2209.75,47.2594082002048
2210,47.0595183756985
2210.25,46.8596285511921
2210.5,46.6597387266862
2210.75,46.4598489021799
2211,46.2599590776739
2211.25,46.0600692531676
2211.5,45.8601794286613
2211.75,45.6602896041553
2212,45.460399779649
2212.25,45.2605099551427
2212.5,45.0606201306367
2212.75,44.8607303061304
2213,44.6608404816245
2213.25,44.4609506571182
2213.5,44.2610608326118
2213.75,44.0611710081059
2214,43.8748327693397
2214.25,43.7449043834108
2214.5,43.6149759974817
2214.75,43.4850476115526
2215,43.3551192256238
2215.25,43.2251908396947
2215.5,43.0952624537656
2215.75,42.9653340678367
2216,42.8354056819076
2216.25,42.7054772959787
2216.5,42.5755489100496
2216.75,42.4456205241205
2217,42.3156921381916
2217.25,42.1857637522625
2217.5,42.0558353663336
2217.75,41.9259069804045
2218,41.7959785944754
2218.25,41.6660502085466
2218.5,41.5361218226175
2218.75,41.4061934366884
2219,41.2945227040214
2219.25,41.2645392303455
2219.5,41.2345557566696
2219.75,41.2045722829936
2220,41.1745888093177
2220.25,41.1446053356418
2220.5,41.1146218619658
2220.75,41.0846383882899
2221,41.054654914614
2221.25,41.0246714409381
2221.5,40.9946879672622
2221.75,40.9647044935862
2222,40.9347210199103
2222.25,40.9047375462344
2222.5,40.8747540725584
2222.75,40.8447705988825
2223,40.8147871252066
2223.25,40.7848036515306
2223.5,40.7548201778547
2223.75,40.7248367041788
2224,40.6948532305029
2224.25,40.664869756827
2224.5,40.634886283151
2224.75,40.6049028094751
2225,40.5749193357992
2225.25,40.5449358621232
2225.5,40.5149523884473
2225.75,40.4849689147714
2226,40.4549854410955
2226.25,40.4250019674195
2226.5,40.3950184937436
2226.75,40.3650350200677
2227,40.3350515463918
2227.25,40.3050680727159
2227.5,40.2750845990399
2227.75,40.245101125364
2228,40.2151176516881
2228.25,40.1851341780121
2228.5,40.1551507043362
2228.75,40.1251672306603
2229,40.1200676792319
2229.25,40.2449988195482
2229.5,40.3699299598646
2229.75,40.4948611001811
2230,40.6197922404973
2230.25,40.7447233808137
2230.5,40.8696545211302
2230.75,40.9945856614464
2231,41.1195168017628
2231.25,41.2444479420791
2231.5,41.3693790823955
2231.75,41.494310222712
2232,41.6192413630282
2232.25,41.7441725033446
2232.5,41.8691036436609
2232.75,41.9940347839773
2233,42.1189659242938
2233.25,42.24389706461
2233.5,42.3688282049264
2233.75,42.4937593452429
2234,42.64111906823
2234.25,42.9159675769262
2234.5,43.1908160856219
2234.75,43.4656645943181
2235,43.7405131030142
2235.25,44.0153616117099
2235.5,44.2902101204061
2235.75,44.5650586291018
2236,44.839907137798
2236.25,45.1147556464942
2236.5,45.3896041551899
2236.75,45.6644526638861
2237,45.9393011725822
2237.25,46.2141496812779
2237.5,46.4889981899741
2237.75,46.7638466986698
2238,47.038695207366
2238.25,47.3135437160622
2238.5,47.5883922247579
2238.75,47.863240733454
2239,48.0916896198946
2239.25,48.0317226725427
2239.5,47.9717557251908
2239.75,47.911788777839
2240,47.8518218304871
2240.25,47.7918548831352
2240.5,47.7318879357835
2240.75,47.6719209884316
2241,47.6119540410798
2241.25,47.5519870937279
2241.5,47.492020146376
2241.75,47.4320531990242
2242,47.3720862516723
2242.25,47.3121193043205
2242.5,47.2521523569686
2242.75,47.1921854096167
2243,47.1322184622649
2243.25,47.072251514913
2243.5,47.0122845675611
2243.75,46.9523176202094
2244,46.8776894625009
2244.25,46.7027858660582
2244.5,46.5278822696152
2244.75,46.3529786731722
2245,46.1780750767295
2245.25,46.0031714802864
2245.5,45.8282678838437
2245.75,45.6533642874007
2246,45.4784606909577
2246.25,45.303557094515
2246.5,45.1286534980719
2246.75,44.9537499016289
2247,44.7788463051862
2247.25,44.6039427087432
2247.5,44.4290391123005
2247.75,44.2541355158574
2248,44.0792319194144
2248.25,43.9043283229717
2248.5,43.7294247265287
2248.75,43.554521130086
2249,43.3767057527348
2249.25,43.1768159282285
2249.5,42.9769261037225
2249.75,42.7770362792162
2250,42.5771464547099
2250.25,42.3772566302039
2250.5,42.1773668056976
2250.75,41.9774769811917
2251,41.7775871566853
2251.25,41.577697332179
2251.5,41.3778075076731
2251.75,41.1779176831667
2252,40.9780278586608
2252.25,40.7781380341545
2252.5,40.5782482096482
2252.75,40.3783583851422
2253,40.1784685606359
2253.25,39.9785787361296
2253.5,39.7786889116236
2253.75,39.5787990871173
2254,39.4015818053041
2254.25,39.4165735421421
2254.5,39.4315652789801
2254.75,39.446557015818
2255,39.461548752656
2255.25,39.476540489494
2255.5,39.4915322263319
2255.75,39.5065239631699
2256,39.5215157000079
2256.25,39.5365074368458
2256.5,39.5514991736838
2256.75,39.5664909105218
2257,39.5814826473597
2257.25,39.5964743841977
2257.5,39.6114661210356
2257.75,39.6264578578736
2258,39.6414495947116
2258.25,39.6564413315495
2258.5,39.6714330683875
2258.75,39.6864248052255
2259,39.690084205556
2259.25,39.5851420476903
2259.5,39.4801998898245
2259.75,39.3752577319587
2260,39.2703155740931
2260.25,39.1653734162273
2260.5,39.0604312583616
2260.75,38.9554891004958
2261,38.85054694263
2261.25,38.7456047847644
2261.5,38.6406626268986
2261.75,38.5357204690327
2262,38.4307783111671
2262.25,38.3258361533013
2262.5,38.2208939954357
2262.75,38.1159518375699
2263,38.011009679704
2263.25,37.9060675218384
2263.5,37.8011253639726
2263.75,37.696183206107
2264,37.6058393011726
2264.25,37.6758007397498
2264.5,37.7457621783269
2264.75,37.8157236169041
2265,37.8856850554813
2265.25,37.9556464940584
2265.5,38.0256079326356
2265.75,38.0955693712127
2266,38.1655308097899
2266.25,38.2354922483671
2266.5,38.3054536869442
2266.75,38.3754151255214
2267,38.4453765640985
2267.25,38.5153380026757
2267.5,38.5852994412529
2267.75,38.65526087983
2268,38.7252223184072
2268.25,38.7951837569844
2268.5,38.8651451955615
2268.75,38.9351066341387
2269,39.0039820571338
2269.25,39.0589517588731
2269.5,39.1139214606123
2269.75,39.1688911623514
2270,39.2238608640907
2270.25,39.2788305658298
2270.5,39.333800267569
2270.75,39.3887699693083
2271,39.4437396710474
2271.25,39.4987093727866
2271.5,39.5536790745259
2271.75,39.608648776265
2272,39.6636184780043
2272.25,39.7185881797434
2272.5,39.7735578814826
2272.75,39.8285275832219
2273,39.883497284961
2273.25,39.9384669867002
2273.5,39.9934366884394
2273.75,40.0484063901786
2274,40.0957031557409
2274.25,40.0257417171638
2274.5,39.9557802785866
2274.75,39.8858188400094
2275,39.8158574014323
2275.25,39.7458959628551
2275.5,39.675934524278
2275.75,39.6059730857008
2276,39.5360116471236
2276.25,39.4660502085465
2276.5,39.3960887699693
2276.75,39.3261273313922
2277,39.256165892815
2277.25,39.1862044542378
2277.5,39.1162430156607
2277.75,39.0462815770835
2278,38.9763201385063
2278.25,38.9063586999292
2278.5,38.836397261352
2278.75,38.7664358227749
2279,38.7042811049028
2279.25,38.789234280318
2279.5,38.874187455733
2279.75,38.9591406311482
2280,39.0440938065632
2280.25,39.1290469819784
2280.5,39.2140001573936
2280.75,39.2989533328086
2281,39.3839065082238
2281.25,39.468859683639
2281.5,39.553812859054
2281.75,39.6387660344692
2282,39.7237192098842
2282.25,39.8086723852994
2282.5,39.8936255607146
2282.75,39.9785787361296
2283,40.0635319115448
2283.25,40.1484850869599
2283.5,40.233438262375
2283.75,40.3183914377902
2284,40.4021641614858
2284.25,40.457133863225
2284.5,40.5121035649642
2284.75,40.5670732667034
2285,40.6220429684426
2285.25,40.6770126701817
2285.5,40.731982371921
2285.75,40.7869520736602
2286,40.8419217753993
2286.25,40.8968914771386
2286.5,40.9518611788777
2286.75,41.006830880617
2287,41.0618005823562
2287.25,41.1167702840953
2287.5,41.1717399858346
2287.75,41.2267096875738
2288,41.2816793893129
2288.25,41.3366490910522
2288.5,41.3916187927913
2288.75,41.4465884945306
2289,41.4981584953175
2289.25,41.4331943023531
2289.5,41.3682301093885
2289.75,41.3032659164241
2290,41.2383017234595
2290.25,41.173337530495
2290.5,41.1083733375306
2290.75,41.043409144566
2291,40.9784449516014
2291.25,40.913480758637
2291.5,40.8485165656725
2291.75,40.783552372708
2292,40.7185881797435
2292.25,40.6536239867789
2292.5,40.5886597938145
2292.75,40.5236956008499
2293,40.4587314078854
2293.25,40.3937672149209
2293.5,40.3288030219564
2293.75,40.263838828992
2294,40.1991343354057
2294.25,40.1491618792791
2294.5,40.0991894231526
2294.75,40.049216967026
2295,39.9992445108996
2295.25,39.949272054773
2295.5,39.8992995986464
2295.75,39.8493271425199
2296,39.7993546863933
2296.25,39.7493822302667
2296.5,39.6994097741403
2296.75,39.6494373180137
2297,39.5994648618872
2297.25,39.5494924057606
2297.5,39.499519949634
2297.75,39.4495474935075
2298,39.399575037381
2298.25,39.3496025812545
2298.5,39.2996301251279
2298.75,39.2496576690013
2299,39.2005036594003
2299.25,39.2804595892028
2299.5,39.3604155190053
2299.75,39.4403714488077
2300,39.5203273786102
2300.25,39.6002833084126
2300.5,39.6802392382151
2300.75,39.7601951680177
2301,39.8401510978201
2301.25,39.9201070276226
2301.5,40.000062957425
2301.75,40.0800188872275
2302,40.15997481703
2302.25,40.2399307468324
2302.5,40.3198866766349
2302.75,40.3998426064375
2303,40.4797985362398
2303.25,40.5597544660424
2303.5,40.6397103958447
2303.75,40.7196663256473
2304,40.7996222554498
2304.25,40.8
2304.5,40.8
2304.75,40.8
2305,40.8
2305.25,40.8
2305.5,40.8
2305.75,40.8
2306,40.8
2306.25,40.8
2306.5,40.8
2306.75,40.8
2307,40.8
2307.25,40.8
2307.5,40.8
2307.75,40.8
2308,40.8
2308.25,40.8
2308.5,40.8
2308.75,40.8
2309,40.8
2309.25,40.8590225859763
2309.5,40.9189895333281
2309.75,40.97895648068
2310,41.0389234280317
2310.25,41.0988903753836
2310.5,41.1588573227355
2310.75,41.2188242700873
2311,41.2787912174392
2311.25,41.338758164791
2311.5,41.3987251121429
2311.75,41.4586920594948
2312,41.5186590068466
2312.25,41.5786259541985
2312.5,41.6385929015504
2312.75,41.6985598489022
2313,41.758526796254
2313.25,41.8184937436058
2313.5,41.8784606909577
2313.75,41.9384276383096
2314,41.9983945856614
2314.25,41.9270480837334
2314.5,41.8520893995436
2314.75,41.7771307153538
2315,41.7021720311639
2315.25,41.6272133469742
2315.5,41.5522546627843
2315.75,41.4772959785944
2316,41.4023372944047
2316.25,41.3273786102148
2316.5,41.2524199260251
2316.75,41.1774612418352
2317,41.1025025576454
2317.25,41.0275438734556
2317.5,40.9525851892658
2317.75,40.877626505076
2318,40.8026678208862
2318.25,40.7277091366963
2318.5,40.6527504525066
2318.75,40.5777917683167
2319,40.5028330841268
2319.25,40.6250177067757
2319.5,40.7549460927048
2319.75,40.8848744786337
2320,41.0148028645628
2320.25,41.1447312504919
2320.5,41.2746596364208
2320.75,41.4045880223499
2321,41.534516408279
2321.25,41.6644447942079
2321.5,41.794373180137
2321.75,41.9243015660658
2322,42.0542299519949
2322.25,42.1841583379241
2322.5,42.3140867238529
2322.75,42.444015109782
2323,42.5739434957109
2323.25,42.70387188164
2323.5,42.8338002675691
2323.75,42.963728653498
2324,43.0936570394271
2324.25,43.0572204296844
2324.5,43.0122452191706
2324.75,42.9672700086566
2325,42.9222947981428
2325.25,42.8773195876289
2325.5,42.832344377115
2325.75,42.7873691666011
2326,42.7423939560872
2326.25,42.6974187455734
2326.5,42.6524435350594
2326.75,42.6074683245455
2327,42.5624931140317
2327.25,42.5175179035177
2327.5,42.4725426930038
2327.75,42.42756748249
2328,42.3825922719761
2328.25,42.3376170614622
2328.5,42.2926418509483
2328.75,42.2476666404344
2329,42.2026914299205
2329.25,42.1107342409695
2329.5,42.0157865743292
2329.75,41.9208389076887
2330,41.8258912410482
2330.25,41.7309435744079
2330.5,41.6359959077674
2330.75,41.5410482411269
2331,41.4461005744865
2331.25,41.351152907846
2331.5,41.2562052412057
2331.75,41.1612575745652
2332,41.0663099079247
2332.25,40.9713622412844
2332.5,40.8764145746439
2332.75,40.7814669080036
2333,40.6865192413631
2333.25,40.5915715747226
2333.5,40.4966239080822
2333.75,40.4016762414417
2334,40.3067285748012
2334.25,40.3185724403872
2334.5,40.3385614228378
2334.75,40.3585504052884
2335,40.378539387739
2335.25,40.3985283701897
2335.5,40.4185173526403
2335.75,40.4385063350909
2336,40.4584953175415
2336.25,40.4784842999921
2336.5,40.4984732824428
2336.75,40.5184622648934
2337,40.538451247344
2337.25,40.5584402297946
2337.5,40.5784292122452
2337.75,40.5984181946958
2338,40.6184071771464
2338.25,40.6383961595971
2338.5,40.6583851420477
2338.75,40.6783741244983
2339,40.6983631069489
2339.25,40.8192885810969
2339.5,40.949216967026
2339.75,41.0791453529551
2340,41.209073738884
2340.25,41.3390021248131
2340.5,41.4689305107422
2340.75,41.5988588966711
2341,41.7287872826002
2341.25,41.858715668529
2341.5,41.9886440544581
2341.75,42.1185724403873
2342,42.2485008263161
2342.25,42.3784292122452
2342.5,42.5083575981741
2342.75,42.6382859841032
2343,42.7682143700323
2343.25,42.8981427559612
2343.5,43.0280711418903
2343.75,43.1579995278194
2344,43.2879279137483
2344.25,43.4359880380893
2344.5,43.5859054064687
2344.75,43.7358227748485
2345,43.8857401432282
2345.25,44.0356575116077
2345.5,44.1855748799874
2345.75,44.3354922483669
2346,44.4854096167466
2346.25,44.6353269851264
2346.5,44.7852443535058
2346.75,44.9351617218856
2347,45.0850790902653
2347.25,45.2349964586448
2347.5,45.3849138270245
2347.75,45.534831195404
2348,45.6847485637837
2348.25,45.8346659321634
2348.5,45.9845833005429
2348.75,46.1345006689226
2349,46.2844180373021
2349.25,46.2149209097348
2349.5,46.1199732430943
2349.75,46.025025576454
2350,45.9300779098135
2350.25,45.835130243173
2350.5,45.7401825765327
2350.75,45.6452349098922
2351,45.5502872432518
2351.25,45.4553395766113
2351.5,45.3603919099708
2351.75,45.2654442433305
2352,45.17049657669
2352.25,45.0755489100495
2352.5,44.9806012434092
2352.75,44.8856535767687
2353,44.7907059101284
2353.25,44.6957582434879
2353.5,44.6008105768474
2353.75,44.505862910207
2354,44.4109152435665
2354.25,44.3336586133628
2354.5,44.2586999291729
2354.75,44.183741244983
2355,44.1087825607933
2355.25,44.0338238766034
2355.5,43.9588651924136
2355.75,43.8839065082238
2356,43.808947824034
2356.25,43.7339891398442
2356.5,43.6590304556544
2356.75,43.5840717714645
2357,43.5091130872748
2357.25,43.4341544030849
2357.5,43.3591957188952
2357.75,43.2842370347053
2358,43.2092783505154
2358.25,43.1343196663257
2358.5,43.0593609821358
2358.75,42.984402297946
2359,42.9094436137562
2359.25,42.9305736995357
2359.5,42.9655544188242
2359.75,43.0005351381128
2360,43.0355158574015
2360.25,43.07049657669
2360.5,43.1054772959786
2360.75,43.1404580152671
2361,43.1754387345557
2361.25,43.2104194538444
2361.5,43.2454001731329
2361.75,43.2803808924215
2362,43.3153616117101
2362.25,43.3503423309987
2362.5,43.3853230502873
2362.75,43.4203037695758
2363,43.4552844888644
2363.25,43.490265208153
2363.5,43.5252459274415
2363.75,43.5602266467302
2364,43.5952073660187
2364.25,43.7035020067679
2364.5,43.8234359014717
2364.75,43.9433697961752
2365,44.063303690879
2365.25,44.1832375855828
2365.5,44.3031714802864
2365.75,44.4231053749902
2366,44.5430392696938
2366.25,44.6629731643976
2366.5,44.7829070591013
2366.75,44.9028409538049
2367,45.0227748485087
2367.25,45.1427087432123
2367.5,45.2626426379161
2367.75,45.3825765326199
2368,45.5025104273234
2368.25,45.6224443220272
2368.5,45.742378216731
2368.75,45.8623121114346
2369,45.9822460061384
2369.25,45.9063350908949
2369.5,45.7963956874164
2369.75,45.6864562839379
2370,45.5765168804597
2370.25,45.4665774769812
2370.5,45.3566380735029
2370.75,45.2466986700244
2371,45.136759266546
2371.25,45.0268198630677
2371.5,44.9168804595892
2371.75,44.8069410561107
2372,44.6970016526325
2372.25,44.587062249154
2372.5,44.4771228456757
2372.75,44.3671834421972
2373,44.2572440387188
2373.25,44.1473046352405
2373.5,44.037365231762
2373.75,43.9274258282837
2374,43.8174864248053
2374.25,43.8126072243645
2374.5,43.8275989612025
2374.75,43.8425906980404
2375,43.8575824348784
2375.25,43.8725741717164
2375.5,43.8875659085543
2375.75,43.9025576453923
2376,43.9175493822303
2376.25,43.9325411190682
2376.5,43.9475328559062
2376.75,43.9625245927442
2377,43.9775163295821
2377.25,43.9925080664201
2377.5,44.0074998032581
2377.75,44.022491540096
2378,44.037483276934
2378.25,44.0524750137719
2378.5,44.0674667506099
2378.75,44.0824584874479
2379,44.0974502242858
2379.25,43.8967813016448
2379.5,43.6519162666246
2379.75,43.4070512316048
2380,43.1621861965846
2380.25,42.9173211615643
2380.5,42.6724561265445
2380.75,42.4275910915243
2381,42.1827260565045
2381.25,41.9378610214843
2381.5,41.692995986464
2381.75,41.4481309514442
2382,41.203265916424
2382.25,40.9584008814042
2382.5,40.7135358463839
2382.75,40.4686708113637
2383,40.2238057763439
2383.25,39.9789407413237
2383.5,39.7340757063034
2383.75,39.4892106712837
2384,39.2443456362634
2384.25,39.2
2384.5,39.2
2384.75,39.2
2385,39.2
2385.25,39.2
2385.5,39.2
2385.75,39.2
2386,39.2
2386.25,39.2
2386.5,39.2
2386.75,39.2
2387,39.2
2387.25,39.2
2387.5,39.2
2387.75,39.2
2388,39.2
2388.25,39.2
2388.5,39.2
2388.75,39.2
2389,39.2
2389.25,39.2040371448808
2389.5,39.2090343904934
2389.75,39.2140316361061
2390,39.2190288817187
2390.25,39.2240261273314
2390.5,39.229023372944
2390.75,39.2340206185567
2391,39.2390178641694
2391.25,39.244015109782
2391.5,39.2490123553947
2391.75,39.2540096010073
2392,39.25900684662
2392.25,39.2640040922326
2392.5,39.2690013378453
2392.75,39.2739985834579
2393,39.2789958290706
2393.25,39.2839930746832
2393.5,39.2889903202959
2393.75,39.2939875659086
2394,39.2989848115212
2394.25,39.4274258282836
2394.5,39.5873376878886
2394.75,39.7472495474934
2395,39.9071614070985
2395.25,40.0670732667032
2395.5,40.2269851263083
2395.75,40.3868969859133
2396,40.5468088455181
2396.25,40.7067207051232
2396.5,40.8666325647282
2396.75,41.026544424333
2397,41.186456283938
2397.25,41.3463681435428
2397.5,41.5062800031478
2397.75,41.6661918627529
2398,41.8261037223577
2398.25,41.9860155819627
2398.5,42.1459274415675
2398.75,42.3058393011725
2399,42.4657511607776
2399.25,42.5078539387739
2399.5,42.5178484299992
2399.75,42.5278429212245
2400,42.5378374124498
2400.25,42.5478319036751
2400.5,42.5578263949004
2400.75,42.5678208861258
2401,42.5778153773511
2401.25,42.5878098685764
2401.5,42.5978043598017
2401.75,42.607798851027
2402,42.6177933422523
2402.25,42.6277878334776
2402.5,42.6377823247029
2402.75,42.6477768159282
2403,42.6577713071535
2403.25,42.6677657983788
2403.5,42.6777602896042
2403.75,42.6877547808295
2404,42.6977492720548
2404.25,42.6651530652396
2404.5,42.6201778547258
2404.75,42.5752026442118
2405,42.530227433698
2405.25,42.4852522231841
2405.5,42.4402770126702
2405.75,42.3953018021563
2406,42.3503265916424
2406.25,42.3053513811285
2406.5,42.2603761706146
2406.75,42.2154009601007
2407,42.1704257495869
2407.25,42.125450539073
2407.5,42.080475328559
2407.75,42.0355001180452
2408,41.9905249075313
2408.25,41.9455496970174
2408.5,41.9005744865035
2408.75,41.8555992759896
2409,41.8106240654758
2409.25,41.7236641221374
2409.5,41.6237192098843
2409.75,41.5237742976313
2410,41.4238293853781
2410.25,41.3238844731251
2410.5,41.223939560872
2410.75,41.1239946486188
2411,41.0240497363658
2411.25,40.9241048241127
2411.5,40.8241599118595
2411.75,40.7242149996066
2412,40.6242700873534
2412.25,40.5243251751004
2412.5,40.4243802628473
2412.75,40.3244353505941
2413,40.2244904383411
2413.25,40.124545526088
2413.5,40.024600613835
2413.75,39.9246557015818
2414,39.8247107893287
2414.25,39.852663886047
2414.5,39.9226253246242
2414.75,39.9925867632014
2415,40.0625482017785
2415.25,40.1325096403557
2415.5,40.2024710789328
2415.75,40.27243251751
2416,40.3423939560872
2416.25,40.4123553946643
2416.5,40.4823168332415
2416.75,40.5522782718186
2417,40.6222397103958
2417.25,40.692201148973
2417.5,40.7621625875501
2417.75,40.8321240261273
2418,40.9020854647045
2418.25,40.9720469032816
2418.5,41.0420083418588
2418.75,41.1119697804359
2419,41.1819312190131
2419.25,41.1629338160069
2419.5,41.1129613598804
2419.75,41.0629889037538
2420,41.0130164476273
2420.25,40.9630439915008
2420.5,40.9130715353742
2420.75,40.8630990792477
2421,40.8131266231211
2421.25,40.7631541669945
2421.5,40.713181710868
2421.75,40.6632092547415
2422,40.613236798615
2422.25,40.5632643424884
2422.5,40.5132918863618
2422.75,40.4633194302353
2423,40.4133469741088
2423.25,40.3633745179823
2423.5,40.3134020618557
2423.75,40.2634296057291
2424,40.2134571496026
2424.25,40.3679704100102
2424.5,40.5978437081925
2424.75,40.8277170063743
2425,41.0575903045566
2425.25,41.2874636027384
2425.5,41.5173369009207
2425.75,41.747210199103
2426,41.9770834972848
2426.25,42.2069567954671
2426.5,42.4368300936489
2426.75,42.6667033918312
2427,42.8965766900135
2427.25,43.1264499881953
2427.5,43.3563232863776
2427.75,43.5861965845598
2428,43.8160698827417
2428.25,44.0459431809239
2428.5,44.2758164791058
2428.75,44.5056897772881
2429,44.7355630754703
2429.25,44.7604391280397
2429.5,44.7054694263005
2429.75,44.6504997245613
2430,44.5955300228221
2430.25,44.5405603210829
2430.5,44.4855906193437
2430.75,44.4306209176045
2431,44.3756512158652
2431.25,44.3206815141261
2431.5,44.2657118123869
2431.75,44.2107421106477
2432,44.1557724089085
2432.25,44.1008027071693
2432.5,44.0458330054301
2432.75,43.9908633036909
2433,43.9358936019517
2433.25,43.8809239002125
2433.5,43.8259541984733
2433.75,43.7709844967341
2434,43.7160147949949
2434.25,43.7035413551586
2434.5,43.7085386007712
2434.75,43.7135358463839
2435,43.7185330919965
2435.25,43.7235303376092
2435.5,43.7285275832218
2435.75,43.7335248288345
2436,43.7385220744472
2436.25,43.7435193200598
2436.5,43.7485165656725
2436.75,43.7535138112851
2437,43.7585110568978
2437.25,43.7635083025104
2437.5,43.7685055481231
2437.75,43.7735027937357
2438,43.7785000393484
2438.25,43.783497284961
2438.5,43.7884945305737
2438.75,43.7934917761864
2439,43.798489021799
2439.25,43.7825686629417
2439.5,43.7575824348784
2439.75,43.7325962068151
2440,43.7076099787519
2440.25,43.6826237506886
2440.5,43.6576375226253
2440.75,43.632651294562
2441,43.6076650664988
2441.25,43.5826788384355
2441.5,43.5576926103723
2441.75,43.532706382309
2442,43.5077201542457
2442.25,43.4827339261824
2442.5,43.4577476981191
2442.75,43.4327614700559
2443,43.4077752419926
2443.25,43.3827890139293
2443.5,43.3578027858661
2443.75,43.3328165578028
2444,43.3078303297395
2444.25,43.2622570236878
2444.5,43.2072873219485
2444.75,43.1523176202094
2445,43.0973479184701
2445.25,43.0423782167309
2445.5,42.9874085149918
2445.75,42.9324388132525
2446,42.8774691115133
2446.25,42.8224994097742
2446.5,42.7675297080349
2446.75,42.7125600062958
2447,42.6575903045566
2447.25,42.6026206028173
2447.5,42.5476509010782
2447.75,42.4926811993389
2448,42.4377114975998
2448.25,42.3827417958606
2448.5,42.3277720941213
2448.75,42.2728023923822
2449,42.217832690643
2449.25,42.524104824113
2449.5,43.0038404029273
2449.75,43.4835759817425
2450,43.9633115605568
2450.25,44.4430471393719
2450.5,44.9227827181871
2450.75,45.4025182970014
2451,45.8822538758165
2451.25,46.3619894546308
2451.5,46.841725033446
2451.75,47.3214606122611
2452,47.8011961910754
2452.25,48.2809317698906
2452.5,48.7606673487058
2452.75,49.24040292752
2453,49.7201385063352
2453.25,50.1998740851495
2453.5,50.6796096639647
2453.75,51.1593452427798
2454,51.6390808215941
2454.25,51.6040607539151
2454.5,51.3092232627689
2454.75,51.014385771622
2455,50.7195482804752
2455.25,50.4247107893289
2455.5,50.1298732981821
2455.75,49.8350358070353
2456,49.540198315889
2456.25,49.2453608247422
2456.5,48.9505233335959
2456.75,48.6556858424491
2457,48.3608483513023
2457.25,48.066010860156
2457.5,47.7711733690092
2457.75,47.4763358778629
2458,47.1814983867161
2458.25,46.8866608955693
2458.5,46.591823404423
2458.75,46.2969859132762
2459,46.0021484221293
2459.25,46.1220823168331
2459.5,46.4618950184938
2459.75,46.8017077201539
2460,47.1415204218147
2460.25,47.4813331234754
2460.5,47.8211458251355
2460.75,48.1609585267963
2461,48.5007712284564
2461.25,48.8405839301171
2461.5,49.1803966317779
2461.75,49.520209333438
2462,49.8600220350987
2462.25,50.1998347367595
2462.5,50.5396474384196
2462.75,50.8794601400803
2463,51.2192728417405
2463.25,51.5590855434012
2463.5,51.8988982450619
2463.75,52.2387109467221
2464,52.5785236483828
2464.25,52.4977177933426
2464.5,52.1828913197451
2464.75,51.8680648461477
2465,51.5532383725508
2465.25,51.2384118989534
2465.5,50.9235854253559
2465.75,50.608758951759
2466,50.2939324781616
2466.25,49.9791060045647
2466.5,49.6642795309673
2466.75,49.3494530573698
2467,49.0346265837729
2467.25,48.7198001101755
2467.5,48.4049736365786
2467.75,48.0901471629812
2468,47.7753206893837
2468.25,47.4604942157868
2468.5,47.1456677421894
2468.75,46.8308412685919
2469,46.5160147949951
2469.25,46.2579916581411
2469.5,46.0331156055719
2469.75,45.8082395530023
2470,45.5833635004327
2470.25,45.3584874478635
2470.5,45.1336113952939
2470.75,44.9087353427243
2471,44.6838592901551
2471.25,44.4589832375855
2471.5,44.2341071850163
2471.75,44.0092311324467
2472,43.7843550798771
2472.25,43.5594790273079
2472.5,43.3346029747383
2472.75,43.1097269221691
2473,42.8848508695995
2473.25,42.6599748170299
2473.5,42.4350987644607
2473.75,42.2102227118911
2474,41.9853466593215
2474.25,41.9341071850161
2474.5,41.9890768867553
2474.75,42.0440465884945
2475,42.0990162902337
2475.25,42.153985991973
2475.5,42.2089556937121
2475.75,42.2639253954513
2476,42.3188950971905
2476.25,42.3738647989297
2476.5,42.4288345006689
2476.75,42.4838042024081
2477,42.5387739041473
2477.25,42.5937436058866
2477.5,42.6487133076257
2477.75,42.7036830093649
2478,42.7586527111041
2478.25,42.8136224128433
2478.5,42.8685921145825
2478.75,42.9235618163217
2479,42.9785315180609
2479.25,42.8781773825453
2479.5,42.6782875580389
2479.75,42.4783977335326
2480,42.2785079090267
2480.25,42.0786180845204
2480.5,41.878728260014
2480.75,41.6788384355081
2481,41.4789486110018
2481.25,41.2790587864958
2481.5,41.0791689619895
2481.75,40.8792791374832
2482,40.6793893129772
2482.25,40.4794994884709
2482.5,40.2796096639649
2482.75,40.0797198394586
2483,39.8798300149523
2483.25,39.6799401904464
2483.5,39.48005036594
2483.75,39.2801605414337
2484,39.0802707169278
2484.25,38.9521523569686
2484.5,38.8721964271662
2484.75,38.7922404973637
2485,38.7122845675611
2485.25,38.6323286377588
2485.5,38.5523727079562
2485.75,38.4724167781539
2486,38.3924608483513
2486.25,38.3125049185488
2486.5,38.2325489887464
2486.75,38.1525930589439
2487,38.0726371291414
2487.25,37.992681199339
2487.5,37.9127252695365
2487.75,37.8327693397341
2488,37.7528134099315
2488.25,37.672857480129
2488.5,37.5929015503266
2488.75,37.5129456205241
2489,37.4329896907217
2489.25,37.367710710632
2489.5,37.3127410088927
2489.75,37.2577713071536
2490,37.2028016054143
2490.25,37.1478319036751
2490.5,37.092862201936
2490.75,37.0378925001967
2491,36.9829227984576
2491.25,36.9279530967184
2491.5,36.8729833949791
2491.75,36.81801369324
2492,36.7630439915007
2492.25,36.7080742897616
2492.5,36.6531045880224
2492.75,36.5981348862831
2493,36.543165184544
2493.25,36.4881954828048
2493.5,36.4332257810655
2493.75,36.3782560793264
2494,36.3232863775871
2494.25,36.3489651373258
2494.5,36.433918312741
2494.75,36.5188714881562
2495,36.6038246635712
2495.25,36.6887778389864
2495.5,36.7737310144014
2495.75,36.8586841898166
2496,36.9436373652318
2496.25,37.0285905406468
2496.5,37.113543716062
2496.75,37.1984968914772
2497,37.2834500668922
2497.25,37.3684032423074
2497.5,37.4533564177224
2497.75,37.5383095931376
2498,37.6232627685528
2498.25,37.7082159439678
2498.5,37.793169119383
2498.75,37.878122294798
2499,37.9630754702132
2499.25,38.0141260722437
2499.5,38.0391123003069
2499.75,38.0640985283702
2500,38.0890847564335
2500.25,38.1140709844967
2500.5,38.13905721256
2500.75,38.1640434406233
2501,38.1890296686865
2501.25,38.2140158967498
2501.5,38.2390021248131
2501.75,38.2639883528764
2502,38.2889745809397
2502.25,38.3139608090029
2502.5,38.3389470370662
2502.75,38.3639332651294
2503,38.3889194931927
2503.25,38.413905721256
2503.5,38.4388919493193
2503.75,38.4638781773825
2504,38.4888644054458
2504.25,38.5193908869127
2504.5,38.5543716062013
2504.75,38.5893523254899
2505,38.6243330447785
2505.25,38.6593137640671
2505.5,38.6942944833556
2505.75,38.7292752026442
2506,38.7642559219328
2506.25,38.7992366412214
2506.5,38.83421736051
2506.75,38.8691980797985
2507,38.9041787990871
2507.25,38.9391595183757
2507.5,38.9741402376643
2507.75,39.0091209569529
2508,39.0441016762414
2508.25,39.07908239553
2508.5,39.1140631148186
2508.75,39.1490438341072
2509,39.1840245533958
2509.25,39.1511292988118
2509.5,39.0611788777839
2509.75,38.9712284567561
2510,38.8812780357284
2510.25,38.7913276147005
2510.5,38.7013771936729
2510.75,38.611426772645
2511,38.5214763516172
2511.25,38.4315259305895
2511.5,38.3415755095617
2511.75,38.2516250885338
2512,38.1616746675061
2512.25,38.0717242464783
2512.5,37.9817738254506
2512.75,37.8918234044228
2513,37.8018729833949
2513.25,37.7119225623673
2513.5,37.6219721413394
2513.75,37.5320217203117
2514,37.4420712992839
2514.25,37.384040292752
2514.5,37.3540568190761
2514.75,37.3240733454002
2515,37.2940898717242
2515.25,37.2641063980483
2515.5,37.2341229243724
2515.75,37.2041394506965
2516,37.1741559770205
2516.25,37.1441725033446
2516.5,37.1141890296687
2516.75,37.0842055559928
2517,37.0542220823169
2517.25,37.0242386086409
2517.5,36.994255134965
2517.75,36.9642716612891
2518,36.9342881876131
2518.25,36.9043047139372
2518.5,36.8743212402613
2518.75,36.8443377665853
2519,36.8143542929094
2519.25,36.8078145903832
2519.5,36.8228063272212
2519.75,36.8377980640592
2520,36.8527898008971
2520.25,36.8677815377351
2520.5,36.8827732745731
2520.75,36.897765011411
2521,36.912756748249
2521.25,36.927748485087
2521.5,36.9427402219249
2521.75,36.9577319587629
2522,36.9727236956009
2522.25,36.9877154324388
2522.5,37.0027071692768
2522.75,37.0176989061147
2523,37.0326906429527
2523.25,37.0476823797907
2523.5,37.0626741166286
2523.75,37.0776658534666
2524,37.0926575903046
2524.25,37.1331470842842
2524.5,37.1981112772488
2524.75,37.2630754702133
2525,37.3280396631777
2525.25,37.3930038561423
2525.5,37.4579680491067
2525.75,37.5229322420713
2526,37.5878964350358
2526.25,37.6528606280003
2526.5,37.7178248209648
2526.75,37.7827890139293
2527,37.8477532068938
2527.25,37.9127173998584
2527.5,37.9776815928228
2527.75,38.0426457857874
2528,38.1076099787519
2528.25,38.1725741717163
2528.5,38.2375383646809
2528.75,38.3025025576453
2529,38.3674667506099
2529.25,38.3301487369166
2529.5,38.1902258597624
2529.75,38.050302982608
2530,37.9103801054536
2530.25,37.7704572282994
2530.5,37.630534351145
2530.75,37.4906114739908
2531,37.3506885968364
2531.25,37.210765719682
2531.5,37.0708428425278
2531.75,36.9309199653734
2532,36.7909970882192
2532.25,36.6510742110648
2532.5,36.5111513339104
2532.75,36.3712284567562
2533,36.2313055796018
2533.25,36.0913827024474
2533.5,35.9514598252932
2533.75,35.8115369481388
2534,35.6716140709846
2534.25,35.6439128039663
2534.5,35.7338632249941
2534.75,35.8238136460218
2535,35.9137640670497
2535.25,36.0037144880774
2535.5,36.0936649091052
2535.75,36.183615330133
2536,36.2735657511607
2536.25,36.3635161721886
2536.5,36.4534665932164
2536.75,36.5434170142441
2537,36.6333674352719
2537.25,36.7233178562996
2537.5,36.8132682773274
2537.75,36.9032186983553
2538,36.993169119383
2538.25,37.0831195404108
2538.5,37.1730699614385
2538.75,37.2630203824663
2539,37.3529708034942
2539.25,37.3976154875266
2539.5,37.3926182419139
2539.75,37.3876209963012
2540,37.3826237506886
2540.25,37.3776265050759
2540.5,37.3726292594633
2540.75,37.3676320138506
2541,37.362634768238
2541.25,37.3576375226253
2541.5,37.3526402770127
2541.75,37.3476430314
2542,37.3426457857874
2542.25,37.3376485401747
2542.5,37.3326512945621
2542.75,37.3276540489494
2543,37.3226568033367
2543.25,37.3176595577241
2543.5,37.3126623121114
2543.75,37.3076650664988
2544,37.3026678208861
2544.25,37.3605650428898
2544.5,37.4904934288187
2544.75,37.6204218147478
2545,37.7503502006767
2545.25,37.8802785866058
2545.5,38.0102069725349
2545.75,38.1401353584637
2546,38.2700637443928
2546.25,38.3999921303219
2546.5,38.5299205162508
2546.75,38.6598489021799
2547,38.7897772881088
2547.25,38.9197056740379
2547.5,39.049634059967
2547.75,39.1795624458959
2548,39.309490831825
2548.25,39.4394192177539
2548.5,39.569347603683
2548.75,39.6992759896121
2549,39.8292043755409
2549.25,39.8954513260408
2549.5,39.8854568348155
2549.75,39.8754623435902
2550,39.8654678523648
2550.25,39.8554733611395
2550.5,39.8454788699142
2550.75,39.8354843786889
2551,39.8254898874636
2551.25,39.8154953962383
2551.5,39.805500905013
2551.75,39.7955064137877
2552,39.7855119225624
2552.25,39.7755174313371
2552.5,39.7655229401118
2552.75,39.7555284488864
2553,39.7455339576611
2553.25,39.7355394664358
2553.5,39.7255449752105
2553.75,39.7155504839852
2554,39.7055559927599
2554.25,39.6822460061384
2554.5,39.6422680412371
2554.75,39.6022900763359
2555,39.5623121114347
2555.25,39.5223341465334
2555.5,39.4823561816322
2555.75,39.4423782167309
2556,39.4024002518297
2556.25,39.3624222869285
2556.5,39.3224443220272
2556.75,39.282466357126
2557,39.2424883922248
2557.25,39.2025104273235
2557.5,39.1625324624223
2557.75,39.1225544975211
2558,39.0825765326199
2558.25,39.0425985677186
2558.5,39.0026206028173
2558.75,38.9626426379161
2559,38.9226646730149
2559.25,38.932462422287
2559.5,39.0074211064767
2559.75,39.0823797906666
2560,39.1573384748563
2560.25,39.2322971590462
2560.5,39.307255843236
2560.75,39.3822145274258
2561,39.4571732116156
2561.25,39.5321318958055
2561.5,39.6070905799952
2561.75,39.6820492641851
2562,39.7570079483748
2562.25,39.8319666325647
2562.5,39.9069253167546
2562.75,39.9818840009443
2563,40.0568426851342
2563.25,40.1318013693239
2563.5,40.2067600535138
2563.75,40.2817187377037
2564,40.3566774218934
2564.25,40.41898166365
2564.5,40.4639568741639
2564.75,40.5089320846777
2565,40.5539072951916
2565.25,40.5988825057055
2565.5,40.6438577162194
2565.75,40.6888329267333
2566,40.7338081372472
2566.25,40.7787833477611
2566.5,40.8237585582749
2566.75,40.8687337687888
2567,40.9137089793028
2567.25,40.9586841898166
2567.5,41.0036594003305
2567.75,41.0486346108444
2568,41.0936098213583
2568.25,41.1385850318722
2568.5,41.183560242386
2568.75,41.2285354529
2569,41.2735106634139
2569.25,41.2856220980562
2569.5,41.2506413787676
2569.75,41.2156606594791
2570,41.1806799401905
2570.25,41.1456992209018
2570.5,41.1107185016133
2570.75,41.0757377823247
2571,41.0407570630361
2571.25,41.0057763437476
2571.5,40.970795624459
2571.75,40.9358149051704
2572,40.9008341858818
2572.25,40.8658534665932
2572.5,40.8308727473047
2572.75,40.795892028016
2573,40.7609113087275
2573.25,40.7259305894389
2573.5,40.6909498701503
2573.75,40.6559691508618
2574,40.6209884315732
2574.25,40.570016526324
2574.5,40.4950578421343
2574.75,40.4200991579444
2575,40.3451404737547
2575.25,40.2701817895648
2575.5,40.195223105375
2575.75,40.1202644211852
2576,40.0453057369954
2576.25,39.9703470528056
2576.5,39.8953883686157
2576.75,39.8204296844259
2577,39.7454710002362
2577.25,39.6705123160463
2577.5,39.5955536318564
2577.75,39.5205949476667
2578,39.4456362634768
2578.25,39.3706775792871
2578.5,39.2957188950972
2578.75,39.2207602109073
2579,39.1458015267176
2579.25,39.0708428425277
2579.5,38.995884158338
2579.75,38.9209254741481
2580,38.8459667899583
2580.25,38.7710081057685
2580.5,38.6960494215787
2580.75,38.6210907373888
2581,38.5461320531991
2581.25,38.4711733690092
2581.5,38.3962146848195
2581.75,38.3212560006296
2582,38.2462973164397
2582.25,38.17133863225
2582.5,38.0963799480601
2582.75,38.0214212638704
2583,37.9464625796805
2583.25,37.8715038954907
2583.5,37.7965452113009
2583.75,37.7215865271111
2584,37.6466278429212
2584.25,37.5565593767216
2584.5,37.4416227276304
2584.75,37.3266860785395
2585,37.2117494294484
2585.25,37.0968127803572
2585.5,36.9818761312663
2585.75,36.8669394821752
2586,36.7520028330843
2586.25,36.6370661839931
2586.5,36.522129534902
2586.75,36.4071928858111
2587,36.2922562367199
2587.25,36.1773195876288
2587.5,36.0623829385379
2587.75,35.9474462894467
2588,35.8325096403558
2588.25,35.7175729912647
2588.5,35.6026363421736
2588.75,35.4876996930826
2589,35.3727630439915
2589.25,35.2816636499567
2589.5,35.2316911938302
2589.75,35.1817187377036
2590,35.1317462815771
2590.25,35.0817738254505
2590.5,35.031801369324
2590.75,34.9818289131975
2591,34.9318564570709
2591.25,34.8818840009444
2591.5,34.8319115448178
2591.75,34.7819390886912
2592,34.7319666325648
2592.25,34.6819941764382
2592.5,34.6320217203116
2592.75,34.5820492641851
2593,34.5320768080585
2593.25,34.482104351932
2593.5,34.4321318958055
2593.75,34.3821594396789
2594,34.3321869835524
2594.25,34.278657432911
2594.5,34.2186904855592
2594.75,34.1587235382073
2595,34.0987565908554
2595.25,34.0387896435036
2595.5,33.9788226961517
2595.75,33.9188557487998
2596,33.858888801448
2596.25,33.7989218540962
2596.5,33.7389549067444
2596.75,33.6789879593925
2597,33.6190210120406
2597.25,33.5590540646888
2597.5,33.4990871173369
2597.75,33.4391201699851
2598,33.3791532226332
2598.25,33.3191862752813
2598.5,33.2592193279295
2598.75,33.1992523805776
2599,33.1392854332257
2599.25,33.1
2599.5,33.1
2599.75,33.1
2600,33.1
2600.25,33.1
2600.5,33.1
2600.75,33.1
2601,33.1
2601.25,33.1
2601.5,33.1
2601.75,33.1
2602,33.1
2602.25,33.1
2602.5,33.1
2602.75,33.1
2603,33.1
2603.25,33.1
2603.5,33.1
2603.75,33.1
2604,33.1
2604.25,33.1450460376169
2604.5,33.2799716691587
2604.75,33.4148973007005
2605,33.549822932242
2605.25,33.6847485637837
2605.5,33.8196741953255
2605.75,33.954599826867
2606,34.0895254584088
2606.25,34.2244510899503
2606.5,34.3593767214921
2606.75,34.4943023530338
2607,34.6292279845753
2607.25,34.7641536161171
2607.5,34.8990792476586
2607.75,35.0340048792004
2608,35.1689305107422
2608.25,35.3038561422837
2608.5,35.4387817738254
2608.75,35.5737074053672
2609,35.7086330369087
2609.25,35.769347603683
2609.5,35.6743999370427
2609.75,35.5794522704022
2610,35.4845046037617
2610.25,35.3895569371213
2610.5,35.2946092704808
2610.75,35.1996616038405
2611,35.1047139372
2611.25,35.0097662705595
2611.5,34.9148186039192
2611.75,34.8198709372787
2612,34.7249232706382
2612.25,34.6299756039978
2612.5,34.5350279373573
2612.75,34.440080270717
2613,34.3451326040765
2613.25,34.250184937436
2613.5,34.1552372707957
2613.75,34.0602896041552
2614,33.9653419375149
2614.25,33.9327221216652
2614.5,34.037664279531
2614.75,34.1426064373966
2615,34.2475485952624
2615.25,34.3524907531283
2615.5,34.4574329109939
2615.75,34.5623750688597
2616,34.6673172267253
2616.25,34.7722593845911
2616.5,34.877201542457
2616.75,34.9821437003226
2617,35.0870858581884
2617.25,35.192028016054
2617.5,35.2969701739198
2617.75,35.4019123317857
2618,35.5068544896513
2618.25,35.6117966475171
2618.5,35.7167388053829
2618.75,35.8216809632485
2619,35.9266231211144
2619.25,35.9714409380657
2619.5,35.8764932714252
2619.75,35.7815456047847
2620,35.6865979381444
2620.25,35.5916502715039
2620.5,35.4967026048634
2620.75,35.4017549382231
2621,35.3068072715826
2621.25,35.2118596049422
2621.5,35.1169119383017
2621.75,35.0219642716612
2622,34.9270166050209
2622.25,34.8320689383804
2622.5,34.7371212717401
2622.75,34.6421736050996
2623,34.5472259384591
2623.25,34.4522782718187
2623.5,34.3573306051782
2623.75,34.2623829385377
2624,34.1674352718974
2624.25,34.1144802077595
2624.5,34.164452663886
2624.75,34.2144251200126
2625,34.2643975761392
2625.25,34.3143700322657
2625.5,34.3643424883922
2625.75,34.4143149445187
2626,34.4642874006453
2626.25,34.5142598567719
2626.5,34.5642323128984
2626.75,34.6142047690249
2627,34.6641772251515
2627.25,34.714149681278
2627.5,34.7641221374046
2627.75,34.8140945935311
2628,34.8640670496577
2628.25,34.9140395057842
2628.5,34.9640119619107
2628.75,35.0139844180373
2629,35.0639568741638
2629.25,35.0554261430708
2629.5,34.8955142834657
2629.75,34.735602423861
2630,34.5756905642559
2630.25,34.4157787046509
2630.5,34.2558668450461
2630.75,34.0959549854411
2631,33.9360431258363
2631.25,33.7761312662312
2631.5,33.6162194066262
2631.75,33.4563075470214
2632,33.2963956874164
2632.25,33.1364838278116
2632.5,32.9765719682066
2632.75,32.8166601086015
2633,32.6567482489967
2633.25,32.4968363893917
2633.5,32.3369245297866
2633.75,32.1770126701819
2634,32.0171008105768
2634.25,31.9294325962067
2634.5,32.0393719996852
2634.75,32.1493114031637
2635,32.2592508066419
2635.25,32.3691902101204
2635.5,32.4791296135987
2635.75,32.5890690170772
2636,32.6990084205556
2636.25,32.8089478240339
2636.5,32.9188872275124
2636.75,33.0288266309909
2637,33.1387660344691
2637.25,33.2487054379476
2637.5,33.3586448414259
2637.75,33.4685842449044
2638,33.5785236483828
2638.25,33.6884630518611
2638.5,33.7984024553396
2638.75,33.9083418588179
2639,34.0182812622963
2639.25,34.1128275753522
2639.5,34.1628000314787
2639.75,34.2127724876053
2640,34.2627449437318
2640.25,34.3127173998583
2640.5,34.3626898559849
2640.75,34.4126623121114
2641,34.462634768238
2641.25,34.5126072243646
2641.5,34.562579680491
2641.75,34.6125521366176
2642,34.6625245927441
2642.25,34.7124970488707
2642.5,34.7624695049973
2642.75,34.8124419611238
2643,34.8624144172503
2643.25,34.9123868733769
2643.5,34.9623593295034
2643.75,35.01233178563
2644,35.0623042417565
2644.25,35.1184150468246
2644.5,35.1933737310144
2644.75,35.2683324152042
2645,35.343291099394
2645.25,35.4182497835838
2645.5,35.4932084677736
2645.75,35.5681671519635
2646,35.6431258361532
2646.25,35.7180845203431
2646.5,35.793043204533
2646.75,35.8680018887227
2647,35.9429605729126
2647.25,36.0179192571023
2647.5,36.0928779412922
2647.75,36.1678366254821
2648,36.2427953096718
2648.25,36.3177539938617
2648.5,36.3927126780514
2648.75,36.4676713622413
2649,36.5426300464311
2649.25,36.6
2649.5,36.6
2649.75,36.6
2650,36.6
2650.25,36.6
2650.5,36.6
2650.75,36.6
2651,36.6
2651.25,36.6
2651.5,36.6
2651.75,36.6
2652,36.6
2652.25,36.6
2652.5,36.6
2652.75,36.6
2653,36.6
2653.25,36.6
2653.5,36.6
2653.75,36.6
2654,36.6
2654.25,36.5910600456441
2654.5,36.5510820807429
2654.75,36.5111041158417
2655,36.4711261509404
2655.25,36.4311481860392
2655.5,36.3911702211379
2655.75,36.3511922562368
2656,36.3112142913355
2656.25,36.2712363264342
2656.5,36.231258361533
2656.75,36.1912803966318
2657,36.1513024317306
2657.25,36.1113244668293
2657.5,36.0713465019281
2657.75,36.0313685370269
2658,35.9913905721256
2658.25,35.9514126072243
2658.5,35.9114346423231
2658.75,35.8714566774219
2659,35.8314787125207
2659.25,35.7808766821437
2659.5,35.6909262611159
2659.75,35.6009758400882
2660,35.5110254190604
2660.25,35.4210749980327
2660.5,35.3311245770048
2660.75,35.241174155977
2661,35.1512237349493
2661.25,35.0612733139215
2661.5,34.9713228928936
2661.75,34.8813724718659
2662,34.7914220508381
2662.25,34.7014716298104
2662.5,34.6115212087826
2662.75,34.5215707877547
2663,34.4316203667271
2663.25,34.3416699456992
2663.5,34.2517195246715
2663.75,34.1617691036437
2664,34.0718186826158
2664.25,33.9949634059967
2664.5,33.9699771779334
2664.75,33.9449909498701
2665,33.9200047218069
2665.25,33.8950184937436
2665.5,33.8700322656804
2665.75,33.8450460376171
2666,33.8200598095538
2666.25,33.7950735814905
2666.5,33.7700873534272
2666.75,33.745101125364
2667,33.7201148973007
2667.25,33.6951286692374
2667.5,33.6701424411742
2667.75,33.6451562131109
2668,33.6201699850476
2668.25,33.5951837569844
2668.5,33.5701975289211
2668.75,33.5452113008578
2669,33.5202250727945
2669.25,33.5161879279138
2669.5,33.6011411033288
2669.75,33.686094278744
2670,33.771047454159
2670.25,33.8560006295742
2670.5,33.9409538049894
2670.75,34.0259069804044
2671,34.1108601558196
2671.25,34.1958133312348
2671.5,34.2807665066498
2671.75,34.365719682065
2672,34.4506728574801
2672.25,34.5356260328952
2672.5,34.6205792083104
2672.75,34.7055323837254
2673,34.7904855591406
2673.25,34.8754387345557
2673.5,34.9603919099709
2673.75,35.045345085386
2674,35.1302982608011
2674.25,35.2116628629889
2674.5,35.2766270559535
2674.75,35.3415912489179
2675,35.4065554418824
2675.25,35.4715196348469
2675.5,35.5364838278114
2675.75,35.601448020776
2676,35.6664122137404
2676.25,35.731376406705
2676.5,35.7963405996694
2676.75,35.861304792634
2677,35.9262689855985
2677.25,35.9912331785629
2677.5,36.0561973715275
2677.75,36.121161564492
2678,36.1861257574565
2678.25,36.251089950421
2678.5,36.3160541433855
2678.75,36.38101833635
2679,36.4459825293146
2679.25,36.4991579444401
2679.5,36.4941606988274
2679.75,36.4891634532148
2680,36.4841662076021
2680.25,36.4791689619895
2680.5,36.4741717163768
2680.75,36.4691744707641
2681,36.4641772251515
2681.25,36.4591799795388
2681.5,36.4541827339262
2681.75,36.4491854883135
2682,36.4441882427009
2682.25,36.4391909970882
2682.5,36.4341937514756
2682.75,36.4291965058629
2683,36.4241992602502
2683.25,36.4192020146376
2683.5,36.4142047690249
2683.75,36.4092075234123
2684,36.4042102777996
2684.25,36.3952781931219
2684.5,36.365294719446
2684.75,36.33531124577
2685,36.3053277720942
2685.25,36.2753442984182
2685.5,36.2453608247423
2685.75,36.2153773510664
2686,36.1853938773904
2686.25,36.1554104037145
2686.5,36.1254269300386
2686.75,36.0954434563626
2687,36.0654599826867
2687.25,36.0354765090108
2687.5,36.0054930353348
2687.75,35.9755095616589
2688,35.945526087983
2688.25,35.9155426143071
2688.5,35.8855591406312
2688.75,35.8555756669552
2689,35.8255921932793
2689.25,35.7912174392067
2689.5,35.7312504918548
2689.75,35.6712835445031
2690,35.6113165971512
2690.25,35.5513496497994
2690.5,35.4913827024475
2690.75,35.4314157550956
2691,35.3714488077438
2691.25,35.3114818603919
2691.5,35.2515149130401
2691.75,35.1915479656882
2692,35.1315810183363
2692.25,35.0716140709845
2692.5,35.0116471236326
2692.75,34.9516801762808
2693,34.891713228929
2693.25,34.8317462815771
2693.5,34.7717793342253
2693.75,34.7118123868734
2694,34.6518454395215
2694.25,34.6
2694.5,34.6
2694.75,34.6
2695,34.6
2695.25,34.6
2695.5,34.6
2695.75,34.6
2696,34.6
2696.25,34.6
2696.5,34.6
2696.75,34.6
2697,34.6
2697.25,34.6
2697.5,34.6
2697.75,34.6
2698,34.6
2698.25,34.6
2698.5,34.6
2698.75,34.6
2699,34.6
2699.25,34.5981348862831
2699.5,34.5831431494452
2699.75,34.5681514126072
2700,34.5531596757693
2700.25,34.5381679389313
2700.5,34.5231762020933
2700.75,34.5081844652554
2701,34.4931927284174
2701.25,34.4782009915795
2701.5,34.4632092547415
2701.75,34.4482175179035
2702,34.4332257810656
2702.25,34.4182340442276
2702.5,34.4032423073896
2702.75,34.3882505705517
2703,34.3732588337137
2703.25,34.3582670968758
2703.5,34.3432753600378
2703.75,34.3282836231998
2704,34.3132918863619
2704.25,34.3124655701582
2704.5,34.4224049736365
2704.75,34.5323443771149
2705,34.6422837805934
2705.25,34.7522231840717
2705.5,34.8621625875502
2705.75,34.9721019910286
2706,35.0820413945069
2706.25,35.1919807979854
2706.5,35.3019202014637
2706.75,35.4118596049421
2707,35.5217990084206
2707.25,35.6317384118989
2707.5,35.7416778153774
2707.75,35.8516172188556
2708,35.9615566223341
2708.25,36.0714960258126
2708.5,36.1814354292909
2708.75,36.2913748327693
2709,36.4013142362478
2709.25,36.5030691744707
2709.5,36.5330526481467
2709.75,36.5630361218226
2710,36.5930195954985
2710.25,36.6230030691745
2710.5,36.6529865428504
2710.75,36.6829700165263
2711,36.7129534902023
2711.25,36.7429369638782
2711.5,36.7729204375541
2711.75,36.80290391123
2712,36.832887384906
2712.25,36.8628708585819
2712.5,36.8928543322578
2712.75,36.9228378059337
2713,36.9528212796096
2713.25,36.9828047532856
2713.5,37.0127882269615
2713.75,37.0427717006374
2714,37.0727551743134
2714.25,37.0913276147005
2714.5,36.9963799480602
2714.75,36.9014322814197
2715,36.8064846147793
2715.25,36.7115369481388
2715.5,36.6165892814983
2715.75,36.521641614858
2716,36.4266939482175
2716.25,36.3317462815772
2716.5,36.2367986149367
2716.75,36.1418509482962
2717,36.0469032816559
2717.25,35.9519556150154
2717.5,35.8570079483749
2717.75,35.7620602817345
2718,35.667112615094
2718.25,35.5721649484537
2718.5,35.4772172818132
2718.75,35.3822696151727
2719,35.2873219485324
2719.25,35.1939796962304
2719.5,35.1190210120407
2719.75,35.0440623278508
2720,34.969103643661
2720.25,34.8941449594712
2720.5,34.8191862752813
2720.75,34.7442275910915
2721,34.6692689069017
2721.25,34.5943102227119
2721.5,34.5193515385221
2721.75,34.4443928543323
2722,34.3694341701424
2722.25,34.2944754859527
2722.5,34.2195168017628
2722.75,34.1445581175731
2723,34.0695994333832
2723.25,33.9946407491933
2723.5,33.9196820650036
2723.75,33.8447233808137
2724,33.7697646966239
2724.25,33.6975761391359
2724.5,33.6625954198473
2724.75,33.6276147005588
2725,33.5926339812702
2725.25,33.5576532619816
2725.5,33.522672542693
2725.75,33.4876918234044
2726,33.4527111041159
2726.25,33.4177303848273
2726.5,33.3827496655387
2726.75,33.3477689462501
2727,33.3127882269615
2727.25,33.2778075076729
2727.5,33.2428267883844
2727.75,33.2078460690958
2728,33.1728653498072
2728.25,33.1378846305186
2728.5,33.10290391123
2728.75,33.0679231919415
2729,33.0329424726529
2729.25,33.0026206028173
2729.5,33.0475958133312
2729.75,33.0925710238451
2730,33.137546234359
2730.25,33.1825214448729
2730.5,33.2274966553868
2730.75,33.2724718659007
2731,33.3174470764146
2731.25,33.3624222869284
2731.5,33.4073974974423
2731.75,33.4523727079563
2732,33.4973479184701
2732.25,33.542323128984
2732.5,33.5872983394979
2732.75,33.6322735500118
2733,33.6772487605257
2733.25,33.7222239710395
2733.5,33.7671991815535
2733.75,33.8121743920674
2734,33.8571496025812
2734.25,33.9023609034391
2734.5,33.9523333595655
2734.75,34.0023058156921
2735,34.0522782718187
2735.25,34.1022507279452
2735.5,34.1522231840718
2735.75,34.2021956401983
2736,34.2521680963248
2736.25,34.3021405524514
2736.5,34.3521130085779
2736.75,34.4020854647045
2737,34.4520579208311
2737.25,34.5020303769576
2737.5,34.5520028330841
2737.75,34.6019752892106
2738,34.6519477453372
2738.25,34.7019202014638
2738.5,34.7518926575903
2738.75,34.8018651137169
2739,34.8518375698434
2739.25,34.9027150389549
2739.5,34.9776737231447
2739.75,35.0526324073345
2740,35.1275910915243
2740.25,35.2025497757142
2740.5,35.2775084599039
2740.75,35.3524671440938
2741,35.4274258282835
2741.25,35.5023845124734
2741.5,35.5773431966633
2741.75,35.652301880853
2742,35.7272605650429
2742.25,35.8022192492328
2742.5,35.8771779334225
2742.75,35.9521366176124
2743,36.0270953018021
2743.25,36.102053985992
2743.5,36.1770126701818
2743.75,36.2519713543716
2744,36.3269300385614
2744.25,36.3981112772488
2744.5,36.323152593059
2744.75,36.2481939088691
2745,36.1732352246794
2745.25,36.0982765404895
2745.5,36.0233178562996
2745.75,35.9483591721099
2746,35.87340048792
2746.25,35.7984418037303
2746.5,35.7234831195404
2746.75,35.6485244353506
2747,35.5735657511608
2747.25,35.498607066971
2747.5,35.4236483827812
2747.75,35.3486896985914
2748,35.2737310144015
2748.25,35.1987723302117
2748.5,35.1238136460219
2748.75,35.048854961832
2749,34.9738962776423
2749.25,34.901629023373
2749.5,35.0165656724639
2749.75,35.131502321555
2750,35.2464389706462
2750.25,35.3613756197371
2750.5,35.4763122688282
2750.75,35.5912489179191
2751,35.7061855670103
2751.25,35.8211222161014
2751.5,35.9360588651923
2751.75,36.0509955142835
2752,36.1659321633746
2752.25,36.2808688124655
2752.5,36.3958054615566
2752.75,36.5107421106476
2753,36.6256787597387
2753.25,36.7406154088298
2753.5,36.8555520579208
2753.75,36.9704887070119
2754,37.0854253561028
2754.25,37.199937042575
2754.5,37.1799480601243
2754.75,37.1599590776737
2755,37.1399700952231
2755.25,37.1199811127725
2755.5,37.0999921303219
2755.75,37.0800031478713
2756,37.0600141654207
2756.25,37.04002518297
2756.5,37.0200362005194
2756.75,37.0000472180688
2757,36.9800582356182
2757.25,36.9600692531676
2757.5,36.9400802707169
2757.75,36.9200912882663
2758,36.9001023058157
2758.25,36.8801133233651
2758.5,36.8601243409144
2758.75,36.8401353584638
2759,36.8201463760132
2759.25,36.8001573935626
2759.5,36.785126308334
2759.75,36.770134571496
2760,36.7551428346581
2760.25,36.7401510978201
2760.5,36.7251593609821
2760.75,36.7101676241442
2761,36.6951758873062
2761.25,36.6801841504683
2761.5,36.6651924136303
2761.75,36.6502006767923
2762,36.6352089399544
2762.25,36.6202172031164
2762.5,36.6052254662784
2762.75,36.5902337294405
2763,36.5752419926025
2763.25,36.5602502557646
2763.5,36.5452585189266
2763.75,36.5302667820886
2764,36.5152750452507
2764.25,36.5002833084127
2764.5,36.3823325725979
2764.75,36.2623986778941
2765,36.1424647831903
2765.25,36.0225308884867
2765.5,35.9025969937829
2765.75,35.7826630990794
2766,35.6627292043756
2766.25,35.5427953096718
2766.5,35.4228614149682
2766.75,35.3029275202644
2767,35.1829936255608
2767.25,35.0630597308571
2767.5,34.9431258361533
2767.75,34.8231919414497
2768,34.7032580467459
2768.25,34.5833241520421
2768.5,34.4633902573385
2768.75,34.3434563626348
2769,34.2235224679312
2769.25,34.1035885732274
2769.5,34.0854568348155
2769.75,34.0704650979775
2770,34.0554733611395
2770.25,34.0404816243016
2770.5,34.0254898874636
2770.75,34.0104981506256
2771,33.9955064137877
2771.25,33.9805146769497
2771.5,33.9655229401117
2771.75,33.9505312032738
2772,33.9355394664358
2772.25,33.9205477295979
2772.5,33.9055559927599
2772.75,33.8905642559219
2773,33.875572519084
2773.25,33.860580782246
2773.5,33.845589045408
2773.75,33.8305973085701
2774,33.8156055717321
2774.25,33.8006138348942
2774.5,33.8335484378689
2774.75,33.8685291571575
2775,33.903509876446
2775.25,33.9384905957346
2775.5,33.9734713150232
2775.75,34.0084520343118
2776,34.0434327536004
2776.25,34.0784134728889
2776.5,34.1133941921775
2776.75,34.1483749114661
2777,34.1833556307547
2777.25,34.2183363500433
2777.5,34.2533170693318
2777.75,34.2882977886204
2778,34.323278507909
2778.25,34.3582592271976
2778.5,34.3932399464862
2778.75,34.4282206657747
2779,34.4632013850633
2779.25,34.4981821043519
2779.5,34.5379003698748
2779.75,34.5778783347761
2780,34.6178562996774
2780.25,34.6578342645786
2780.5,34.6978122294798
2780.75,34.737790194381
2781,34.7777681592823
2781.25,34.8177461241835
2781.5,34.8577240890847
2781.75,34.897702053986
2782,34.9376800188872
2782.25,34.9776579837884
2782.5,35.0176359486897
2782.75,35.0576139135909
2783,35.0975918784922
2783.25,35.1375698433934
2783.5,35.1775478082946
2783.75,35.2175257731959
2784,35.2575037380971
2784.25,35.2974817029983
2784.5,35.4123790036988
2784.75,35.5323128984024
2785,35.6522467931062
2785.25,35.7721806878097
2785.5,35.8921145825135
2785.75,36.0120484772173
2786,36.1319823719209
2786.25,36.2519162666247
2786.5,36.3718501613285
2786.75,36.491784056032
2787,36.6117179507358
2787.25,36.7316518454394
2787.5,36.8515857401432
2787.75,36.971519634847
2788,37.0914535295506
2788.25,37.2113874242544
2788.5,37.3313213189579
2788.75,37.4512552136617
2789,37.5711891083655
2789.25,37.6911230030691
2789.5,37.7416463366648
2789.75,37.7866215471787
2790,37.8315967576926
2790.25,37.8765719682065
2790.5,37.9215471787204
2790.75,37.9665223892343
2791,38.0114975997482
2791.25,38.056472810262
2791.5,38.101448020776
2791.75,38.1464232312898
2792,38.1913984418037
2792.25,38.2363736523176
2792.5,38.2813488628315
2792.75,38.3263240733454
2793,38.3712992838593
2793.25,38.4162744943732
2793.5,38.4612497048871
2793.75,38.5062249154009
2794,38.5512001259148
2794.25,38.5961753364288
2794.5,38.4902652081531
2794.75,38.3703313134493
2795,38.2503974187457
2795.25,38.1304635240419
2795.5,38.0105296293381
2795.75,37.8905957346346
2796,37.7706618399308
2796.25,37.650727945227
2796.5,37.5307940505234
2796.75,37.4108601558196
2797,37.290926261116
2797.25,37.1709923664123
2797.5,37.0510584717085
2797.75,36.9311245770049
2798,36.8111906823011
2798.25,36.6912567875975
2798.5,36.5713228928937
2798.75,36.4513889981899
2799,36.3314551034864
2799.25,36.2115212087826
2799.5,36.231620366727
2799.75,36.2666010860156
2800,36.3015818053042
2800.25,36.3365625245927
2800.5,36.3715432438813
2800.75,36.4065239631699
2801,36.4415046824585
2801.25,36.4764854017471
2801.5,36.5114661210357
2801.75,36.5464468403242
2802,36.5814275596128
2802.25,36.6164082789014
2802.5,36.65138899819
2802.75,36.6863697174786
2803,36.7213504367671
2803.25,36.7563311560557
2803.5,36.7913118753443
2803.75,36.8262925946329
2804,36.8612733139215
2804.25,36.89625403321
2804.5,36.8464547100024
2804.75,36.7864877626505
2805,36.7265208152987
2805.25,36.6665538679468
2805.5,36.606586920595
2805.75,36.5466199732431
2806,36.4866530258912
2806.25,36.4266860785394
2806.5,36.3667191311875
2806.75,36.3067521838357
2807,36.2467852364838
2807.25,36.186818289132
2807.5,36.1268513417802
2807.75,36.0668843944283
2808,36.0069174470764
2808.25,35.9469504997246
2808.5,35.8869835523727
2808.75,35.8270166050209
2809,35.767049657669
2809.25,35.7070827103171
2809.5,35.6823719209884
2809.75,35.6623829385378
2810,35.6423939560872
2810.25,35.6224049736366
2810.5,35.602415991186
2810.75,35.5824270087354
2811,35.5624380262847
2811.25,35.5424490438341
2811.5,35.5224600613835
2811.75,35.5024710789329
2812,35.4824820964823
2812.25,35.4624931140316
2812.5,35.442504131581
2812.75,35.4225151491304
2813,35.4025261666798
2813.25,35.3825371842292
2813.5,35.3625482017786
2813.75,35.3425592193279
2814,35.3225702368773
2814.25,35.3025812544267
2814.5,35.3261115920359
2814.75,35.3560950657118
2815,35.3860785393877
2815.25,35.4160620130636
2815.5,35.4460454867396
2815.75,35.4760289604155
2816,35.5060124340914
2816.25,35.5359959077674
2816.5,35.5659793814433
2816.75,35.5959628551192
2817,35.6259463287952
2817.25,35.6559298024711
2817.5,35.685913276147
2817.75,35.7158967498229
2818,35.7458802234988
2818.25,35.7758636971748
2818.5,35.8058471708507
2818.75,35.8358306445266
2819,35.8658141182026
2819.25,35.8957975918785
2819.5,35.9859368851814
2819.75,36.0858817974344
2820,36.1858267096875
2820.25,36.2857716219407
2820.5,36.3857165341937
2820.75,36.4856614464468
2821,36.5856063587
2821.25,36.685551270953
2821.5,36.7854961832061
2821.75,36.8854410954591
2822,36.9853860077123
2822.25,37.0853309199654
2822.5,37.1852758322184
2822.75,37.2852207444716
2823,37.3851656567245
2823.25,37.4851105689777
2823.5,37.5850554812308
2823.75,37.6850003934838
2824,37.784945305737
2824.25,37.8848902179901
2824.5,37.9084835130243
2824.75,37.9184780042496
2825,37.9284724954749
2825.25,37.9384669867002
2825.5,37.9484614779256
2825.75,37.9584559691509
2826,37.9684504603762
2826.25,37.9784449516015
2826.5,37.9884394428268
2826.75,37.9984339340521
2827,38.0084284252774
2827.25,38.0184229165027
2827.5,38.028417407728
2827.75,38.0384118989533
2828,38.0484063901786
2828.25,38.0584008814039
2828.5,38.0683953726293
2828.75,38.0783898638546
2829,38.0883843550799
2829.25,38.0983788463052
2829.5,38.0078932871645
2829.75,37.8979538836862
2830,37.7880144802077
2830.25,37.6780750767295
2830.5,37.568135673251
2830.75,37.4581962697725
2831,37.3482568662942
2831.25,37.2383174628158
2831.5,37.1283780593375
2831.75,37.018438655859
2832,36.9084992523805
2832.25,36.7985598489023
2832.5,36.6886204454238
2832.75,36.5786810419453
2833,36.468741638467
2833.25,36.3588022349886
2833.5,36.2488628315103
2833.75,36.1389234280318
2834,36.0289840245533
2834.25,35.9190446210751
2834.5,35.7801841504682
2834.75,35.6352640277014
2835,35.4903439049343
2835.25,35.3454237821673
2835.5,35.2005036594004
2835.75,35.0555835366334
2836,34.9106634138663
2836.25,34.7657432910995
2836.5,34.6208231683324
2836.75,34.4759030455656
2837,34.3309829227985
2837.25,34.1860628000314
2837.5,34.0411426772646
2837.75,33.8962225544975
2838,33.7513024317307
2838.25,33.6063823089636
2838.5,33.4614621861965
2838.75,33.3165420634297
2839,33.1716219406626
2839.25,33.0267018178956
2839.5,32.9510820807429
2839.75,32.891115133391
2840,32.8311481860392
2840.25,32.7711812386873
2840.5,32.7112142913355
2840.75,32.6512473439837
2841,32.5912803966318
2841.25,32.53131344928
2841.5,32.4713465019281
2841.75,32.4113795545762
2842,32.3514126072244
2842.25,32.2914456598725
2842.5,32.2314787125206
2842.75,32.1715117651688
2843,32.1115448178169
2843.25,32.0515778704652
2843.5,31.9916109231133
2843.75,31.9316439757614
2844,31.8716770284096
2844.25,31.8117100810577
2844.5,31.8522782718186
2844.75,31.9172424647832
2845,31.9822066577477
2845.25,32.0471708507122
2845.5,32.1121350436767
2845.75,32.1770992366413
2846,32.2420634296057
2846.25,32.3070276225703
2846.5,32.3719918155347
2846.75,32.4369560084992
2847,32.5019202014638
2847.25,32.5668843944282
2847.5,32.6318485873928
2847.75,32.6968127803572
2848,32.7617769733218
2848.25,32.8267411662863
2848.5,32.8917053592508
2848.75,32.9566695522153
2849,33.0216337451799
2849.25,33.0865979381443
2849.5,33.1
2849.75,33.1
2850,33.1
2850.25,33.1
2850.5,33.1
2850.75,33.1
2851,33.1
2851.25,33.1
2851.5,33.1
2851.75,33.1
2852,33.1
2852.25,33.1
2852.5,33.1
2852.75,33.1
2853,33.1
2853.25,33.1
2853.5,33.1
2853.75,33.1
2854,33.1
2854.25,33.1
2854.5,33.2212481309514
2854.75,33.3761627449438
2855,33.5310773589359
2855.25,33.6859919729283
2855.5,33.8409065869207
2855.75,33.9958212009128
2856,34.1507358149052
2856.25,34.3056504288973
2856.5,34.4605650428897
2856.75,34.6154796568821
2857,34.7703942708742
2857.25,34.9253088848666
2857.5,35.0802234988587
2857.75,35.2351381128511
2858,35.3900527268435
2858.25,35.5449673408356
2858.5,35.699881954828
2858.75,35.8547965688204
2859,36.0097111828125
2859.25,36.1646257968049
2859.5,36.2231368537027
2859.75,36.2531203273786
2860,36.2831038010546
2860.25,36.3130872747304
2860.5,36.3430707484064
2860.75,36.3730542220823
2861,36.4030376957582
2861.25,36.4330211694342
2861.5,36.4630046431101
2861.75,36.492988116786
2862,36.522971590462
2862.25,36.5529550641379
2862.5,36.5829385378138
2862.75,36.6129220114897
2863,36.6429054851656
2863.25,36.6728889588416
2863.5,36.7028724325175
2863.75,36.7328559061934
2864,36.7628393798694
2864.25,36.7928228535453
2864.5,36.8228063272212
2864.75,36.8527898008971
2865,36.8827732745731
2865.25,36.912756748249
2865.5,36.9427402219249
2865.75,36.9727236956008
2866,37.0027071692767
2866.25,37.0326906429527
2866.5,37.0626741166286
2866.75,37.0926575903045
2867,37.1226410639805
2867.25,37.1526245376564
2867.5,37.1826080113323
2867.75,37.2125914850083
2868,37.2425749586842
2868.25,37.2725584323601
2868.5,37.3025419060361
2868.75,37.332525379712
2869,37.3625088533879
2869.25,37.3924923270638
2869.5,37.3887620996301
2869.75,37.3737703627922
2870,37.3587786259542
2870.25,37.3437868891162
2870.5,37.3287951522783
2870.75,37.3138034154403
2871,37.2988116786023
2871.25,37.2838199417644
2871.5,37.2688282049264
2871.75,37.2538364680885
2872,37.2388447312505
2872.25,37.2238529944125
2872.5,37.2088612575746
2872.75,37.1938695207366
2873,37.1788777838986
2873.25,37.1638860470607
2873.5,37.1488943102227
2873.75,37.1339025733847
2874,37.1189108365468
2874.25,37.1039190997088
2874.5,37.0704729676557
2874.75,37.0304950027544
2875,36.9905170378531
2875.25,36.9505390729519
2875.5,36.9105611080507
2875.75,36.8705831431495
2876,36.8306051782482
2876.25,36.790627213347
2876.5,36.7506492484458
2876.75,36.7106712835445
2877,36.6706933186432
2877.25,36.6307153537421
2877.5,36.5907373888408
2877.75,36.5507594239396
2878,36.5107814590383
2878.25,36.4708034941371
2878.5,36.4308255292359
2878.75,36.3908475643346
2879,36.3508695994334
2879.25,36.3108916345322
2879.5,36.2672778783348
2879.75,36.2223026678209
2880,36.177327457307
2880.25,36.1323522467931
2880.5,36.0873770362792
2880.75,36.0424018257653
2881,35.9974266152515
2881.25,35.9524514047376
2881.5,35.9074761942236
2881.75,35.8625009837098
2882,35.8175257731959
2882.25,35.772550562682
2882.5,35.7275753521681
2882.75,35.6826001416542
2883,35.6376249311404
2883.25,35.5926497206264
2883.5,35.5476745101125
2883.75,35.5026992995987
2884,35.4577240890847
2884.25,35.4127488785709
2884.5,35.3713543716062
2884.75,35.3313764067049
2885,35.2913984418038
2885.25,35.2514204769025
2885.5,35.2114425120013
2885.75,35.1714645471
2886,35.1314865821988
2886.25,35.0915086172976
2886.5,35.0515306523963
2886.75,35.0115526874951
2887,34.9715747225939
2887.25,34.9315967576926
2887.5,34.8916187927914
2887.75,34.8516408278902
2888,34.8116628629889
2888.25,34.7716848980877
2888.5,34.7317069331864
2888.75,34.6917289682852
2889,34.651751003384
2889.25,34.6117730384827
2889.5,34.5929487683954
2889.75,34.5829542771701
2890,34.5729597859448
2890.25,34.5629652947195
2890.5,34.5529708034941
2890.75,34.5429763122688
2891,34.5329818210435
2891.25,34.5229873298182
2891.5,34.5129928385929
2891.75,34.5029983473676
2892,34.4930038561423
2892.25,34.483009364917
2892.5,34.4730148736917
2892.75,34.4630203824664
2893,34.453025891241
2893.25,34.4430314000157
2893.5,34.4330369087904
2893.75,34.4230424175651
2894,34.4130479263398
2894.25,34.4030534351145
2894.5,34.4520579208311
2894.75,34.5270166050208
2895,34.6019752892107
2895.25,34.6769339734005
2895.5,34.7518926575903
2895.75,34.8268513417801
2896,34.9018100259699
2896.25,34.9767687101597
2896.5,35.0517273943496
2896.75,35.1266860785393
2897,35.2016447627292
2897.25,35.2766034469189
2897.5,35.3515621311088
2897.75,35.4265208152987
2898,35.5014794994884
2898.25,35.5764381836783
2898.5,35.6513968678682
2898.75,35.7263555520579
2899,35.8013142362478
2899.25,35.8762729204375
2899.5,35.8658455969151
2899.75,35.8158731407885
2900,35.765900684662
2900.25,35.7159282285354
2900.5,35.665955772409
2900.75,35.6159833162824
2901,35.5660108601558
2901.25,35.5160384040293
2901.5,35.4660659479027
2901.75,35.4160934917762
2902,35.3661210356497
2902.25,35.3161485795231
2902.5,35.2661761233966
2902.75,35.21620366727
2903,35.1662312111434
2903.25,35.116258755017
2903.5,35.0662862988904
2903.75,35.0163138427639
2904,34.9663413866373
2904.25,34.9163689305107
2904.5,34.9840088140394
2904.75,35.1089399543559
2905,35.2338710946723
2905.25,35.3588022349885
2905.5,35.483733375305
2905.75,35.6086645156212
2906,35.7335956559376
2906.25,35.8585267962541
2906.5,35.9834579365703
2906.75,36.1083890768868
2907,36.233320217203
2907.25,36.3582513575194
2907.5,36.4831824978359
2907.75,36.6081136381521
2908,36.7330447784685
2908.25,36.857975918785
2908.5,36.9829070591012
2908.75,37.1078381994177
2909,37.2327693397339
2909.25,37.3577004800503
2909.5,37.390084205556
2909.75,37.375092468718
2910,37.3601007318801
2910.25,37.3451089950421
2910.5,37.3301172582041
2910.75,37.3151255213662
2911,37.3001337845282
2911.25,37.2851420476903
2911.5,37.2701503108523
2911.75,37.2551585740143
2912,37.2401668371764
2912.25,37.2251751003384
2912.5,37.2101833635004
2912.75,37.1951916266625
2913,37.1801998898245
2913.25,37.1652081529865
2913.5,37.1502164161486
2913.75,37.1352246793106
2914,37.1202329424726
2914.25,37.1052412056347
2914.5,37.1585031872196
2914.75,37.2484536082475
2915,37.3384040292752
2915.25,37.428354450303
2915.5,37.5183048713307
2915.75,37.6082552923585
2916,37.6982057133864
2916.25,37.788156134414
2916.5,37.8781065554419
2916.75,37.9680569764696
2917,38.0580073974974
2917.25,38.1479578185252
2917.5,38.2379082395529
2917.75,38.3278586605808
2918,38.4178090816086
2918.25,38.5077595026363
2918.5,38.5977099236641
2918.75,38.6876603446918
2919,38.7776107657197
2919.25,38.8675611867475
2919.5,38.8520736601874
2919.75,38.7771149759975
2920,38.7021562918076
2920.25,38.6271976076179
2920.5,38.552238923428
2920.75,38.4772802392383
2921,38.4023215550484
2921.25,38.3273628708585
2921.5,38.2524041866688
2921.75,38.1774455024789
2922,38.1024868182892
2922.25,38.0275281340993
2922.5,37.9525694499095
2922.75,37.8776107657197
2923,37.8026520815299
2923.25,37.72769339734
2923.5,37.6527347131503
2923.75,37.5777760289604
2924,37.5028173447707
2924.25,37.4278586605808
2924.5,37.4439600220351
2924.75,37.5139214606122
2925,37.5838828991894
2925.25,37.6538443377665
2925.5,37.7238057763437
2925.75,37.7937672149209
2926,37.863728653498
2926.25,37.9336900920752
2926.5,38.0036515306524
2926.75,38.0736129692295
2927,38.1435744078067
2927.25,38.2135358463838
2927.5,38.283497284961
2927.75,38.3534587235382
2928,38.4234201621153
2928.25,38.4933816006925
2928.5,38.5633430392696
2928.75,38.6333044778468
2929,38.703265916424
2929.25,38.7732273550011
2929.5,38.670433619265
2929.75,38.4605493035333
2930,38.2506649878021
2930.25,38.0407806720705
2930.5,37.8308963563392
2930.75,37.6210120406076
2931,37.4111277248759
2931.25,37.2012434091447
2931.5,36.9913590934131
2931.75,36.7814747776818
2932,36.5715904619502
2932.25,36.3617061462185
2932.5,36.1518218304873
2932.75,35.9419375147557
2933,35.732053199024
2933.25,35.5221688832928
2933.5,35.3122845675612
2933.75,35.1024002518299
2934,34.8925159360983
2934.25,34.6826316203666
2934.5,34.6242386086409
2934.75,34.6642165735421
2935,34.7041945384433
2935.25,34.7441725033446
2935.5,34.7841504682459
2935.75,34.8241284331471
2936,34.8641063980483
2936.25,34.9040843629496
2936.5,34.9440623278508
2936.75,34.984040292752
2937,35.0240182576532
2937.25,35.0639962225545
2937.5,35.1039741874557
2937.75,35.1439521523569
2938,35.1839301172582
2938.25,35.2239080821594
2938.5,35.2638860470607
2938.75,35.3038640119619
2939,35.3438419768631
2939.25,35.3838199417644
2939.5,35.3881010466672
2939.75,35.3681120642166
2940,35.3481230817659
2940.25,35.3281340993154
2940.5,35.3081451168647
2940.75,35.2881561344141
2941,35.2681671519635
2941.25,35.2481781695129
2941.5,35.2281891870623
2941.75,35.2082002046116
2942,35.188211222161
2942.25,35.1682222397104
2942.5,35.1482332572598
2942.75,35.1282442748091
2943,35.1082552923586
2943.25,35.0882663099079
2943.5,35.0682773274573
2943.75,35.0482883450067
2944,35.0282993625561
2944.25,35.0083103801055
2944.5,35.0496340599669
2944.75,35.134587235382
2945,35.2195404107972
2945.25,35.3044935862123
2945.5,35.3894467616274
2945.75,35.4743999370426
2946,35.5593531124578
2946.25,35.6443062878728
2946.5,35.729259463288
2946.75,35.814212638703
2947,35.8991658141182
2947.25,35.9841189895334
2947.5,36.0690721649484
2947.75,36.1540253403636
2948,36.2389785157788
2948.25,36.3239316911938
2948.5,36.408884866609
2948.75,36.493838042024
2949,36.5787912174392
2949.25,36.6637443928544
2949.5,36.6914063114819
2949.75,36.6764145746439
2950,36.661422837806
2950.25,36.646431100968
2950.5,36.63143936413
2950.75,36.6164476272921
2951,36.6014558904541
2951.25,36.5864641536161
2951.5,36.5714724167782
2951.75,36.5564806799402
2952,36.5414889431022
2952.25,36.5264972062643
2952.5,36.5115054694263
2952.75,36.4965137325883
2953,36.4815219957504
2953.25,36.4665302589124
2953.5,36.4515385220745
2953.75,36.4365467852365
2954,36.4215550483985
2954.25,36.4065633115606
2954.5,36.3887620996301
2954.75,36.3687731171795
2955,36.3487841347289
2955.25,36.3287951522783
2955.5,36.3088061698277
2955.75,36.288817187377
2956,36.2688282049264
2956.25,36.2488392224758
2956.5,36.2288502400252
2956.75,36.2088612575746
2957,36.1888722751239
2957.25,36.1688832926733
2957.5,36.1488943102227
2957.75,36.1289053277721
2958,36.1089163453215
2958.25,36.0889273628709
2958.5,36.0689383804203
2958.75,36.0489493979696
2959,36.028960415519
2959.25,36.0089714330684
2959.5,36.0413158101834
2959.75,36.1162744943731
2960,36.191233178563
2960.25,36.2661918627528
2960.5,36.3411505469426
2960.75,36.4161092311324
2961,36.4910679153223
2961.25,36.566026599512
2961.5,36.6409852837019
2961.75,36.7159439678916
2962,36.7909026520815
2962.25,36.8658613362714
2962.5,36.9408200204611
2962.75,37.015778704651
2963,37.0907373888407
2963.25,37.1656960730306
2963.5,37.2406547572205
2963.75,37.3156134414102
2964,37.3905721256001
2964.25,37.4655308097899
2964.5,37.5053985991973
2964.75,37.5153930904226
2965,37.5253875816479
2965.25,37.5353820728732
2965.5,37.5453765640985
2965.75,37.5553710553238
2966,37.5653655465491
2966.25,37.5753600377744
2966.5,37.5853545289998
2966.75,37.5953490202251
2967,37.6053435114504
2967.25,37.6153380026757
2967.5,37.625332493901
2967.75,37.6353269851263
2968,37.6453214763516
2968.25,37.6553159675769
2968.5,37.6653104588022
2968.75,37.6753049500276
2969,37.6852994412529
2969.25,37.6952939324782
2969.5,37.7105768474069
2969.75,37.7305658298576
2970,37.7505548123082
2970.25,37.7705437947588
2970.5,37.7905327772094
2970.75,37.81052175966
2971,37.8305107421106
2971.25,37.8504997245613
2971.5,37.8704887070119
2971.75,37.8904776894625
2972,37.9104666719131
2972.25,37.9304556543637
2972.5,37.9504446368144
2972.75,37.970433619265
2973,37.9904226017156
2973.25,38.0104115841662
2973.5,38.0304005666168
2973.75,38.0503895490674
2974,38.0703785315181
2974.25,38.0903675139687
2974.5,38.0585740143228
2974.75,37.9786180845204
2975,37.8986621547179
2975.25,37.8187062249154
2975.5,37.738750295113
2975.75,37.6587943653105
2976,37.5788384355081
2976.25,37.4988825057056
2976.5,37.418926575903
2976.75,37.3389706461006
2977,37.2590147162981
2977.25,37.1790587864956
2977.5,37.0991028566932
2977.75,37.0191469268907
2978,36.9391909970883
2978.25,36.8592350672858
2978.5,36.7792791374832
2978.75,36.6993232076809
2979,36.6193672778783
2979.25,36.5394113480758
2979.5,36.5228063272212
2979.75,36.5677815377351
2980,36.612756748249
2980.25,36.6577319587629
2980.5,36.7027071692768
2980.75,36.7476823797906
2981,36.7926575903046
2981.25,36.8376328008184
2981.5,36.8826080113323
2981.75,36.9275832218462
2982,36.9725584323601
2982.25,37.017533642874
2982.5,37.0625088533879
2982.75,37.1074840639018
2983,37.1524592744157
2983.25,37.1974344849295
2983.5,37.2424096954434
2983.75,37.2873849059574
2984,37.3323601164712
2984.25,37.3773353269851
2984.5,37.4471000236089
2984.75,37.5420476902494
2985,37.6369953568899
2985.25,37.7319430235303
2985.5,37.8268906901708
2985.75,37.9218383568113
2986,38.0167860234516
2986.25,38.1117336900921
2986.5,38.2066813567324
2986.75,38.3016290233729
2987,38.3965766900134
2987.25,38.4915243566537
2987.5,38.5864720232942
2987.75,38.6814196899346
2988,38.7763673565751
2988.25,38.8713150232156
2988.5,38.9662626898559
2988.75,39.0612103564964
2989,39.1561580231369
2989.25,39.2511056897772
2989.5,39.2006217045722
2989.75,38.9957346344536
2990,38.7908475643347
2990.25,38.5859604942157
2990.5,38.3810734240971
2990.75,38.1761863539781
2991,37.9712992838595
2991.25,37.7664122137405
2991.5,37.5615251436216
2991.75,37.356638073503
2992,37.151751003384
2992.25,36.946863933265
2992.5,36.7419768631464
2992.75,36.5370897930274
2993,36.3322027229088
2993.25,36.1273156527898
2993.5,35.9224285826709
2993.75,35.7175415125523
2994,35.5126544424333
2994.25,35.3077673723147
2994.5,35.2473754623436
2994.75,35.3473203745967
2995,35.4472652868497
2995.25,35.5472101991029
2995.5,35.647155111356
2995.75,35.747100023609
2996,35.8470449358621
2996.25,35.9469898481151
2996.5,36.0469347603683
2996.75,36.1468796726214
2997,36.2468245848744
2997.25,36.3467694971276
2997.5,36.4467144093805
2997.75,36.5466593216337
2998,36.6466042338869
2998.25,36.7465491461398
2998.5,36.846494058393
2998.75,36.9464389706462
2999,37.0463838828991
2999.25,37.1463287951523
2999.5,37.1583536633353
2999.75,37.0684032423074
3000,36.9784528212796
3000.25,36.8885024002519
3000.5,36.7985519792241
3000.75,36.7086015581964
3001,36.6186511371685
3001.25,36.5287007161407
3001.5,36.438750295113
3001.75,36.3487998740852
3002,36.2588494530573
3002.25,36.1688990320296
3002.5,36.0789486110018
3002.75,35.9889981899741
3003,35.8990477689463
3003.25,35.8090973479184
3003.5,35.7191469268908
3003.75,35.6291965058629
3004,35.5392460848352
3004.25,35.4492956638074
3004.5,35.4474305500905
3004.75,35.5523727079562
3005,35.657314865822
3005.25,35.7622570236878
3005.5,35.8671991815534
3005.75,35.9721413394192
3006,36.0770834972849
3006.25,36.1820256551507
3006.5,36.2869678130165
3006.75,36.3919099708821
3007,36.4968521287479
3007.25,36.6017942866136
3007.5,36.7067364444794
3007.75,36.8116786023452
3008,36.9166207602108
3008.25,37.0215629180766
3008.5,37.1265050759424
3008.75,37.2314472338081
3009,37.3363893916739
3009.25,37.4413315495395
3009.5,37.4867789407413
3009.75,37.4567954670654
3010,37.4268119933895
3010.25,37.3968285197135
3010.5,37.3668450460376
3010.75,37.3368615723617
3011,37.3068780986858
3011.25,37.2768946250099
3011.5,37.2469111513339
3011.75,37.216927677658
3012,37.1869442039821
3012.25,37.1569607303061
3012.5,37.1269772566302
3012.75,37.0969937829543
3013,37.0670103092783
3013.25,37.0370268356024
3013.5,37.0070433619265
3013.75,36.9770598882506
3014,36.9470764145747
3014.25,36.9170929408987
3014.5,36.8914063114819
3014.75,36.8714173290312
3015,36.8514283465806
3015.25,36.83143936413
3015.5,36.8114503816794
3015.75,36.7914613992288
3016,36.7714724167782
3016.25,36.7514834343275
3016.5,36.7314944518769
3016.75,36.7115054694263
3017,36.6915164869757
3017.25,36.6715275045251
3017.5,36.6515385220744
3017.75,36.6315495396238
3018,36.6115605571732
3018.25,36.5915715747226
3018.5,36.571582592272
3018.75,36.5515936098214
3019,36.5316046273708
3019.25,36.5116156449201
3019.5,36.4602266467301
3019.75,36.3652789800898
3020,36.2703313134493
3020.25,36.1753836468088
3020.5,36.0804359801685
3020.75,35.985488313528
3021,35.8905406468876
3021.25,35.7955929802471
3021.5,35.7006453136066
3021.75,35.6056976469663
3022,35.5107499803258
3022.25,35.4158023136855
3022.5,35.320854647045
3022.75,35.2259069804045
3023,35.1309593137641
3023.25,35.0360116471236
3023.5,34.9410639804831
3023.75,34.8461163138428
3024,34.7511686472023
3024.25,34.656220980562
3024.5,34.6101912331786
3024.75,34.6351774612418
3025,34.6601636893051
3025.25,34.6851499173684
3025.5,34.7101361454316
3025.75,34.7351223734949
3026,34.7601086015582
3026.25,34.7850948296215
3026.5,34.8100810576847
3026.75,34.835067285748
3027,34.8600535138113
3027.25,34.8850397418746
3027.5,34.9100259699378
3027.75,34.9350121980011
3028,34.9599984260644
3028.25,34.9849846541276
3028.5,35.0099708821909
3028.75,35.0349571102542
3029,35.0599433383175
3029.25,35.0849295663807
3029.5,35.0861178877784
3029.75,35.0511371684898
3030,35.0161564492012
3030.25,34.9811757299127
3030.5,34.9461950106241
3030.75,34.9112142913355
3031,34.8762335720469
3031.25,34.8412528527583
3031.5,34.8062721334698
3031.75,34.7712914141812
3032,34.7363106948926
3032.25,34.701329975604
3032.5,34.6663492563154
3032.75,34.6313685370269
3033,34.5963878177383
3033.25,34.5614070984497
3033.5,34.5264263791611
3033.75,34.4914456598725
3034,34.456464940584
3034.25,34.4214842212954
3034.5,34.4096403557095
3034.75,34.4346265837727
3035,34.459612811836
3035.25,34.4845990398992
3035.5,34.5095852679625
3035.75,34.5345714960258
3036,34.5595577240891
3036.25,34.5845439521524
3036.5,34.6095301802156
3036.75,34.6345164082789
3037,34.6595026363422
3037.25,34.6844888644054
3037.5,34.7094750924687
3037.75,34.734461320532
3038,34.7594475485952
3038.25,34.7844337766585
3038.5,34.8094200047218
3038.75,34.8344062327851
3039,34.8593924608484
3039.25,34.8843786889116
3039.5,34.9
3039.75,34.9
3040,34.9
3040.25,34.9
3040.5,34.9
3040.75,34.9
3041,34.9
3041.25,34.9
3041.5,34.9
3041.75,34.9
3042,34.9
3042.25,34.9
3042.5,34.9
3042.75,34.9
3043,34.9
3043.25,34.9
3043.5,34.9
3043.75,34.9
3044,34.9
3044.25,34.9
3044.5,34.9
3044.75,34.9
3045,34.9
3045.25,34.9
3045.5,34.9
3045.75,34.9
3046,34.9
3046.25,34.9
3046.5,34.9
3046.75,34.9
3047,34.9
3047.25,34.9
3047.5,34.9
3047.75,34.9
3048,34.9
3048.25,34.9
3048.5,34.9
3048.75,34.9
3049,34.9
3049.25,34.9
3049.5,34.9017628079012
3049.75,34.9067600535138
3050,34.9117572991265
3050.25,34.9167545447391
3050.5,34.9217517903518
3050.75,34.9267490359644
3051,34.9317462815771
3051.25,34.9367435271897
3051.5,34.9417407728024
3051.75,34.946738018415
3052,34.9517352640277
3052.25,34.9567325096404
3052.5,34.961729755253
3052.75,34.9667270008657
3053,34.9717242464783
3053.25,34.976721492091
3053.5,34.9817187377036
3053.75,34.9867159833163
3054,34.9917132289289
