2646,825.896111720911
2646.25,825.899059115655
2646.5,826.375275775801
2646.75,827.648727928656
2647,829.692027186158
2647.25,832.044715395973
2647.5,834.219730998095
2647.75,835.831650392476
2648,836.786603772919
2648.25,837.042672925629
2648.5,836.575189919741
2648.75,835.497221115224
2649,833.987815268575
2649.25,832.227822526066
2649.5,830.444022318235
2649.75,828.918599515331
2650,827.936948465612
2650.25,827.645891855141
2650.5,827.775987282101
2650.75,827.979951677203
2651,827.961247922394
2651.25,827.817827289229
2651.5,827.83235780623
2651.75,828.272639256237
2652,828.988051516452
2652.25,829.378326317491
2652.5,828.822282034769
2652.75,827.172171774832
2653,825.461409737882
2653.25,824.904564480447
2653.5,826.467034043803
2653.75,829.514995296953
2654,832.782777044
2654.25,835.046888619786
2654.5,835.906601026791
2654.75,835.693484820937
2655,834.764387893638
2655.25,833.421465256316
2655.5,831.847777683326
2655.75,830.210716665179
2656,828.670319774295
2656.25,827.342846192291
2656.5,826.328420829094
2656.75,825.717845154606
2657,825.430143275212
2657.25,825.233122426775
2657.5,824.890465724644
2657.75,824.298411418432
2658,823.614270782846
2658.25,823.025863792628
2658.5,822.645598426729
2658.75,822.229991644032
2659,821.430673539468
2659.25,819.955840545273
2659.5,818.205057211457
2659.75,817.040428769438
2660,817.317494573075
2660.25,819.183919878375
2660.5,821.789729845556
2660.75,824.210001513123
2661,825.781444509602
2661.25,826.615487200602
2661.5,826.966275093541
2661.75,827.043809502984
2662,826.73728578028
2662.25,825.794217285654
2662.5,823.978863352247
2662.75,821.46006989275
2663,818.814104671676
2663.25,816.634260617775
2663.5,815.313842562402
2663.75,814.796680645743
2664,814.965277339009
2664.25,815.656557412911
2664.5,816.482032530859
2664.75,816.983653244191
2665,816.74603145104
2665.25,815.844826505362
2665.5,814.67008714989
2665.75,813.615497550527
2666,813.017094668706
2666.25,813.136344295016
2666.5,814.229343567209
2666.75,816.351253209182
2667,819.034215056
2667.25,821.726358190524
2667.5,823.944722503417
2667.75,825.590950669631
2668,826.700059836619
2668.25,827.308947581712
2668.5,827.480499389791
2668.75,827.297511355552
2669,826.843513704461
2669.25,826.22053578839
2669.5,825.562487056173
2669.75,825.006431664215
2670,824.672677866931
2670.25,824.611624008146
2670.5,824.855438573895
2670.75,825.429280666208
2671,826.282292972917
2671.25,827.317052397101
2671.5,828.435046927343
2671.75,829.520142146438
2672,830.432456858186
2672.25,831.030477235545
2672.5,831.304385173743
2672.75,831.666580583388
2673,832.613904107164
2673.25,834.570219069888
2673.5,837.324697671676
2673.75,840.339917829062
2674,843.084716595838
2674.25,845.341080863912
2674.5,847.278696049383
2674.75,849.091307423695
2675,850.831969362464
2675.25,852.069700441303
2675.5,852.26950424684
2675.75,850.969986865857
2676,848.604489362064
2676.25,846.202729645529
2676.5,844.800814748269
2676.75,844.877763816058
2677,845.820230438353
2677.25,846.887896083429
2677.5,847.444238633119
2677.75,847.474821684859
2678,847.195922801064
2678.25,846.81790655224
2678.5,846.390822464647
2678.75,845.795224425086
2679,844.903608318151
2679.25,843.712684726079
2679.5,842.598422380021
2679.75,842.008918331446
2680,842.340401815236
2680.25,843.473380900364
2680.5,844.992867974979
2680.75,846.482996369491
2681,847.674507093604
2681.25,848.519674636534
2681.5,848.98917821728
2681.75,849.023676520536
2682,848.427989429676
2682.25,846.968534422122
2682.5,844.442758045398
2682.75,841.187926468837
2683,837.999210747337
2683.25,835.684858775772
2683.5,834.650038203824
2683.75,834.346036464309
2684,834.086173032347
2684.25,833.284112872928
2684.5,832.016805163351
2684.75,830.630380572075
2685,829.460062411108
2685.25,828.571480097289
2685.5,827.760125122592
2685.75,826.8104098309
2686,825.70555129336
2686.25,824.898951959286
2686.5,824.911975689851
2686.75,826.149233451814
2687,828.325860504286
2687.25,830.90479396273
2687.5,833.363917093406
2687.75,835.438461287092
2688,837.077192156269
2688.25,838.235231190984
2688.5,838.853840814472
2688.75,838.846882214805
2689,838.124999611502
2689.25,836.658027923004
2689.5,834.744298584384
2689.75,832.795450972495
2690,831.213426317377
2690.25,830.211685978261
2690.5,829.833740224615
2690.75,830.116331879402
2691,830.971253409184
2691.25,832.040504712062
2691.5,832.930934556827
2691.75,833.341740694524
2692,833.484307422616
2692.25,833.746577988937
2692.5,834.499858108996
2692.75,835.819257757423
2693,837.526554964844
2693.25,839.435466367723
2693.5,841.376057148321
2693.75,843.212513077495
2694,844.813292410554
2694.25,846.035791760881
2694.5,846.671401616122
2694.75,846.487132636648
2695,845.266211080785
2695.25,843.187515842033
2695.5,840.838081946569
2695.75,838.823553312786
2696,837.574908404122
2696.25,837.010384176756
2696.5,836.954612154954
2696.75,837.229369139303
2697,837.63143685865
2697.25,837.944664061538
2697.5,837.957702738606
2697.75,837.649836234432
2698,837.247797686001
2698.25,836.994835096917
2698.5,837.095347540639
2698.75,837.619274604574
2699,838.607486134118
2699.25,840.07515714582
2699.5,841.772596770573
2699.75,843.294038231523
2700,844.234543822468
2700.25,844.346602454322
2700.5,843.619554620307
2700.75,842.062300723725
2701,839.786479824836
2701.25,837.355342612508
2701.5,835.456192778179
2701.75,834.725623802632
2702,835.043329686095
2702.25,835.707326232533
2702.5,836.004075691747
2702.75,835.585704850799
2703,834.79396522991
2703.25,834.047047182626
2703.5,833.710443508173
2703.75,833.878812421418
2704,834.560046850717
2704.25,835.747044792763
2704.5,837.191034922306
2704.75,838.447611595067
2705,839.068232615108
2705.25,838.801051439858
2705.5,837.785891667056
2705.75,836.2089551355
2706,834.274330632011
2706.25,832.287398790621
2706.5,830.589155033994
2706.75,829.504574074657
2707,829.051800547244
2707.25,828.973335033147
2707.5,829.002503082593
2707.75,828.975413511387
2708,828.944361919222
2708.25,828.988962141672
2708.5,829.213440012535
2708.75,829.853045157337
2709,831.186455096956
2709.25,833.453291053947
2709.5,836.282778614258
2709.75,838.820825989423
2710,840.204457862432
2710.25,840.04237811436
2710.5,838.831310705723
2710.75,837.166198583555
2711,835.579043358296
2711.25,834.262881745024
2711.5,833.297146199317
2711.75,832.755725423918
2712,832.613599634695
2712.25,832.75973241697
2712.5,833.080234397711
2712.75,833.463559550625
2713,833.803084882247
2713.25,833.992808635795
2713.5,834.002128405677
2713.75,834.221396050707
2714,835.186989541088
2714.25,837.394468533944
2714.5,840.598218596821
2714.75,843.908413317217
2715,846.415533510643
2715.25,847.540133991321
2715.5,847.419348633963
2715.75,846.284264113447
2716,844.402417783772
2716.25,842.289459397935
2716.5,840.56442981478
2716.75,839.827793295925
2717,840.098503784066
2717.25,840.718765817897
2717.5,840.992798217855
2717.75,840.495581087893
2718,839.6503322229
2718.25,839.045931997709
2718.5,839.220176521218
2718.75,840.215482206453
2719,841.795955434996
2719.25,843.722359795363
2719.5,845.743132597761
2719.75,847.589014662413
2720,848.989378102492
2720.25,849.70439296516
2720.5,849.621096796329
2720.75,848.65919021112
2721,846.767476983793
2721.25,844.340264070681
2721.5,842.120013155664
2721.75,840.856339740429
2722,840.865053693672
2722.25,841.500422303447
2722.5,841.987586037154
2722.75,841.688894201206
2723,840.864418245713
2723.25,840.135187550474
2723.5,840.107246204895
2723.75,840.963002930816
2724,842.427316964456
2724.25,844.202301438636
2724.5,846.007074886124
2724.75,847.609750977023
2725,848.787214100946
2725.25,849.327717316806
2725.5,849.123705831074
2725.75,848.12357915791
2726,846.280386571747
2726.25,843.78473382572
2726.5,841.190202126593
2726.75,839.080992201982
2727,837.895014750328
2727.25,837.391754155643
2727.5,837.134171012015
2727.75,836.708297614336
2728,836.052847496283
2728.25,835.381736226307
2728.5,834.91611361056
2728.75,834.86934153052
2729,835.439527744017
2729.25,836.823009294799
2729.5,839.086525501778
2729.75,841.610617034706
2730,843.549566434844
2730.25,844.100684346327
2730.5,843.224835737808
2730.75,841.537319836401
2731,839.673988458431
2731.25,838.103729436811
2731.5,836.90480123475
2731.75,836.099681819418
2732,835.699984402715
2732.25,835.642746856086
2732.5,835.833696870573
2732.75,836.180897280367
2733,836.65446690268
2733.25,837.29002945279
2733.5,838.126365880525
2733.75,839.216351132395
2734,840.650652135011
2734.25,842.526204063599
2734.5,844.897601832151
2734.75,847.489297006423
2735,849.87075139793
2735.25,851.618137189943
2735.5,852.584164492683
2735.75,852.970095230151
2736,852.999441482291
2736.25,852.884263951487
2736.5,852.791844113841
2736.75,852.878519486836
2737,853.286578194635
2737.25,853.944402661288
2737.5,854.613804928595
2737.75,855.052977937457
2738,855.22494314236
2738.25,855.571167008228
2738.5,856.601312399173
2738.75,858.753778427633
2739,861.874399942283
2739.25,865.51525807939
2739.5,869.226938160681
2739.75,872.59613327165
2740,875.265129732946
2740.25,876.880952655751
2740.5,877.191619734177
2740.75,876.555448017967
2741,875.55884587604
2741.25,874.7818859472
2741.5,874.459601199193
2741.75,874.323527231704
2742,874.065351888996
2742.25,873.432557877521
2742.5,872.518109695721
2742.75,871.547041781266
2743,870.744871316005
2743.25,870.347964187068
2743.5,870.608343875875
2743.75,871.7792539587
2744,873.994460387607
2744.25,876.692622701222
2744.5,879.061684081264
2744.75,880.30434031986
2745,880.252621909734
2745.25,879.581704124408
2745.5,879.02576372521
2745.75,879.188097821577
2746,879.891894022571
2746.25,880.672499215969
2746.5,881.071369930217
2746.75,880.974710598165
2747,880.776571438854
2747.25,880.911730027026
2747.5,881.730958636043
2747.75,883.018013552188
2748,884.322149399156
2748.25,885.196569772367
2748.5,885.544536047469
2748.75,885.855393460508
2749,886.674353208302
2749.25,888.467738813037
2749.5,891.047835011634
2749.75,893.903492641784
2750,896.521963190219
2750.25,898.511633756308
2750.5,899.738818155043
2750.75,900.10289325546
2751,899.524574750568
2751.25,898.205793328598
2751.5,896.547001285627
2751.75,894.952816838697
2752,893.735340818607
2752.25,892.871331742345
2752.5,892.261593457707
2752.75,891.810407046432
2753,891.522910134344
2753.25,891.51827304761
2753.5,891.921791038324
2753.75,892.813363789864
2754,894.015853294409
2754.25,895.261756460347
2754.5,896.285005465567
2754.75,896.92336193944
2755,897.182665613151
2755.25,897.084082812388
2755.5,896.650982401048
2755.75,895.927017767744
2756,894.966778600456
2756.25,893.825008978784
2756.5,892.579904457499
2756.75,891.370773492867
2757,890.34675348268
2757.25,889.644427369589
2757.5,889.18767006858
2757.75,888.722890086981
2758,887.991062481039
2758.25,886.861703514322
2758.5,885.704175262147
2758.75,885.009320645435
2759,885.25439044846
2759.25,886.531504991702
2759.5,888.502462793359
2759.75,890.806397074482
2760,893.060690628286
2760.25,894.771206721011
2760.5,895.408164105503
2760.75,894.452272616785
2761,891.931458172481
2761.25,888.677167899476
2761.5,885.585000168722
2761.75,883.437321349713
2762,882.105232877365
2762.25,881.020354883449
2762.5,879.61363979467
2762.75,877.625555671905
2763,875.425148811759
2763.25,873.457670030601
2763.5,872.126786451738
2763.75,871.427055783765
2764,871.120565370059
2764.25,870.96760563924
2764.5,870.871959500623
2764.75,871.038549038469
2765,871.710250009505
2765.25,873.055354061956
2765.5,874.566369425308
2765.75,875.376229643382
2766,874.619724121863
2766.25,872.059368279558
2766.5,868.676521165666
2766.75,865.592538206374
2767,863.80231823808
2767.25,863.20071321261
2767.5,863.116419566802
2767.75,862.877973791687
2768,862.192217584004
2768.25,861.424392612649
2768.5,861.005721355219
2768.75,861.308502988654
2769,862.319387398236
2769.25,863.869914561089
2769.5,865.789403142681
2769.75,867.834876582832
2770,869.668044715588
2770.25,870.944104648202
2770.5,871.379510122108
2770.75,870.989131979991
2771,869.878579480629
2771.25,868.157250613791
2771.5,866.045214056897
2771.75,863.888466213737
2772,862.039838449963
2772.25,860.761520565376
2772.5,859.924419092451
2772.75,859.293880845548
2773,858.644702299809
2773.25,857.944073513635
2773.5,857.338643008414
2773.75,856.981909083616
2774,857.009120149528
2774.25,857.49980629279
2774.5,858.522901551279
2774.75,860.108776226278
2775,861.833179948325
2775.25,862.975530887371
2775.5,862.813363242922
2775.75,861.116242292647
2776,858.672238833315
2776.25,856.395729065015
2776.5,855.083824110645
2776.75,854.593758414813
2777,854.331052827105
2777.25,853.705766841723
2777.5,852.520748742305
2777.75,851.159614694844
2778,850.052798458373
2778.25,849.563120354035
2778.5,849.724668108878
2778.75,850.471767254773
2779,851.736130683267
2779.25,853.39869745916
2779.5,855.294086856894
2779.75,857.255215827313
2780,859.11154119931
2780.25,860.683131695513
2780.5,861.788479111874
2780.75,862.257124217587
2781,862.031355896089
2781.25,861.119383775896
2781.5,859.531858529238
2781.75,857.464406842599
2782,855.466623636786
2782.25,854.128044828471
2782.5,853.93096204348
2782.75,854.603287790441
2783,855.549218005036
2783.25,856.18282772094
2783.5,856.351714028686
2783.75,856.467309955465
2784,856.978798654446
2784.25,858.241735809834
2784.5,860.208735076505
2784.75,862.724035109967
2785,865.616465197904
2785.25,868.428796421228
2785.5,870.451225327156
2785.75,870.965491809029
2786,869.626280386401
2786.25,867.22351368767
2786.5,864.762338327783
2786.75,863.193362883813
2787,862.675943806693
2787.25,862.772769218525
2787.5,863.032189560978
2787.75,863.136087839239
2788,863.107757399758
2788.25,863.024276642155
2788.5,862.966585908374
2788.75,863.055497197524
2789,863.435345762311
2789.25,864.249846110472
2789.5,865.528620607963
2789.75,867.078520699577
2790,868.680636429431
2790.25,870.122508943496
2790.5,871.240580784526
2790.75,871.893700421253
2791,871.941970804689
2791.25,871.323012000549
2791.5,870.100235174671
2791.75,868.348559314235
2792,866.187926391806
2792.25,864.042397153455
2792.5,862.461890713155
2792.75,861.988425471491
2793,862.739437001325
2793.25,864.213380137658
2793.5,865.859787879377
2793.75,867.239031451623
2794,868.495789589531
2794.25,869.966591599352
2794.5,871.977729003251
2794.75,874.541641680761
2795,877.307972598522
2795.25,879.906159838115
2795.5,882.001862757201
2795.75,883.423836808598
2796,884.046722294826
2796.25,883.753671337432
2796.5,882.691171679816
2796.75,881.313196915236
2797,880.09112655097
2797.25,879.405763944695
2797.5,879.155004874886
2797.75,879.076455569692
2798,878.913002542779
2798.25,878.637029912149
2798.5,878.531235026654
2798.75,878.900327018369
2799,880.001761040769
2799.25,881.811774989232
2799.5,884.202996431397
2799.75,887.044251675789
2800,890.013953564039
2800.25,892.510395572393
2800.5,893.909448883539
2800.75,893.707935944604
2801,892.271150749063
2801.25,890.343904521064
2801.5,888.670777710094
2801.75,887.733900394669
2802,887.481375243383
2802.25,887.796413929322
2802.5,888.553792116634
2802.75,889.533862060367
2803,890.457745052998
2803.25,891.045924671509
2803.5,891.21820048298
2803.75,891.444646743162
2804,892.289497967577
2804.25,894.281090844265
2804.5,897.31882420648
2804.75,900.766223462022
2805,903.969678825162
2805.25,906.393233574475
2805.5,907.986759120073
2805.75,908.825510060783
2806,908.986152858749
2806.25,908.609923318273
2806.5,907.928014944358
2806.75,907.178286305438
2807,906.589697323322
2807.25,906.310453090753
2807.5,906.445735368231
2807.75,907.100240445103
2808,908.291364288507
2808.25,909.784292341879
2808.5,911.298932100571
2808.75,912.565213066446
2809,913.564654957642
2809.25,914.542670347744
2809.5,915.75715610288
2809.75,917.416134048637
2810,919.396520103038
2810.25,921.440328851912
2810.5,923.289232190766
2810.75,924.701841413085
2811,925.477917164823
2811.25,925.42334800103
2811.5,924.357820559605
2811.75,922.453848441495
2812,920.257681442656
2812.25,918.333553633954
2812.5,917.179157822177
2812.75,916.764140190635
2813,916.806499859489
2813.25,917.022740249137
2813.5,917.185814165927
2813.75,917.233446871832
2814,917.133266004299
2814.25,916.855744167984
2814.5,916.460571256783
2814.75,916.112289781463
2815,915.981439869219
2815.25,916.185275647653
2815.5,916.407310776899
2815.75,916.119854274281
2816,914.794052124884
2816.25,912.183054535377
2816.5,908.862606467621
2816.75,905.557628512568
2817,902.976086838902
2817.25,901.317030641166
2817.5,900.194148874544
2817.75,899.188793498551
2818,897.953281375237
2818.25,896.615965822032
2818.5,895.50097900962
2818.75,894.931589960945
2819,895.023056816878
2819.25,895.469086883217
2819.5,895.912409358461
2819.75,896.02141058684
2820,895.776158449705
2820.25,895.364365677912
2820.5,894.977485049533
2820.75,894.710782325687
2821,894.347981817197
2821.25,893.609846929348
2821.5,892.230533446801
2821.75,890.26597930249
2822,888.1017384013
2822.25,886.13832407638
2822.5,884.706534139876
2822.75,883.781114660478
2823,883.223440048748
2823.25,882.896276542194
2823.5,882.727638646671
2823.75,882.736094199639
2824,882.946882921153
2824.25,883.400360934172
2824.5,884.234375264853
2824.75,885.625462199998
2825,887.745690212671
2825.25,890.443602346073
2825.5,893.035465685448
2825.75,894.787959451703
2826,895.067631356294
2826.25,894.073133071133
2826.5,892.416319707493
2826.75,890.711520055612
2827,889.437343465005
2827.25,888.754962553862
2827.5,888.780235999041
2827.75,889.607978082532
2828,891.040990518294
2828.25,892.668436145899
2828.5,894.074627436462
2828.75,895.022389331857
2829,895.865411663383
2829.25,897.079468126007
2829.5,899.122609876901
2829.75,902.020219053712
2830,905.350616459413
2830.25,908.671520929897
2830.5,911.562972654198
2830.75,913.72740157199
2831,914.908968917189
2831.25,914.855102700844
2831.5,913.669391986679
2831.75,912.129158556017
2832,911.086679436399
2832.25,911.334226113131
2832.5,912.765096186224
2832.75,914.579985603145
2833,915.961741249689
2833.25,916.310972344111
2833.5,916.023102327613
2833.75,915.777473243878
2834,916.248826945988
2834.25,917.729530575907
2834.5,919.849356026688
2834.75,922.17204273063
2835,924.263175884854
2835.25,925.7131211355
2835.5,926.129965637217
2835.75,925.122180584239
2836,922.479368950417
2836.25,918.869427455999
2836.5,915.22609283519
2836.75,912.479480857591
2837,911.046347031955
2837.25,910.307449652885
2837.5,909.518891395017
2837.75,907.984641190541
2838,905.77184592476
2838.25,903.560130482209
2838.5,902.046388074081
2838.75,901.75200123668
2839,902.378155034915
2839.25,903.386638075889
2839.5,904.242284673014
2839.75,904.585453047709
2840,904.323548082299
2840.25,903.386370067623
2840.5,901.727766096607
2840.75,899.529775999232
2841,897.100456279192
2841.25,894.749108393627
2841.5,892.708293613659
2841.75,890.990694646523
2842,889.569862034397
2842.25,888.421645015543
2842.5,887.567483888533
2842.75,887.070699099314
2843,886.996165929934
2843.25,887.38456206872
2843.5,888.172736831628
2843.75,889.26969686056
2844,890.580775751005
2844.25,891.890047348258
2844.5,892.835492047408
2844.75,893.046396681815
2845,892.234149223069
2845.25,890.59889826554
2845.5,888.520924629331
2845.75,886.37927148792
2846,884.432257658062
2846.25,882.73181067544
2846.5,881.309643818406
2846.75,880.216674733248
2847,879.671578725318
2847.25,879.979667073818
2847.5,881.445064451534
2847.75,884.071187507539
2848,887.235687244684
2848.25,890.238127607768
2848.5,892.427873020044
2848.75,893.666506649592
2849,894.116929870125
2849.25,893.945966001912
2849.5,893.354851780853
2849.75,892.636624384344
2850,892.099462734406
2850.25,892.036164167143
2850.5,892.469916062305
2850.75,893.194125956381
2851,893.99484968841
2851.25,894.674785674312
2851.5,895.104556944362
2851.75,895.172113118744
2852,894.773186938653
2852.25,894.07720741874
2852.5,893.593288922089
2852.75,893.851720070143
2853,895.249501260471
2853.25,897.308886416726
2853.5,899.199429304978
2853.75,900.093885716804
2854,899.617176020963
2854.25,898.245114824182
2854.5,896.547576840498
2854.75,895.065453311234
2855,893.996418850332
2855.25,893.313697230641
2855.5,892.986631279959
2855.75,892.979200245798
2856,893.238364941329
2856.25,893.707718601074
2856.5,894.331959986944
2856.75,895.080542368065
2857,895.947305509273
2857.25,896.927121095318
2857.5,898.025439588859
2857.75,899.299974595731
2858,900.824550868407
2858.25,902.668854351817
2858.5,904.668628654424
2858.75,906.305193589104
2859,907.030318075673
2859.25,906.387631883855
2859.5,904.764535263943
2859.75,903.002374851004
2860,901.946590893788
2860.25,902.125484876117
2860.5,903.141531377276
2860.75,904.429166564751
2861,905.439968215656
2861.25,906.023268731444
2861.5,906.428108009046
2861.75,906.921058132189
2862,907.724666695178
2862.25,908.80691360924
2862.5,910.044486650107
2862.75,911.313565561933
2863,912.443199209554
2863.25,913.170970607819
2863.5,913.223963598474
2863.75,912.35700811292
2864,910.729829108872
2864.25,908.808670727973
2864.5,907.067368935103
2864.75,905.890418246993
2865,905.25252785252
2865.25,905.010988699743
2865.5,905.024494068669
2865.75,905.240778779881
2866,905.74813397389
2866.25,906.64724371012
2866.5,908.024972402567
2866.75,909.828752742403
2867,911.925209892079
2867.25,914.179944584216
2867.5,916.368882180953
2867.75,917.9842452499
2868,918.462286722669
2868.25,917.261059967892
2868.5,914.582465804372
2868.75,911.538671156808
2869,909.297353015245
2869.25,908.868200145668
2869.5,909.889552947859
2869.75,911.295233091681
2870,912.013779993685
2870.25,911.422451885247
2870.5,910.175119283415
2870.75,909.151164424842
2871,909.20079260729
2871.25,910.386356865327
2871.5,911.911437599115
2871.75,912.936221153504
2872,912.74773587249
2872.25,911.482346602772
2872.5,909.625158300506
2872.75,907.661757996137
2873,905.913553227702
2873.25,904.313466073995
2873.5,902.738235329999
2873.75,901.074932074798
2874,899.402857233835
2874.25,897.971257717699
2874.5,897.035234728695
2874.75,896.779985431255
2875,897.055088459026
2875.25,897.609521658014
2875.5,898.194806746086
2875.75,898.698023234611
2876,899.206515231037
2876.25,899.823751971683
2876.5,900.614923605362
2876.75,901.322327301209
2877,901.526262492433
2877.25,900.806470499448
2877.5,898.993102025594
2877.75,896.542795128525
2878,894.008567234894
2878.25,891.924029780518
2878.5,890.474455822814
2878.75,889.543835271367
2879,889.006225267747
2879.25,888.748703063979
2879.5,888.713043886242
2879.75,888.855384394066
2880,889.134683069198
2880.25,889.603552347843
2880.5,890.427720904019
2880.75,891.779675181345
2881,893.726871753749
2881.25,895.717362128581
2881.5,896.972918306226
2881.75,896.722527462386
2882,894.761318100864
2882.25,891.834073575102
2882.5,888.776322462741
2882.75,886.366983724687
2883,884.832039177716
2883.25,884.085049782188
2883.5,884.035859152822
2883.75,884.529825334437
2884,885.253042254268
2884.25,885.867448091788
2884.5,886.069443778611
2884.75,886.017778952291
2885,886.201682099122
2885.25,887.117415413089
2885.5,889.0066975852
2885.75,891.318960483646
2886,893.349929318087
2886.25,894.421438949903
2886.5,894.364748116784
2886.75,893.474546139545
2887,892.062407505655
2887.25,890.430733029987
2887.5,888.840587376527
2887.75,887.541397689727
2888,886.778881281637
2888.25,886.64787783847
2888.5,887.043275341624
2888.75,887.846193131303
2889,888.932300922697
2889.25,890.142284203177
2889.5,891.303003554315
2889.75,892.243146246117
2890,892.944424707197
2890.25,893.653205250947
2890.5,894.642163234882
2890.75,896.125437562117
2891,897.762163070985
2891.25,898.905191026407
2891.5,898.905005499668
2891.75,897.526923101571
2892,895.619004389029
2892.25,894.203750291171
2892.5,894.24479811766
2892.75,895.618086829992
2893,897.241926598991
2893.25,898.001910232447
2893.5,897.139571160179
2893.75,895.441017610053
2894,894.111224145895
2894.25,894.332609129859
2894.5,896.302937521306
2894.75,898.8749699645
2895,900.804628513875
2895.25,901.011004068688
2895.5,899.599877628473
2895.75,897.20147568064
2896,894.447650054749
2896.25,891.825297524102
2896.5,889.498888322124
2896.75,887.589418868046
2897,886.204808529694
2897.25,885.27281410956
2897.5,884.590030158124
2897.75,883.950127824656
2898,883.28189961832
2898.25,882.948512282758
2898.5,883.400245593672
2898.75,885.059129497048
2899,887.798563485396
2899.25,890.994226719922
2899.5,894.003760838534
2899.75,896.284053048992
2900,897.687319218529
2900.25,898.16419569486
2900.5,897.673481697362
2900.75,896.448309644656
2901,895.055127269758
2901.25,894.080482023936
2901.5,894.008204842217
2901.75,894.639717495026
2902,895.498224243553
2902.25,896.108256821715
2902.5,896.235362977304
2902.75,896.103500598471
2903,895.987969850367
2903.25,896.144810374811
2903.5,896.611773885652
2903.75,897.288402645289
2904,898.072016419398
2904.25,898.79930057238
2904.5,899.121287067994
2904.75,898.653596792556
2905,897.032187155661
2905.25,894.365519893852
2905.5,891.237223154036
2905.75,888.251794028349
2906,885.910654369143
2906.25,884.167691005364
2906.5,882.79569014672
2906.75,881.570330161194
2907,880.423554411968
2907.25,879.516545567824
2907.5,879.02876397985
2907.75,879.11630782326
2908,879.776368267539
2908.25,880.939961058127
2908.5,882.535295117656
2908.75,884.305791963866
2909,885.690090271248
2909.25,886.098340666562
2909.5,885.050949131455
2909.75,882.931354792604
2910,880.529501276287
2910.25,878.634976728284
2910.5,877.664555162612
2910.75,877.287242621556
2911,877.082727539313
2911.25,876.678450893739
2911.5,876.158129416653
2911.75,875.858835212083
2912,876.119396787323
2912.25,877.109096381627
2912.5,878.633902564713
2912.75,880.452864087396
2913,882.334835153235
2913.25,884.146260204153
2913.5,885.809543021039
2913.75,887.247688771204
2914,888.368070162214
2914.25,889.041842151864
2914.5,889.135044617142
2914.75,888.540578650901
2915,887.497604291449
2915.25,886.485954709036
2915.5,885.990237332173
2915.75,886.293769647495
2916,887.050675712123
2916.25,887.792478883498
2916.5,888.074538237744
2916.75,887.912086678137
2917,887.735923225294
2917.25,887.991792554843
2917.5,888.993569217186
2917.75,890.506492391369
2918,892.153143303417
2918.25,893.559384962511
2918.5,894.455794857255
2918.75,894.697050811358
2919,894.145025009913
2919.25,892.733940888062
2919.5,890.836423553499
2919.75,888.989357221309
2920,887.726074119321
2920.25,887.249233952308
2920.5,887.181121313059
2920.75,887.085229396785
2921,886.58106331648
2921.25,885.800486308247
2921.5,885.150087746225
2921.75,885.038492449571
2922,885.728389855206
2922.25,887.145006667532
2922.5,889.166011896978
2922.75,891.635614193493
2923,893.980451432927
2923.25,895.343530920394
2923.5,894.862707628183
2923.75,892.170091547012
2924,888.421615673051
2924.25,885.065947257839
2924.5,883.495547238943
2924.75,883.854524921665
2925,885.062814062963
2925.25,885.988977902328
2925.5,885.79355738829
2925.75,884.909032601751
2926,884.114150947855
2926.25,884.172758743118
2926.5,885.353660564396
2926.75,887.327609957115
2927,889.729619153212
2927.25,892.189964752942
2927.5,894.312653009981
2927.75,895.692632541439
2928,895.931317597885
2928.25,895.022902530216
2928.5,893.572895697428
2928.75,892.239685463051
2929,891.617366384949
2929.25,891.736448713637
2929.5,892.335556683581
2929.75,893.151235345123
2930,894.026838653374
2930.25,895.057866040612
2930.5,896.376187455832
2930.75,898.098708686833
2931,900.125390502259
2931.25,902.192680127594
2931.5,904.033015856555
2931.75,905.431566369531
2932,906.372085314042
2932.25,906.885066828825
2932.5,907.000959243507
2932.75,906.748473220837
2933,906.154086790167
2933.25,905.244131224924
2933.5,904.051973851742
2933.75,902.667139067869
2934,901.206044661293
2934.25,899.785209781139
2934.5,898.494252362288
2934.75,897.354874397326
2935,896.378225249184
2935.25,895.578002371665
2935.5,895.013481967304
2935.75,894.783277109094
2936,894.987292090517
2936.25,895.647578686841
2936.5,896.447966286767
2936.75,896.980458361685
2937,896.843458022846
2937.25,895.895526031577
2937.5,894.339865534263
2937.75,892.403398032826
2938,890.317517715978
2938.25,888.346187401887
2938.5,886.767778731374
2938.75,885.859192490747
2939,885.684574318525
2939.25,885.879464139295
2939.5,886.027937689129
2939.75,885.769437256227
2940,885.329656319007
2940.25,885.286937056044
2940.5,886.223594315541
2940.75,888.332046746859
2941,890.799091510097
2941.25,892.651588048535
2941.5,892.980143056394
2941.75,891.810821338157
2942,889.880514237753
2942.25,887.943862820335
2942.5,886.5558730742
2942.75,885.548210339644
2943,884.58876437727
2943.25,883.35468530999
2943.5,881.756293713482
2943.75,879.948876589584
2944,878.099342298504
2944.25,876.380800562671
2944.5,874.99561091975
2944.75,874.154748596427
2945,874.060204717182
2945.25,874.624585500629
2945.5,875.415975666662
2945.75,875.982342057467
2946,875.941725874302
2946.25,875.250611887825
2946.5,873.967527158872
2946.75,872.153128047665
2947,869.935918136663
2947.25,867.525143860404
2947.5,865.134763616006
2947.75,862.958288436232
2948,861.091702163008
2948.25,859.601943557793
2948.5,858.554009876018
2948.75,857.964241755268
2949,857.797920935085
2949.25,858.017913785312
2949.5,858.611491806616
2949.75,859.651091591145
2950,861.227715692171
2950.25,863.399156890331
2950.5,865.752236427981
2950.75,867.524048364005
2951,867.944816474496
2951.25,866.731475530575
2951.5,864.797175636927
2951.75,863.235524390859
2952,863.030790783892
2952.25,864.013727387893
2952.5,865.323143945592
2952.75,866.092354271294
2953,865.966914151259
2953.25,865.609664751155
2953.5,865.803520050474
2953.75,867.228389909019
2954,869.746660143464
2954.25,872.831066073957
2954.5,875.954814237373
2954.75,878.789598760847
2955,881.331085808363
2955.25,883.604808390743
2955.5,885.610152565176
2955.75,887.161784834002
2956,887.994801078451
2956.25,887.847249784597
2956.5,886.760714804386
2956.75,885.322596508936
2957,884.177309748235
2957.25,883.90055416107
2957.5,884.420124586605
2957.75,885.307844919771
2958,886.132664676002
2958.25,886.657191671366
2958.5,887.087998297539
2958.75,887.693614844417
2959,888.719684840016
2959.25,890.125243717144
2959.5,891.674168626785
2959.75,893.126590645794
2960,894.242166083845
2960.25,894.77911758049
2960.5,894.495398219826
2960.75,893.170998048405
2961,891.042838676753
2961.25,888.778649540398
2961.5,887.062966612291
2961.75,886.409028886616
2962,886.525723000991
2962.25,886.886050569207
2962.5,886.972287686537
2962.75,886.631210564
2963,886.184698029764
2963.25,885.986542690797
2963.5,886.332072914193
2963.75,887.148615109093
2964,888.220671201378
2964.25,889.331391695464
2964.5,890.188045043987
2964.75,890.37163210286
2965,889.451214006109
2965.25,887.087826981746
2965.5,883.74052542002
2965.75,880.278198419202
2966,877.57136308612
2966.25,876.099938262612
2966.5,875.460090382605
2966.75,875.126482387288
2967,874.623553535932
2967.25,874.021217869255
2967.5,873.726170661046
2967.75,874.14908555149
2968,875.437192889126
2968.25,877.121434286896
2968.5,878.644757757747
2968.75,879.495030163133
2969,879.645159580282
2969.25,879.364205814466
2969.5,878.925133101898
2969.75,878.496881619687
2970,877.99673815644
2970.25,877.30468526238
2970.5,876.315990659298
2970.75,875.111088027379
2971,873.893521336272
2971.25,872.868867787157
2971.5,872.154442241659
2971.75,871.638998958208
2972,871.174782526545
2972.25,870.639232409824
2972.5,870.214834851516
2972.75,870.28681092569
2973,871.24300296792
2973.25,873.146229700738
2973.5,875.273678537776
2973.75,876.786186333558
2974,876.920586009117
2974.25,875.733037236368
2974.5,873.779359277057
2974.75,871.622060964046
2975,869.703968113337
2975.25,868.185215865382
2975.5,867.185138114103
2975.75,866.797997915198
2976,866.851700831058
2976.25,867.013518376712
2976.5,866.950081802059
2976.75,866.579057579564
2977,866.342081269569
2977.25,866.746404351204
2977.5,868.223640168945
2977.75,870.560034410121
2978,873.214953413122
2978.25,875.646586240024
2978.5,877.429852068257
2978.75,878.344031827259
2979,878.1890417031
2979.25,876.834295921586
2979.5,874.682890539927
2979.75,872.385195786965
2980,870.589997587629
2980.25,869.668325048391
2980.5,869.489036023543
2980.75,869.868174829464
2981,870.620859130335
2981.25,871.555185528793
2981.5,872.476034967265
2981.75,873.191257387947
2982,873.718214288778
2982.25,874.417792236089
2982.5,875.682738078188
2982.75,877.782092712747
2983,880.128280356368
2983.25,881.771238993985
2983.5,881.770181129947
2983.75,879.90290558951
2984,877.112386330072
2984.25,874.448081082374
2984.5,872.82064855058
2984.75,872.07642885903
2985,871.569235487177
2985.25,870.655271481459
2985.5,869.106989949257
2985.75,867.41657958911
2986,866.14775701561
2986.25,865.786133070759
2986.5,866.255953803926
2986.75,867.235944313364
2987,868.404076737822
2987.25,869.453849051833
2987.5,870.1021001704
2987.75,870.067594521658
2988,869.133756322089
2988.25,867.464095937803
2988.5,865.360552432204
2988.75,863.122866305127
2989,860.953529250311
2989.25,858.926331969599
2989.5,857.106221109209
2989.75,855.551863805433
2990,854.291571308407
2990.25,853.344494353934
2990.5,852.729763908072
2990.75,852.466117114258
2991,852.571906514577
2991.25,853.065429225059
2991.5,853.908384617595
2991.75,854.892892395363
2992,855.779446260919
2992.25,856.33520990976
2992.5,856.399886712906
2992.75,855.857710525548
2993,854.595542714625
2993.25,852.715119296675
2993.5,850.722770345809
2993.75,849.169583242274
2994,848.508352314852
2994.25,848.554696457118
2994.5,848.870189259294
2994.75,849.026505899207
2995,848.919944151901
2995.25,848.821120498032
2995.5,849.02140602073
2995.75,849.734175559312
2996,850.903780792687
2996.25,852.416613743985
2996.5,854.143450675864
2996.75,855.764639438806
2997,856.833310757687
2997.25,856.902633853012
2997.5,855.836924834265
2997.75,854.118819308847
2998,852.303991296788
2998.25,850.886342659677
2998.5,849.922844763511
2998.75,849.282051988699
2999,848.834661101362
2999.25,848.559707010573
2999.5,848.574827883003
2999.75,849.006713571017
3000,849.949105671285
3000.25,851.367799644726
3000.5,853.197538229335
3000.75,855.368684721758
3001,857.749560458676
3001.25,860.16244983963
3001.5,862.428241817243
3001.75,864.301155260395
3002,865.385830885344
3002.25,865.26654149317
3002.5,863.645825520984
3002.75,861.255252239588
3003,859.356097470029
3003.25,859.20414487236
3003.5,861.227413512041
3003.75,864.413016805668
3004,867.603634889062
3004.25,869.819391376437
3004.5,871.185396523453
3004.75,872.251393346427
3005,873.558483930602
3005.25,875.235754364725
3005.5,876.851526872572
3005.75,877.933962737865
3006,878.060248222735
3006.25,877.080643717085
3006.5,874.939928914851
3006.75,871.58712375926
3007,867.155119776554
3007.25,862.029620875402
3007.5,856.614707611388
3007.75,851.260248887327
3008,846.010563692643
3008.25,840.803017551209
3008.5,835.578073003758
3008.75,830.364821275759
3009,825.290067417823
3009.25,820.485629115878
3009.5,816.06269404356
3009.75,812.073032496002
3010,808.557782258386
3010.25,805.512855288872
3010.5,802.62719712106
3010.75,799.462164193912
3011,795.604618376783
3011.25,791.037363465494
3011.5,786.052184859099
3011.75,780.94729824052
3012,775.953523571681
3012.25,771.214792827038
3012.5,766.8686328553
3012.75,762.986663866402
3013,759.519634886562
3013.25,756.405647723729
3013.5,753.645981433325
3013.75,751.383262026748
3014,749.779075029108
3014.25,748.923333175978
3014.5,748.732444364898
3014.75,749.096858123229
3015,749.837521089527
3015.25,750.607158253298
3015.5,751.033914340877
3015.75,750.856038176739
3016,750.075216070485
3016.25,748.732035882525
3016.5,746.97052360687
3016.75,745.184972019511
3017,743.806207327761
3017.25,743.095532653419
3017.5,742.908792329411
3017.75,743.042667325388
3018,743.332819384063
3018.25,743.702029151919
3018.5,744.085479952726
3018.75,744.509020685953
3019,745.185884221089
3019.25,746.35133653931
3019.5,748.102202672043
3019.75,750.267555117814
3020,752.6440128014
3020.25,754.839309993445
3020.5,756.111577862916
3020.75,755.687296685218
3021,753.477230334027
3021.25,750.686435052664
3021.5,748.659474147214
3021.75,748.114829045836
3022,748.506232404881
3022.25,749.13691807333
3022.5,749.560337170826
3022.75,749.829768506532
3023,750.05822544062
3023.25,750.400363105231
3023.5,751.093093084136
3023.75,752.381858485577
3024,754.368657856382
3024.25,756.872188183169
3024.5,759.676842361231
3024.75,762.415110649077
3025,764.412839696792
3025.25,764.961438062594
3025.5,763.876180176238
3025.75,762.141057086473
3026,760.897432920497
3026.25,760.887130523273
3026.5,761.795207151912
3026.75,763.134040843075
3027,764.466850098178
3027.25,765.509628021457
3027.5,766.006959448972
3027.75,765.877385114254
3028,765.648987103147
3028.25,765.983279496448
3028.5,767.357884411366
3028.75,769.470035846639
3029,771.809991284839
3029.25,773.896090869941
3029.5,775.391199871644
3029.75,776.004542825404
3030,775.535498205813
3030.25,774.391993482957
3030.5,773.233699930983
3030.75,772.657872246926
3031,772.662069291151
3031.25,772.912766417752
3031.5,773.090506635514
3031.75,773.107272949282
3032,773.038544495296
3032.25,772.967068341063
3032.5,773.048885045563
3032.75,773.505956978672
3033,774.556715623568
3033.25,776.245191935929
3033.5,778.416012715223
3033.75,780.898480874969
3034,783.290568013212
3034.25,784.84975433693
3034.5,784.810555301403
3034.75,783.030192754139
3035,780.633939514721
3035.25,778.90101068123
3035.5,778.648953095479
3035.75,779.294597099061
3036,779.990118783267
3036.25,780.070744830763
3036.5,779.656358085176
3036.75,779.077044858422
3037,778.661642218618
3037.25,778.731259749186
3037.5,779.604061002955
3037.75,781.521615729217
3038,784.03867139527
3038.25,786.347575729659
3038.5,787.68424390034
3038.75,787.929883771787
3039,787.435520714895
3039.25,786.562336265877
3039.5,785.659184357746
3039.75,785.061698729107
3040,785.100914732364
3040.25,785.856602046412
3040.5,787.010585802844
3040.75,788.209938849453
3041,789.2280807609
3041.25,790.132190150678
3041.5,791.031099138665
3041.75,792.033121494796
3042,793.244695087176
3042.25,794.771833560564
3042.5,796.650685395109
3042.75,798.502398486444
3043,799.79548825778
3043.25,800.056464092563
3043.5,799.435504367007
3043.75,798.461229061953
3044,797.654533388666
3044.25,797.22125294246
3044.5,797.043507530753
3044.75,796.989211567043
3045,796.970874765224
3045.25,796.977074193202
3045.5,797.003808179183
3045.75,797.039821470557
3046,797.052910639285
3046.25,797.007112945366
3046.5,796.91463875383
3046.75,797.031531519867
3047,797.690800143598
3047.25,799.142572842151
3047.5,800.875193269757
3047.75,801.967067191161
3048,801.547907157527
3048.25,799.799150526712
3048.5,797.844891170849
3048.75,796.830491746313
3049,797.179127840706
3049.25,798.196623306695
3049.5,799.093413939411
3049.75,799.314779821933
3050,798.916552713267
3050.25,798.052511280369
3050.5,796.879172968145
3050.75,795.565780223926
3051,794.28526844956
3051.25,793.189962034838
3051.5,792.257625027193
3051.75,791.37815064078
3052,790.434711970069
3052.25,789.213258134431
3052.5,787.421329151393
3052.75,784.77419127473
3053,781.335421353627
3053.25,777.599764265481
3053.5,774.086017167292
3053.75,771.051755181617
3054,768.279984206391
3054.25,765.503863485728
3054.5,762.567319838163
3054.75,759.579846718307
3055,756.689853296956
3055.25,753.986442265636
3055.5,751.387841437971
3055.75,748.781708163011
3056,746.098230247807
3056.25,743.400588533735
3056.5,740.777876858161
3056.75,738.296675456248
3057,735.954001506687
3057.25,733.73340538393
3057.5,731.56275285419
3057.75,729.215055519028
3058,726.437503680256
3058.25,723.199855535422
3058.5,719.987218620175
3058.75,717.35264574478
3059,715.406360385315
3059.25,713.463750392925
3059.5,710.777286453444
3059.75,707.342974767727
3060,704.105272733009
3060.25,702.014373224554
3060.5,701.030916890521
3060.75,700.267251418077
3061,698.907779820017
3061.25,697.011703822946
3061.5,695.092323376338
3061.75,693.546134251346
3062,692.203807179767
3062.25,690.7307730115
3062.5,688.949177916974
3062.75,687.064839526478
3063,685.336675269382
3063.25,683.851082283689
3063.5,682.472238170894
3063.75,681.059253558311
3064,679.585833756296
3064.25,678.101088094005
3064.5,676.682364350364
3064.75,675.539365576811
3065,674.920654764184
3065.25,674.779965843841
3065.5,674.447875079865
3065.75,673.214715370032
3066,671.189861821091
3066.25,669.261205497849
3066.5,668.18853865764
3066.75,667.641782626917
3067,666.834127265959
3067.25,665.185142045885
3067.5,662.652720467708
3067.75,659.296740299997
3068,655.583386635866
3068.25,652.407339834153
3068.5,650.485542086811
3068.75,649.2269627917
3069,647.515194819422
3069.25,644.943032803928
3069.5,642.571020997928
3069.75,641.541939556015
3070,641.704819948163
3070.25,642.002623778042
3070.5,641.627111681634
3070.75,640.643705534229
3071,639.292874373572
3071.25,637.744880836053
3071.5,636.099761976975
3071.75,634.451548120907
3072,632.880125669729
3072.25,631.460024309976
3072.5,630.220965319969
3072.75,629.133847705002
3073,628.176195117078
3073.25,627.388881642532
3073.5,626.8341127992
3073.75,626.465525035549
3074,626.076629169848
3074.25,625.513787921278
3074.5,625.045611305522
3074.75,625.099875522382
3075,625.656343775736
3075.25,626.01236749329
3075.5,625.55095168095
3075.75,624.584652814292
3076,623.790588103939
3076.25,623.422582951259
3076.5,623.08206529607
3076.75,622.395350086018
3077,621.511572295611
3077.25,620.784935469666
3077.5,620.355622537127
3077.75,620.044346106402
3078,619.71803618239
3078.25,619.679294367395
3078.5,620.380642224509
3078.75,621.735334844871
3079,622.926584659118
3079.25,623.272984027305
3079.5,623.091681993069
3079.75,623.021785632231
3080,623.355169882094
3080.25,623.947104339212
3080.5,624.602488283788
3080.75,625.011292773166
3081,624.841554635169
3081.25,624.249312953312
3081.5,623.984674131526
3081.75,624.614599238814
3082,625.607154258173
3082.25,626.108445149554
3082.5,625.985630285701
3082.75,625.974359683511
3083,626.710423637671
3083.25,628.069894829055
3083.5,629.689643707939
3083.75,631.152149145268
3084,631.97311735434
3084.25,631.8705186544
3084.5,631.661594958468
3084.75,632.503006590163
3085,634.427236550231
3085.25,635.915039281172
3085.5,635.667261834077
3085.75,634.494905297803
3086,634.018166638479
3086.25,634.841332727736
3086.5,635.867352227977
3086.75,636.02300914778
3087,635.751538228397
3087.25,636.231922508417
3087.5,637.901089945839
3087.75,639.642589769549
3088,640.275157766601
3088.25,640.038343695457
3088.5,640.052519848405
3088.75,641.018166679467
3089,642.426677972511
3089.25,643.579830038126
3089.5,644.125213336292
3089.75,644.004969400095
3090,643.26909364694
3090.25,642.373957271203
3090.5,641.868980122552
3090.75,641.879611817019
3091,641.999815215839
3091.25,641.883618276814
3091.5,641.784540114329
3091.75,642.187600685574
3092,643.144092992754
3092.25,643.923226742734
3092.5,643.819654096402
3092.75,643.198796297407
3093,643.040745774672
3093.25,643.930649955287
3093.5,645.370044482827
3093.75,646.698866613548
3094,647.589399819727
3094.25,647.996725163095
3094.5,647.910817889675
3094.75,647.432261436513
3095,646.691929356423
3095.25,645.852066698905
3095.5,645.117209893102
3095.75,644.684068991879
3096,644.66891912227
3096.25,645.150735468116
3096.5,646.030401559172
3096.75,646.8313467778
3097,647.078414225093
3097.25,646.937132181505
3097.5,647.019003346647
3097.75,647.714656485369
3098,648.623168820076
3098.25,649.187412493692
3098.5,649.237680019325
3098.75,649.031849148917
3099,648.797357303719
3099.25,648.44665081395
3099.5,647.777690872897
3099.75,646.832377630471
3100,646.101121680683
3100.25,646.064782684762
3100.5,646.561422947208
3100.75,647.027306737794
3101,647.093564564145
3101.25,646.998453203352
3101.5,647.083575402524
3101.75,647.4489076756
3102,647.95684834875
3102.25,648.46485783884
3102.5,648.856367779495
3102.75,649.025086712803
3103,648.990732983701
3103.25,648.971889771624
3103.5,649.15730699538
3103.75,649.295762299946
3104,648.897657718863
3104.25,647.760594324428
3104.5,646.460081651672
3104.75,645.666529202865
3105,645.38678823096
3105.25,645.027977482142
3105.5,644.168143501795
3105.75,643.267302043714
3106,643.027397453704
3106.25,643.674143764113
3106.5,644.77217851653
3106.75,645.863170810123
3107,646.677342950973
3107.25,647.029414639593
3107.5,646.843226383139
3107.75,646.270173704588
3108,645.489397423023
3108.25,644.669084455131
3108.5,643.969727725746
3108.75,643.49608806754
3109,643.162135219337
3109.25,642.843159200854
3109.5,642.472318260535
3109.75,642.044517963731
3110,641.574616132432
3110.25,641.168226808887
3110.5,640.959197662759
3110.75,640.96147770043
3111,641.004085464006
3111.25,640.906871936742
3111.5,640.543473846307
3111.75,639.814662954748
3112,638.818833487089
3112.25,638.08594550737
3112.5,638.123150307627
3112.75,638.441485687496
3113,637.875846544659
3113.25,635.77683333613
3113.5,633.086753523655
3113.75,630.998591795465
3114,629.803466551163
3114.25,628.987455336978
3114.5,628.136826088417
3114.75,627.328234565272
3115,626.746655082671
3115.25,626.376966407831
3115.5,626.003752846018
3115.75,625.49212710915
3116,625.073243744719
3116.25,625.059808705658
3116.5,625.46526601914
3116.75,625.994059462976
3117,626.348241811904
3117.25,626.278958115097
3117.5,625.563789538332
3117.75,624.320813969031
3118,623.023276445899
3118.25,622.053244709365
3118.5,621.33468109136
3118.75,620.679629791459
3119,620.137104464742
3119.25,620.000665358406
3119.5,620.418044892383
3119.75,620.916159744101
3120,620.898673633335
3120.25,620.38933245246
3120.5,619.994252318807
3120.75,620.164041477981
3121,620.717642808097
3121.25,621.339554684034
3121.5,621.81215919513
3121.75,622.001508712194
3122,621.816880009296
3122.25,621.296716206244
3122.5,620.511932605859
3122.75,619.640067753842
3123,618.943198739166
3123.25,618.550254279531
3123.5,618.192637910461
3123.75,617.572595780776
3124,616.973792400981
3124.25,617.094182175555
3124.5,618.230542126872
3124.75,619.644398101247
3125,620.512225397149
3125.25,620.825073858383
3125.5,621.068535299116
3125.75,621.510224039152
3126,621.927572470887
3126.25,622.068459727299
3126.5,622.012479721274
3126.75,622.020894220678
3127,622.159024001326
3127.25,622.093488307679
3127.5,621.50334288344
3127.75,620.595019368197
3128,619.846112146033
3128.25,619.586878434605
3128.5,619.865409596185
3128.75,620.653789400446
3129,621.572299843049
3129.25,622.080042857542
3129.5,622.034161373456
3129.75,621.966672332121
3130,622.396139760767
3130.25,623.283413207951
3130.5,624.348427015317
3130.75,625.320627484668
3131,625.946059765177
3131.25,626.009227458256
3131.5,625.543909408555
3131.75,624.688752886886
3132,623.704798731658
3132.25,623.046537235684
3132.5,623.095915827446
3132.75,623.622933252015
3133,624.146963599476
3133.25,624.482369612225
3133.5,624.902300215305
3133.75,625.651709225502
3134,626.530996231741
3134.25,627.166405286487
3134.5,627.487774720102
3134.75,627.891380803177
3135,628.714435646384
3135.25,629.63015591524
3135.5,630.043418673524
3135.75,629.739827080159
3136,629.122286277874
3136.25,628.601969122991
3136.5,628.232533717407
3136.75,627.906538661972
3137,627.543418756269
3137.25,627.111911413436
3137.5,626.604085112977
3137.75,626.160822430049
3138,625.994776144762
3138.25,626.228311580272
3138.5,626.812993236327
3138.75,627.662697979967
3139,628.531680450256
3139.25,629.096144748257
3139.5,629.326949719756
3139.75,629.768923112528
3140,630.927885743926
3140.25,632.344203377833
3140.5,633.041245805718
3140.75,632.530757034258
3141,631.383704274673
3141.25,630.270923422283
3141.5,629.453576329542
3141.75,628.939050123603
3142,628.736231125767
3142.25,628.867278015304
3142.5,629.35106141354
3142.75,630.138452533131
3143,631.133369464959
3143.25,632.169357552291
3143.5,632.888652374352
3143.75,632.948163525401
3144,632.707339041415
3144.25,633.063399577091
3144.5,634.455304876359
3144.75,635.790754728518
3145,635.739582291741
3145.25,634.367783897235
3145.5,633.00518400906
3145.75,632.668337065115
3146,632.913144020495
3146.25,632.94410117489
3146.5,632.523052134338
3146.75,632.026869353712
3147,631.79871569365
3147.25,631.858962785062
3147.5,632.128475787019
3147.75,632.522452003442
3148,632.948807286765
3148.25,633.333890750137
3148.5,633.714706262046
3148.75,634.166414836825
3149,634.653916264727
3149.25,634.975239783942
3149.5,634.937973163976
3149.75,634.519366121967
3150,633.772343241637
3150.25,632.854809261183
3150.5,632.118904013127
3150.75,631.884878371162
3151,631.980679216262
3151.25,631.967984302844
3151.5,631.61197057588
3151.75,631.13431542241
3152,630.806200226212
3152.25,630.766354368649
3152.5,631.069778815342
3152.75,631.725224566109
3153,632.62618668765
3153.25,633.640664222053
3153.5,634.538575149637
3153.75,635.01957306397
3154,634.897236424246
3154.25,634.333372976338
3154.5,633.552340742354
3154.75,632.727393025511
3155,631.987509960208
3155.25,631.43733137268
3155.5,631.095064973486
3155.75,630.956255544291
3156,630.962383033301
3156.25,630.999587986289
3156.5,630.983441611651
3156.75,630.970522965554
3157,631.056488756019
3157.25,631.342370308244
3157.5,631.93543178377
3157.75,632.861230384309
3158,633.726719978007
3158.25,634.016090120957
3158.5,633.638509805083
3158.75,633.068105873846
3159,632.720582489269
3159.25,632.406567361029
3159.5,631.711801613934
3159.75,630.667188113464
3160,630.012980364182
3160.25,630.407006479367
3160.5,631.414576795227
3160.75,632.110667462815
3161,632.10355452179
3161.25,631.972027531481
3161.5,632.32849924955
3161.75,633.182600423481
3162,634.231679163896
3162.25,635.200730000688
3162.5,635.878733641968
3162.75,636.093918254833
3163,636.014868733263
3163.25,636.019547956074
3163.5,636.250802324876
3163.75,636.220755289469
3164,635.390505126383
3164.25,634.015177179538
3164.5,632.967950087671
3164.75,632.814441109862
3165,633.01084181894
3165.25,632.812065660996
3165.5,632.230465904953
3165.75,631.997567118507
3166,632.625970587051
3166.25,633.602367334431
3166.5,634.168266302813
3166.75,634.145821813533
3167,634.001764442184
3167.25,634.155141899498
3167.5,634.616414691915
3167.75,635.265195848719
3168,635.867476621773
3168.25,636.037004663104
3168.5,635.479023555127
3168.75,634.547143779605
3169,633.844694446835
3169.25,633.688669969424
3169.5,633.915181180786
3169.75,634.320046685536
3170,634.745041859996
3170.25,635.055527235185
3170.5,635.274353721065
3170.75,635.745218138152
3171,636.79301966109
3171.25,638.128800844337
3171.5,639.094726765672
3171.75,639.396812129197
3172,639.693840540009
3172.25,640.728829610529
3172.5,642.203859536974
3172.75,643.003665150263
3173,642.361911672227
3173.25,640.858143377986
3173.5,639.363836026915
3173.75,638.380965270178
3174,638.001958133871
3174.25,638.234047958524
3174.5,638.739453176787
3174.75,639.069845527272
3175,639.065246791953
3175.25,638.994836384776
3175.5,639.133803661012
3175.75,639.538775219421
3176,640.166214429266
3176.25,640.945765955624
3176.5,641.754098635924
3176.75,642.46035675697
3177,642.920627188373
3177.25,642.982838895211
3177.5,642.536935376969
3177.75,641.594865270014
3178,640.20829829464
3178.25,638.774549881936
3178.5,638.0048072401
3178.75,638.390307789345
3179,639.418809455332
3179.25,640.318971464936
3179.5,640.764280582233
3179.75,640.974979607658
3180,641.19118891453
3180.25,641.569548845087
3180.5,642.232960591529
3180.75,643.123234110259
3181,643.87295888406
3181.25,644.136197398576
3181.5,644.049821481988
3181.75,644.01329205519
3182,644.197878288752
3182.25,644.186950852269
3182.5,643.506568866755
3182.75,642.255103763207
3183,640.998523519536
3183.25,640.210493521735
3183.5,639.942430511469
3183.75,640.13632664746
3184,640.598798229382
3184.25,640.977057486385
3184.5,640.998302544166
3184.75,640.90624934055
3185,641.126538205621
3185.25,641.828717572847
3185.5,642.763392458098
3185.75,643.663334035643
3186,644.443078715524
3186.25,645.11075342524
3186.5,645.646044501742
3186.75,645.95921428844
3187,645.955576621725
3187.25,645.618033373805
3187.5,644.989574754623
3187.75,644.153829149223
3188,643.3443898878
3188.25,642.826156179752
3188.5,642.714149701895
3188.75,642.945232364968
3189,643.418943164242
3189.25,643.870959127614
3189.5,643.979405548228
3189.75,643.762857885892
3190,643.833093563302
3190.25,644.762782284731
3190.5,646.154760625365
3190.75,647.061667867133
3191,646.931234162202
3191.25,646.279257904616
3191.5,645.766247271427
3191.75,645.483671499418
3192,645.023714214064
3192.25,644.124496868824
3192.5,643.245354636159
3192.75,643.031047474156
3193,643.529624660819
3193.25,643.985281545241
3193.5,643.733258812514
3193.75,643.152165786571
3194,643.066313716401
3194.25,643.816045076161
3194.5,644.767508037106
3194.75,645.227622870772
3195,645.168171289885
3195.25,644.990159934362
3195.5,644.975544020909
3195.75,645.015980471207
3196,644.931386324167
3196.25,644.619044776137
3196.5,644.052309485284
3196.75,643.24751246549
3197,642.419432887357
3197.25,641.842433794361
3197.5,641.674490533384
3197.75,641.901253064322
3198,642.483814250127
3198.25,643.300078736392
3198.5,644.189019782209
3198.75,645.025942564576
3199,645.76444101942
3199.25,646.383015201476
3199.5,647.0509387597
3199.75,648.070027193241
3200,649.52261660688
3200.25,650.736740057344
3200.5,650.910100241874
3200.75,650.05677573089
3201,649.090319841972
3201.25,648.803315431368
3201.5,648.961841989978
3201.75,648.946192827087
3202,648.501717168371
3202.25,648.059403298825
3202.5,648.082201871655
3202.75,648.528492434769
3203,649.031479560328
3203.25,649.3564813279
3203.5,649.708511751574
3203.75,650.366547900409
3204,651.260566264018
3204.25,651.952013318211
3204.5,652.093889791748
3204.75,651.968679458159
3205,652.081541681879
3205.25,652.698249254624
3205.5,653.6453753913
3205.75,654.698493012921
3206,655.585837195885
3206.25,656.004845237904
3206.5,655.856123409604
3206.75,655.747401959291
3207,656.416490216716
3207.25,657.81038839658
3207.5,658.910058894528
3207.75,658.833727153271
3208,658.15077852127
3208.25,658.080231918189
3208.5,659.216685420575
3208.75,660.602646953466
3209,661.097666452276
3209.25,660.613566978266
3209.5,660.031222961036
3209.75,660.061549803167
3210,660.257674765847
3210.25,659.773073939245
3210.5,658.296426604705
3210.75,656.563304554813
3211,655.387508643598
3211.25,654.958991482825
3211.5,654.997156030946
3211.75,655.200816598827
3212,655.23086313524
3212.25,654.746567856172
3212.5,653.812852058083
3212.75,653.074360997694
3213,653.122274754677
3213.25,653.677134924723
3213.5,654.004021429492
3213.75,653.60190935356
3214,652.613913546317
3214.25,651.286858604175
3214.5,649.776797138669
3214.75,648.152725017568
3215,646.491493717008
3215.25,644.92991629286
3215.5,643.623706325587
3215.75,642.673560970267
3216,642.090862568212
3216.25,641.891759194701
3216.5,642.20877921137
3216.75,643.235479619705
3217,645.001214219102
3217.25,647.137790509621
3217.5,649.224440093992
3217.75,650.932807508331
3218,652.005622412124
3218.25,652.303706631673
3218.5,652.141449351362
3218.75,651.934806723273
3219,651.749886727719
3219.25,651.198812428035
3219.5,649.945317618144
3219.75,648.273329307136
3220,646.749861646715
3220.25,645.742180969622
3220.5,645.153877220108
3220.75,644.8196926114
3221,644.518219541296
3221.25,643.984891754942
3221.5,643.094827939301
3221.75,642.252544763698
3222,641.972709688092
3222.25,642.338124621575
3222.5,642.932611736051
3222.75,643.343293445238
3223,643.337755020354
3223.25,642.751287906139
3223.5,641.62127647939
3223.75,640.323131923642
3224,639.234161377261
3224.25,638.452268440234
3224.5,637.924769133794
3224.75,637.657697074
3225,637.802034491905
3225.25,638.498057085542
3225.5,639.443614458898
3225.75,640.014338406067
3226,639.819041298986
3226.25,639.249362342103
3226.5,638.84082002899
3226.75,638.79501837268
3227,638.987442658871
3227.25,639.300123064952
3227.5,639.70778153556
3227.75,640.209421506081
3228,640.709846509458
3228.25,640.990571017429
3228.5,640.865721361496
3228.75,640.418320361452
3229,639.839812279149
3229.25,639.315480829291
3229.5,639.018834230938
3229.75,639.101745996316
3230,639.515174842466
3230.25,640.095702186664
3230.5,640.661583404126
3230.75,640.988276172519
3231,640.878787034154
3231.25,640.652741844371
3231.5,641.030143980125
3231.75,642.439693193823
3232,644.218286068909
3232.25,645.478877396316
3232.5,645.9449364683
3232.75,646.000947653529
3233,646.008817378547
3233.25,646.019999041328
3233.5,645.977603860799
3233.75,645.777483473442
3234,645.23676987993
3234.25,644.228302207935
3234.5,643.230002433988
3234.75,643.055694684077
3235,644.16624213858
3235.25,646.083874983035
3235.5,648.206264580307
3235.75,650.405496374032
3236,652.948975994493
3236.25,655.991829107338
3236.5,659.163964700279
3236.75,661.958851567677
3237,663.972898660505
3237.25,664.947283043368
3237.5,664.685841824021
3237.75,663.481184837578
3238,661.894653035943
3238.25,660.424083600363
3238.5,659.349624088029
3238.75,658.897384721875
3239,658.96364545569
3239.25,659.036117819704
3239.5,658.642607262509
3239.75,657.823638025679
3240,656.861336831129
3240.25,656.065314281206
3240.5,655.812931444818
3240.75,656.471552498411
3241,657.967495052153
3241.25,659.806550065045
3241.5,661.498592181685
3241.75,662.668179737482
3242,662.981567048945
3242.25,662.38938981363
3242.5,661.387941011355
3242.75,660.504649761748
3243,659.812760285844
3243.25,659.038112059093
3243.5,658.023481767625
3243.75,657.18141347637
3244,657.078635435743
3244.25,657.819997309617
3244.5,658.77344998354
3244.75,659.311601012135
3245,659.549451180589
3245.25,660.046372363056
3245.5,661.205488548616
3245.75,662.885309873915
3246,664.826933800796
3246.25,666.657448226565
3246.5,667.862941918997
3246.75,668.014920632323
3247,667.470428728591
3247.25,666.976885000773
3247.5,667.065110863977
3247.75,667.596134558281
3248,668.306961165006
3248.25,669.047928947807
3248.5,669.808014445595
3248.75,670.582004169142
3249,671.341781033593
3249.25,672.04745884364
3249.5,672.637128870869
3249.75,672.97792534142
3250,672.924168871346
3250.25,672.39539107364
3250.5,671.399705317032
3250.75,669.972489287359
3251,668.372143403988
3251.25,666.991830914519
3251.5,666.098559989539
3251.75,665.458123066298
3252,664.716565417974
3252.25,663.686415010566
3252.5,662.434227552342
3252.75,661.060322351485
3253,659.802490122319
3253.25,658.984267148181
3253.5,658.795305337287
3253.75,658.932966068817
3254,658.990527988137
3254.25,658.878661530349
3254.5,658.925379278684
3254.75,659.43510504533
3255,660.273705936909
3255.25,661.087167343284
3255.5,661.623142511002
3255.75,661.915979730626
3256,662.042280469867
3256.25,661.89931035354
3256.5,661.195172307711
3256.75,659.734146793112
3257,658.023782287062
3257.25,656.858377455149
3257.5,656.645737516945
3257.75,656.898910157616
3258,657.03282505647
3258.25,656.953106690054
3258.5,656.985217953152
3258.75,657.411408939023
3259,658.235205152095
3259.25,659.373482610945
3259.5,660.651276432893
3259.75,661.739582363513
3260,662.319141661576
3260.25,662.353874648849
3260.5,661.989802975719
3260.75,661.362936451585
3261,660.560227110073
3261.25,659.658098827556
3261.5,658.780246388584
3261.75,658.116478952509
3262,657.835694914215
3262.25,657.867930036255
3262.5,658.014064849571
3262.75,658.107238322977
3263,658.080173109612
3263.25,657.891603670034
3263.5,657.704429787822
3263.75,657.903400523697
3264,658.792480332747
3264.25,660.069969430193
3264.5,661.19010406097
3264.75,661.805095827444
3265,662.005127576564
3265.25,661.933196822656
3265.5,661.633145245559
3265.75,661.064112910668
3266,660.232299249319
3266.25,659.40319285117
3266.5,658.924073065265
3266.75,658.903026956966
3267,659.006383275502
3267.25,658.890890676776
3267.5,658.716278336414
3267.75,658.997641006008
3268,660.105615686462
3268.25,661.796789015654
3268.5,663.676368551269
3268.75,665.534850769651
3269,667.429817597671
3269.25,669.420584432185
3269.5,671.375732497101
3269.75,673.053926680487
3270,674.250278939439
3270.25,674.895242145001
3270.5,674.954738768808
3270.75,674.680604191149
3271,674.754511900025
3271.25,675.803387525168
3271.5,677.317852507875
3271.75,678.011550835192
3272,676.968997902509
3272.25,675.096515323449
3272.5,673.832619794983
3272.75,673.916894869226
3273,674.666053291238
3273.25,675.257577681375
3273.5,675.525178717187
3273.75,675.898375226308
3274,676.721198227106
3274.25,677.633895832425
3274.5,677.993144106371
3274.75,677.457644625607
3275,676.503278118089
3275.25,675.731035199891
3275.5,675.350900086232
3275.75,675.092417249182
3276,674.691545085352
3276.25,674.233347375847
3276.5,673.999454515808
3276.75,674.184564198346
3277,674.644867993006
3277.25,675.159139942558
3277.5,675.69804724785
3277.75,676.539378492034
3278,677.960607109832
3278.25,679.855193378653
3278.5,681.837208500987
3278.75,683.532965984513
3279,684.665087333806
3279.25,684.988456196386
3279.5,684.542153630625
3279.75,684.025645164393
3280,684.211669207261
3280.25,685.26066170101
3280.5,686.627280421002
3280.75,687.783784016616
3281,688.768716950844
3281.25,689.946109630955
3281.5,691.540427460892
3281.75,693.132404819805
3282,694.124319199311
3282.25,694.340832158786
3282.5,694.544386250608
3282.75,695.59947075977
3283,697.561329968219
3283.25,699.502877487204
3283.5,700.494417082291
3283.75,700.315731423873
3284,699.230393721048
3284.25,697.556451654116
3284.5,695.900518202786
3284.75,694.982733169841
3285,695.199335895033
3285.25,695.830030116754
3285.5,695.919491011692
3285.75,695.030069662524
3286,693.675841876452
3286.25,692.464469261708
3286.5,691.791692579133
3286.75,691.833513117906
3287,692.702268393242
3287.25,693.984750258886
3287.5,694.96936383026
3287.75,695.10341410829
3288,694.597385838338
3288.25,693.885373224083
3288.5,693.239773818667
3288.75,692.536114291785
3289,691.597757026617
3289.25,690.561272745301
3289.5,689.980575980177
3289.75,690.385838940556
3290,691.584450849389
3290.25,692.859319426177
3290.5,693.59548347046
3290.75,693.869389828352
3291,694.01696015946
3291.25,694.351105398693
3291.5,695.113025586094
3291.75,696.525528199026
3292,698.484082896628
3292.25,700.350655105736
3292.5,701.462725517839
3292.75,701.64986751304
3293,701.195934201651
3293.25,700.402295081409
3293.5,699.574932626888
3293.75,699.022360758174
3294,698.990122598373
3294.25,699.405809767097
3294.5,700.096935175515
3294.75,700.892449964252
3295,701.625359431137
3295.25,702.133589393297
3295.5,702.52108401157
3295.75,703.311293706914
3296,705.028444075678
3296.25,707.434542659873
3296.5,709.566122251804
3296.75,710.545476570818
3297,710.665363750914
3297.25,710.903490170775
3297.5,712.021738795881
3297.75,713.421943335495
3298,713.996378520824
3298.25,713.026978873982
3298.5,711.270866727989
3298.75,709.832256867148
3299,709.405407625988
3299.25,709.669609172793
3299.5,710.151050812063
3299.75,710.456990763668
3300,710.323783535049
3300.25,709.517171565901
3300.5,708.248053392683
3300.75,707.192310150024
3301,706.997192665526
3301.25,707.670698450867
3301.5,708.781995294779
3301.75,709.907540608366
3302,710.735563590236
3302.25,711.002263963761
3302.5,710.554591682259
3302.75,709.709852316603
3303,708.910137260411
3303.25,708.441917951076
3303.5,708.174618319952
3303.75,707.911029876523
3304,707.647803565719
3304.25,707.710552405109
3304.5,708.438750208793
3304.75,709.686181556679
3305,710.778171674115
3305.25,711.080289263636
3305.5,710.829671467291
3305.75,710.874011677146
3306,711.927007621156
3306.25,713.589997720223
3306.5,714.954153316769
3306.75,715.336472875667
3307,715.123012106118
3307.25,715.012106177686
3307.5,715.479637626823
3307.75,716.316497246996
3308,717.182640526288
3308.25,717.80872678247
3308.5,718.071340431176
3308.75,717.867896501681
3309,717.235428076202
3309.25,716.412538330094
3309.5,715.650603647307
3309.75,715.129418649317
3310,714.954935317719
3310.25,715.219391605084
3310.5,715.874448305224
3310.75,716.770224222618
3311,717.727430545642
3311.25,718.34131386054
3311.5,718.09548339705
3311.75,716.648890650296
3312,714.624126222364
3312.25,712.971650370666
3312.5,712.383070014262
3312.75,712.586377191883
3313,713.086044788404
3313.25,713.519018003898
3313.5,713.841744312611
3313.75,714.060482609654
3314,714.353621829344
3314.25,715.175715265354
3314.5,716.987520797781
3314.75,719.739065125995
3315,722.820073291959
3315.25,725.597683019141
3315.5,727.529116537433
3315.75,728.140840356246
3316,727.050731616849
3316.25,724.787211420852
3316.5,722.409205564326
3316.75,720.862448099461
3317,720.186230022286
3317.25,720.005171084385
3317.5,720.04430478069
3317.75,720.575396513604
3318,722.05166671052
3318.25,724.67758249959
3318.5,727.733473212387
3318.75,730.285736692342
3319,731.700112814969
3319.25,732.141469675371
3319.5,731.906506971454
3319.75,731.277007235207
3320,730.503008290485
3320.25,729.828193920977
3320.5,729.302431867751
3320.75,728.6371388401
3321,727.517078592135
3321.25,725.975669713762
3321.5,724.537781866817
3321.75,723.752893353505
3322,723.817881322764
3322.25,724.535263128127
3322.5,725.680648890006
3322.75,726.922670362674
3323,727.838777372225
3323.25,728.045418319912
3323.5,727.656041824141
3323.75,727.109419391286
3324,726.792318680943
3324.25,726.588656131525
3324.5,726.12293653289
3324.75,725.112316643742
3325,723.888569999026
3325.25,723.028526674065
3325.5,722.933103506365
3325.75,723.150829949738
3326,722.973349855382
3326.25,721.973798738194
3326.5,720.708135769926
3326.75,719.945801232957
3327,720.099996284641
3327.25,720.677364509917
3327.5,721.046394209906
3327.75,720.956574079883
3328,720.851095840098
3328.25,721.239870109794
3328.5,722.348034565169
3328.75,724.020593738601
3329,726.068279393508
3329.25,728.126826606171
3329.5,729.659570295186
3329.75,730.166377616059
3330,729.788099652647
3330.25,729.151551927605
3330.5,728.844353018004
3330.75,728.897731400036
3331,729.001934660044
3331.25,728.876504434583
3331.5,728.519839957735
3331.75,728.066250778082
3332,727.638541225385
3332.25,727.282119059087
3332.5,727.012627135238
3332.75,726.883850185683
3333,727.131472725058
3333.25,728.045251533096
3333.5,729.734889963486
3333.75,731.65979349932
3334,733.132832623656
3334.25,733.636832391558
3334.5,733.128039845751
3334.75,731.645333265948
3335,729.432235792812
3335.25,727.201573595388
3335.5,725.727785250471
3335.75,725.365582063788
3336,725.681486960724
3336.25,726.159791549626
3336.5,726.520500108794
3336.75,726.82543478323
3337,727.164420476313
3337.25,727.661474726622
3337.5,728.479128854136
3337.75,729.763785085151
3338,731.322453394994
3338.25,732.661521387282
3338.5,733.314785266761
3338.75,733.318561146733
3339,733.066061851064
3339.25,732.927249791153
3339.5,732.951967672837
3339.75,733.000487034061
3340,732.953898908822
3340.25,732.885183593991
3340.5,732.9616919556
3340.75,733.306865088302
3341,733.749151596877
3341.25,733.997133264998
3341.5,733.829790286686
3341.75,733.405512828182
3342,733.009344735162
3342.25,732.898664411103
3342.5,733.208216231179
3342.75,734.038879730328
3343,735.389498641552
3343.25,736.891301197764
3343.5,738.092835421325
3343.75,738.652997412902
3344,738.559561409929
3344.25,737.861410466564
3344.5,736.660244930928
3344.75,735.194708345597
3345,733.725410476554
3345.25,732.526927597785
3345.5,731.905429345023
3345.75,732.168243928718
3346,733.270226596227
3346.25,734.498642674689
3346.5,735.075314746934
3346.75,734.766936934812
3347,734.189547524291
3347.25,734.022766366442
3347.5,734.534875928489
3347.75,735.447401405635
3348,736.443180696544
3348.25,737.180114372948
3348.5,737.28808243884
3348.75,736.422984289439
3349,734.840798848647
3349.25,733.379998277278
3349.5,732.848335544201
3349.75,733.103625784847
3350,733.19884239776
3350.25,732.249618221378
3350.5,730.538279472304
3350.75,729.173575976301
3351,729.179381720184
3351.25,730.521164223007
3351.5,732.539293786535
3351.75,734.607530569887
3352,736.422944307408
3352.25,737.834285214577
3352.5,738.714795245986
3352.75,739.085956408858
3353,739.026631991939
3353.25,738.61574664888
3353.5,737.931882499123
3353.75,737.053506307503
3354,736.090851033798
3354.25,735.30457942997
3354.5,734.999838608139
3354.75,735.333372178044
3355,735.860934614194
3355.25,735.986210193148
3355.5,735.360364659642
3355.75,734.471957308352
3356,733.986233791341
3356.25,734.321195967631
3356.5,735.185535481936
3356.75,736.161755698881
3357,736.89629654635
3357.25,737.188192741276
3357.5,736.859536265873
3357.75,735.845279610229
3358,734.310621526942
3358.25,732.449385409479
3358.5,730.504800800098
3358.75,728.807498456039
3359,727.691953847223
3359.25,727.224649843193
3359.5,727.07712050415
3359.75,726.896297134334
3360,726.548881023755
3360.25,726.158397593784
3360.5,725.866956462774
3360.75,725.896587728835
3361,726.542763499049
3361.25,728.066630213262
3361.5,730.232878467103
3361.75,732.451667813378
3362,734.156466341978
3362.25,735.078496250336
3362.5,735.115147288946
3362.75,734.236886166463
3363,732.960658803416
3363.25,732.056292574406
3363.5,732.153571020115
3363.75,732.986151436354
3364,733.937751582865
3364.25,734.505928278976
3364.5,734.770460138666
3364.75,734.995504724751
3365,735.408448410117
3365.25,736.082407609033
3365.5,737.050125450464
3365.75,738.307533231263
3366,739.721806833032
3366.25,741.131928650863
3366.5,742.290711453104
3366.75,742.692585341028
3367,741.784362909335
3367.25,739.386988539702
3367.5,736.331540394769
3367.75,733.616958397601
3368,731.921490349467
3368.25,731.133564148388
3368.5,731.022044618965
3368.75,731.334777136934
3369,731.776359604179
3369.25,732.049760468526
3369.5,732.132321855063
3369.75,732.4600674211
3370,733.502436486291
3370.25,735.27230011582
3370.5,737.152686508969
3370.75,738.49433340742
3371,739.062087216088
3371.25,739.098521088529
3371.5,738.863870035699
3371.75,738.408133214228
3372,737.567382337202
3372.25,736.183538640341
3372.5,734.39837519525
3372.75,732.62564003251
3373,731.270523222384
3373.25,730.450890709704
3373.5,730.057206697544
3373.75,729.969971909271
3374,730.025349538173
3374.25,730.030501826257
3374.5,729.833085705769
3374.75,729.647784223457
3375,729.882675824509
3375.25,730.865139551428
3375.5,732.353926791877
3375.75,733.867996019825
3376,734.96406300411
3376.25,735.406545682942
3376.5,735.029416329527
3376.75,733.757534291825
3377,731.918440545595
3377.25,729.951220411418
3377.5,728.226789508811
3377.75,726.863682074068
3378,725.921992000207
3378.25,725.40469169981
3378.5,725.147920044846
3378.75,724.95844656193
3379,724.834560412285
3379.25,725.199531232286
3379.5,726.52702280299
3379.75,728.776845847468
3380,731.042500151395
3380.25,732.35029287476
3380.5,732.360981313458
3380.75,731.563692690322
3381,730.494133616971
3381.25,729.443329230862
3381.5,728.437790714822
3381.75,727.493745117862
3382,726.681534438447
3382.25,726.119468508155
3382.5,725.911902490001
3382.75,725.958520541935
3383,726.015072941912
3383.25,725.875091367657
3383.5,725.711311118556
3383.75,725.902521119326
3384,726.765895736346
3384.25,728.185966635017
3384.5,729.867251558692
3384.75,731.497378907143
3385,732.681635270574
3385.25,732.999364247362
3385.5,732.191219125921
3385.75,730.638306341845
3386,728.880612662517
3386.25,727.333015196343
3386.5,726.005003280138
3386.75,724.824294294569
3387,723.796799404103
3387.25,723.126804856223
3387.5,723.04723952808
3387.75,723.520035909288
3388,723.987536303647
3388.25,723.846104196301
3388.5,723.119095737153
3388.75,722.7285466703
3389,723.629975009441
3389.25,725.80972299586
3389.5,728.197271766003
3389.75,729.713335639229
3390,730.018442880841
3390.25,729.381483102325
3390.5,728.097930466694
3390.75,726.56509309182
3391,725.247348370257
3391.25,724.564006428272
3391.5,724.522297156876
3391.75,724.913156137218
3392,725.535800537171
3392.25,726.25519294958
3392.5,726.962383310128
3392.75,727.619164173684
3393,728.522747726778
3393.25,730.069737345418
3393.5,732.400299211512
3393.75,734.731395262699
3394,736.072805910615
3394.25,735.874429424648
3394.5,734.837042155327
3394.75,733.880901939788
3395,733.531999228706
3395.25,733.362491578646
3395.5,732.805772135222
3395.75,731.665433652812
3396,730.493627736687
3396.25,729.927139315075
3396.5,730.177632215917
3396.75,730.74278701275
3397,731.063676348702
3397.25,731.085089963329
3397.5,731.435264366627
3397.75,732.765026372478
3398,734.992441824559
3398.25,737.221225316231
3398.5,738.547436064707
3398.75,738.761249641932
3399,738.291998851742
3399.25,737.580311853677
3399.5,736.863135862441
3399.75,736.212024445562
3400,735.680443264646
3400.25,735.143099463261
3400.5,734.346800873671
3400.75,733.087782213277
3401,731.732889944347
3401.25,731.000601550754
3401.5,731.512759995235
3401.75,732.998853386567
3402,734.7261959859
3402.25,736.055041465522
3402.5,737.008831699396
3402.75,737.888874713526
3403,738.935260404965
3403.25,740.034960416544
3403.5,740.950422345984
3403.75,741.469976866635
3404,741.5096565862
3404.25,741.024601707011
3404.5,740.040225537721
3404.75,738.89122714663
3405,737.997380392955
3405.25,737.625907855832
3405.5,737.441408408156
3405.75,736.959724724471
3406,735.904344786578
3406.25,734.709186747367
3406.5,733.959781543136
3406.75,734.009623663318
3407,734.531353173109
3407.25,735.073949139358
3407.5,735.376926874219
3407.75,735.644625236529
3408,736.149575576536
3408.25,736.958938165684
3408.5,737.716553058592
3408.75,738.016310014393
3409,737.653147104728
3409.25,736.777399807522
3409.5,735.576809121441
3409.75,734.30401009386
3410,733.312435084073
3410.25,732.953853405774
3410.5,733.148861673416
3410.75,733.240888717945
3411,732.563750236364
3411.25,731.325526268176
3411.5,730.713242108228
3411.75,731.896417947011
3412,734.622596865206
3412.25,737.306210869669
3412.5,738.405499286201
3412.75,737.799613386847
3413,736.459239139083
3413.25,735.315363609156
3413.5,734.459515093508
3413.75,733.415315430385
3414,731.765535412888
3414.25,729.801981715492
3414.5,728.2292342725
3414.75,727.64984719616
3415,727.801972306374
3415.25,728.006030502036
3415.5,727.712850636375
3415.75,727.184914412918
3416,726.990569278967
3416.25,727.529161495639
3416.5,728.409732421792
3416.75,729.011264420791
3417,728.914524735996
3417.25,728.413903784766
3417.5,727.961152711268
3417.75,727.792245352942
3418,727.547409018971
3418.25,726.766746980573
3418.5,725.318399533827
3418.75,723.775709896095
3419,722.79796354829
3419.25,722.638827417793
3419.5,722.874263804361
3419.75,723.022182747293
3420,722.829687084987
3420.25,722.331296119612
3420.5,721.590929995694
3420.75,720.905791145555
3421,720.793653765559
3421.25,721.730571167374
3421.5,723.53058437519
3421.75,725.541288121895
3422,727.138192463523
3422.25,728.025071721413
3422.5,728.074909044418
3422.75,727.218743298229
3423,725.749962471055
3423.25,724.104666817942
3423.5,722.671316705375
3423.75,721.604092765901
3424,720.985780675054
3424.25,720.833231446304
3424.5,720.927837220958
3424.75,720.998909698474
3425,720.972920780448
3425.25,721.27765406325
3425.5,722.415260307184
3425.75,724.473884654727
3426,726.780226516078
3426.25,728.588707598442
3426.5,729.567400532929
3426.75,729.947885386828
3427,729.991887135306
3427.25,729.688111231134
3427.5,728.730031812424
3427.75,726.826727006983
3428,724.244454926907
3428.25,721.738361196019
3428.5,720.032213103887
3428.75,719.2302243717
3429,719.005383174861
3429.25,719.05207447368
3429.5,719.323380087773
3429.75,719.904050865965
3430,720.841192691678
3430.25,721.958249180391
3430.5,722.998471552239
3430.75,723.778424376512
3431,724.409811537716
3431.25,725.07835786182
3431.5,725.819400832491
3431.75,726.229693893199
3432,725.828299646828
3432.25,724.491816732501
3432.5,722.880271324046
3432.75,721.752304999756
3433,721.471641497328
3433.25,721.737116714797
3433.5,722.187488246478
3433.75,722.59588982903
3434,722.903453943828
3434.25,723.076617569024
3434.5,723.381376420026
3434.75,724.363171734117
3435,726.514382818066
3435.25,729.493277578853
3435.5,732.372227520261
3435.75,734.290419870799
3436,735.110463374924
3436.25,735.083326598533
3436.5,734.456959846442
3436.75,733.430000064367
3437,732.179156067343
3437.25,730.885949081719
3437.5,729.761679671404
3437.75,729.028811198661
3438,728.832085885531
3438.25,728.93808731265
3438.5,728.99858273386
3438.75,728.848471120143
3439,729.014691385526
3439.25,730.187255059092
3439.5,732.633691165764
3439.75,735.377399189747
3440,737.215914552582
3440.25,737.480878423575
3440.5,736.753511932099
3440.75,735.7909130194
3441,734.990109252883
3441.25,734.019708310576
3441.5,732.464931059057
3441.75,730.286372909622
3442,728.096126137798
3442.25,726.561272137094
3442.5,725.844005470218
3442.75,725.376244932463
3443,724.548033985978
3443.25,723.194095661902
3443.5,721.654010640539
3443.75,720.295461114272
3444,719.500733994111
3444.25,719.664885550233
3444.5,721.104594391837
3444.75,723.223168461966
3445,724.835957615947
3445.25,724.916967109091
3445.5,723.735682221725
3445.75,722.162771552526
3446,720.931816707526
3446.25,719.987756771488
3446.5,719.000352232917
3446.75,717.810278469361
3447,716.943656762071
3447.25,717.097534402987
3447.5,718.524031689698
3447.75,720.241569571375
3448,721.06338711953
3448.25,720.591273848261
3448.5,719.934297457888
3448.75,720.350413130883
3449,722.12913879404
3449.25,724.205038676162
3449.5,725.44721847351
3449.75,725.574196384733
3450,725.171977717155
3450.25,724.823601712655
3450.5,724.461307112958
3450.75,723.505681534672
3451,721.451886706774
3451.25,718.7331744428
3451.5,716.348199879927
3451.75,715.157427105525
3452,714.942849884289
3452.25,715.003241076547
3452.5,714.770697447434
3452.75,714.334480209731
3453,713.982639644218
3453.25,713.957343991067
3453.5,714.354425793067
3453.75,715.239526502997
3454,716.494308699427
3454.25,717.612559593905
3454.5,718.04410238821
3454.75,717.496929725799
3455,716.051428741036
3455.25,713.826937589916
3455.5,711.184742144229
3455.75,708.735499649466
3456,707.063563326329
3456.25,706.247605777973
3456.5,706.005199002096
3456.75,706.050541232005
3457,706.130891403455
3457.25,706.008470842276
3457.5,705.591200677623
3457.75,705.419442029447
3458,706.204258097839
3458.25,708.225083915401
3458.5,710.647442088356
3458.75,712.46767693683
3459,713.199349616765
3459.25,713.176398163773
3459.5,712.796646850745
3459.75,712.22866841338
3460,711.397462983118
3460.25,710.238425729621
3460.5,708.988216222394
3460.75,708.100704616408
3461,707.963131904578
3461.25,708.4012030465
3461.5,708.975152419176
3461.75,709.379991884056
3462,709.946556999989
3462.25,711.190602086994
3462.5,713.377943748771
3462.75,716.059367610098
3463,718.65953125339
3463.25,720.694950159257
3463.5,721.851467348862
3463.75,721.846812323766
3464,720.938096085659
3464.25,720.088405244823
3464.5,720.258859561954
3464.75,721.31569979046
3465,722.056246765347
3465.25,721.34603231004
3465.5,719.55600385734
3465.75,718.129884012773
3466,718.341180490792
3466.25,719.731673043696
3466.5,720.930009851445
3466.75,720.846297812754
3467,720.111794819447
3467.25,719.990951734833
3467.5,721.399195819495
3467.75,723.789421698267
3468,726.232742339537
3468.25,727.995285770181
3468.5,728.913397272138
3468.75,728.927442727933
3469,728.051257014917
3469.25,726.46187713269
3469.5,724.360341346551
3469.75,722.124653243992
3470,720.444675158704
3470.25,720.024453894617
3470.5,720.823504808059
3470.75,721.797003293213
3471,721.879898418242
3471.25,721.143903256021
3471.5,720.780576071381
3471.75,721.937018832368
3472,724.478561222865
3472.25,727.329064142904
3472.5,729.472945942414
3472.75,730.65083232092
3473,731.010296834828
3473.25,730.712664993866
3473.5,729.986986056389
3473.75,729.090844951054
3474,728.253710640032
3474.25,727.551500932189
3474.5,727.008152446992
3474.75,726.664657664442
3475,726.634181199676
3475.25,727.048898456187
3475.5,727.950393701806
3475.75,729.089780096159
3476,730.160580950783
3476.25,731.030356418439
3476.5,731.993880829944
3476.75,733.407782259602
3477,735.313710399731
3477.25,737.135225835922
3477.5,738.229082948301
3477.75,738.304776137755
3478,737.647137025192
3478.25,736.591329656414
3478.5,735.341886520444
3478.75,733.915913344797
3479,732.320167559421
3479.25,730.709258247593
3479.5,729.422712917793
3479.75,728.79670495287
3480,728.791817269497
3480.25,728.97548563771
3480.5,728.925180412425
3480.75,728.708031365798
3481,728.80269636469
3481.25,729.641866540644
3481.5,730.933767407745
3481.75,731.898794413219
3482,731.832746058229
3482.25,730.805757927541
3482.5,729.303756166421
3482.75,727.754616514298
3483,726.137555785521
3483.25,724.234467537998
3483.5,721.925475576539
3483.75,719.641910870802
3484,718.005665050375
3484.25,717.408162386303
3484.5,717.303888145041
3484.75,716.910006225236
3485,715.863663176143
3485.25,714.969331320822
3485.5,715.226567827442
3485.75,716.932438384437
3486,719.038183909648
3486.25,720.362730821552
3486.5,720.516117653537
3486.75,720.149568600959
3487,719.95332880577
3487.25,719.932644441071
3487.5,719.434226349366
3487.75,717.849521179503
3488,715.502319597234
3488.25,713.370503953921
3488.5,712.336212732264
3488.75,712.359231111695
3489,712.936331384981
3489.25,713.625091856781
3489.5,714.323192442702
3489.75,715.040353485522
3490,715.774459087615
3490.25,716.483037427324
3490.5,717.115377720445
3490.75,717.689169973391
3491,718.376695857121
3491.25,719.366117135597
3491.5,720.510755730014
3491.75,721.136726979712
3492,720.549078683251
3492.25,718.790895902626
3492.5,716.742856998248
3492.75,715.295763350531
3493,714.740616057923
3493.25,714.865688395425
3493.5,715.426436871387
3493.75,716.002217169356
3494,716.069513047551
3494.25,715.260652611546
3494.5,714.219153980972
3494.75,713.989020128974
3495,715.319782153548
3495.25,717.705117493378
3495.5,720.305288249295
3495.75,722.417112770799
3496,723.715969936836
3496.25,723.943852050663
3496.5,723.042623664484
3496.75,721.348907204168
3497,719.246184594432
3497.25,717.148951797361
3497.5,715.51793926272
3497.75,714.797152399229
3498,714.880072396009
3498.25,715.061731954935
3498.5,714.660514069623
3498.75,713.769563991142
3499,713.06589578841
3499.25,713.176480973853
3499.5,714.164666427821
3499.75,715.802101604088
3500,717.820171141631
3500.25,719.743367147552
3500.5,721.025778810376
3500.75,721.290421099062
3501,720.773974814226
3501.25,719.852203001242
3501.5,718.819671288012
3501.75,717.76119474599
3502,716.727737773191
3502.25,715.726108674782
3502.5,714.681564618304
3502.75,713.51449043572
3503,712.297881033993
3503.25,711.302749181763
3503.5,710.805237498647
3503.75,710.929377682277
3504,711.663770422625
3504.25,712.96582810806
3504.5,714.520360622111
3504.75,715.851598943218
3505,716.542635479094
3505.25,716.557892073553
3505.5,716.009013706663
3505.75,714.995552463163
3506,713.56571539422
3506.25,711.754583936449
3506.5,709.709534723544
3506.75,707.888423199396
3507,706.798683148252
3507.25,706.605837269029
3507.5,706.858259025179
3507.75,707.050925377465
3508,707.015905624496
3508.25,706.970509457836
3508.5,707.147327141345
3508.75,707.699256032292
3509,708.721137405469
3509.25,710.269581443952
3509.5,712.122130198241
3509.75,713.928764231187
3510,715.351210845437
3510.25,716.10764428231
3510.5,715.932445407709
3510.75,714.763333534994
3511,713.140276350612
3511.25,711.712693118171
3511.5,710.920067158445
3511.75,710.779482897929
3512,711.252660401025
3512.25,712.105537173862
3512.5,712.842398247863
3512.75,712.984375206918
3513,712.710867038174
3513.25,712.786159244557
3513.5,713.906146321658
3513.75,715.828935626044
3514,717.749372166613
3514.25,718.974556697013
3514.5,719.588976204657
3514.75,719.987039276531
3515,720.426800599971
3515.25,720.565020463117
3515.5,719.893895936045
3515.75,718.205464392791
3516,716.210509623223
3516.25,714.793025038904
3516.5,714.430092969327
3516.75,714.714941452285
3517,715.129882458806
3517.25,715.426901957348
3517.5,715.758199149352
3517.75,716.30555358353
3518,717.181936164363
3518.25,718.429636094189
3518.5,720.072042844223
3518.75,721.920350903708
3519,723.633138579792
3519.25,724.878118439682
3519.5,725.431751192562
3519.75,725.126517967817
3520,723.89307126245
3520.25,722.271178619254
3520.5,721.034918850058
3520.75,720.743103368224
3521,720.963489421325
3521.25,720.979529013482
3521.5,720.342151309977
3521.75,719.470480215268
3522,718.958656146937
3522.25,719.194302606993
3522.5,720.085873225027
3522.75,721.473769644041
3523,723.179432800733
3523.25,724.993029179963
3523.5,726.6982743196
3523.75,727.960806031757
3524,728.303070200822
3524.25,727.272833932446
3524.5,725.122381789133
3524.75,722.76877410544
3525,721.095957560479
3525.25,720.138896371826
3525.5,719.296523422311
3525.75,718.040252544838
3526,716.680993927715
3526.25,715.99579499086
3526.5,716.58747385396
3526.75,717.915354660161
3527,718.989397480802
3527.25,719.115085764092
3527.5,718.848242688687
3527.75,719.073784057202
3528,720.301053711199
3528.25,721.944620380703
3528.5,723.222237694081
3528.75,723.584801489523
3529,722.960854927037
3529.25,721.342956969613
3529.5,719.041431723212
3529.75,716.852158639115
3530,715.590157159412
3530.25,715.43013102059
3530.5,715.818603415361
3530.75,716.183033882121
3531,716.273036691813
3531.25,716.094974520943
3531.5,715.711502036299
3531.75,715.654220599874
3532,716.71477380425
3532.25,719.455245754181
3532.5,723.011852896218
3532.75,725.980196552355
3533,727.266531788584
3533.25,727.058025843087
3533.5,725.870832410649
3533.75,724.183366091787
3534,722.35756033128
3534.25,720.732688083488
3534.5,719.579356686235
3534.75,719.007514564276
3535,719.101864681612
3535.25,719.767757669472
3535.5,720.605847005437
3535.75,721.203593130703
3536,721.706758193112
3536.25,722.943432201749
3536.5,725.72632758301
3536.75,729.772549194942
3537,733.810373406023
3537.25,736.619395893488
3537.5,738.078626773368
3537.75,738.821805017079
3538,739.441673570031
3538.25,739.961918843151
3538.5,740.073594335865
3538.75,739.528203946948
3539,738.64454774868
3539.25,738.035553218643
3539.5,738.204632759646
3539.75,738.793455585438
3540,739.043762366347
3540.25,738.346332843906
3540.5,737.090235107128
3540.75,736.06916068303
3541,735.950988120629
3541.25,736.672735525834
3541.5,737.910434390468
3541.75,739.32436376456
3542,740.499935142722
3542.25,740.999881076063
3542.5,740.49013148738
3542.75,739.070001109859
3543,736.952548902337
3543.25,734.402382255966
3543.5,731.878384396476
3543.75,729.885145204436
3544,728.750067451695
3544.25,728.228711004027
3544.5,727.96169332012
3544.75,727.676600894052
3545,727.323336492132
3545.25,726.887831188075
3545.5,726.491540065969
3545.75,726.526441518228
3546,727.409748065421
3546.25,729.141382033283
3546.5,731.072329988012
3546.75,732.509045379398
3547,733.148620647422
3547.25,733.164403429117
3547.5,732.752519635799
3547.75,731.966374510795
3548,730.71523931651
3548.25,728.92472835753
3548.5,726.913618547603
3548.75,725.333081792864
3549,724.787714180471
3549.25,725.162334775023
3549.5,725.84895117368
3549.75,726.312704955227
3550,726.752345339086
3550.25,727.750191337947
3550.5,729.73571839823
3550.75,732.123037045092
3551,733.920382774457
3551.25,734.363173742528
3551.5,733.81887066083
3551.75,733.005239241532
3552,732.450127204345
3552.25,731.904214475938
3552.5,730.919562424121
3552.75,729.255395834382
3553,727.36220597914
3553.25,725.834135032907
3553.5,725.060665832707
3553.75,724.884677335353
3554,725.059108196956
3554.25,725.385265970506
3554.5,725.762963556839
3554.75,726.106712925079
3555,726.494630676218
3555.25,727.258755174666
3555.5,728.737325077796
3555.75,730.751442873652
3556,732.499518999543
3556.25,733.175543973248
3556.5,732.666830360093
3556.75,731.523999255048
3557,730.295785881441
3557.25,729.078428110578
3557.5,727.605848301174
3557.75,725.651926964159
3558,723.5851828066
3558.25,722.163528203212
3558.5,722.038648511239
3558.75,722.889140669546
3559,723.896880725897
3559.25,724.386680385992
3559.5,724.567607412519
3559.75,724.977979043457
3560,726.02211881172
3560.25,727.514149300606
3560.5,729.106408150191
3560.75,730.445679576006
3561,731.160701494804
3561.25,730.877162309611
3561.5,729.478778547606
3561.75,727.506185705556
3562,725.601658004175
3562.25,724.20182157755
3562.5,723.320622765346
3562.75,722.918850996864
3563,722.882426704577
3563.25,722.978772437031
3563.5,722.971814355249
3563.75,722.850145442733
3564,722.86958974241
3564.25,723.291761328409
3564.5,724.191657629107
3564.75,725.476877465899
3565,727.036381472562
3565.25,728.601970205411
3565.5,729.799361085342
3565.75,730.271246631787
3566,729.827751347236
3566.25,728.366217887618
3566.5,725.890859381516
3566.75,723.128265742505
3567,721.106066306804
3567.25,720.613847672069
3567.5,721.20181551654
3567.75,722.019725762885
3568,722.397080543974
3568.25,722.321381786286
3568.5,721.930685484195
3568.75,721.46381779891
3569,721.424674070607
3569.25,722.355767505441
3569.5,724.282549469277
3569.75,726.237410391416
3570,727.153481963545
3570.25,726.601451622728
3570.5,725.057673572118
3570.75,723.064626344157
3571,721.083631509238
3571.25,719.485496448184
3571.5,718.609673737293
3571.75,718.331371315785
3572,718.131213035994
3572.25,717.533432351013
3572.5,716.670720711809
3572.75,716.048199691469
3573,716.108792090664
3573.25,716.818517136787
3573.5,717.938111804223
3573.75,719.25285042012
3574,720.665630389585
3574.25,722.113439333204
3574.5,723.490201353806
3574.75,724.553524335989
3575,725.034596884201
3575.25,724.781428811373
3575.5,723.909679918949
3575.75,722.574353996372
3576,721.099113470122
3576.25,720.100849142979
3576.5,720.208405731543
3576.75,721.369180235341
3577,722.642262504534
3577.25,723.070080836851
3577.5,722.60253310224
3577.75,722.053685956111
3578,722.22045876213
3578.25,723.205437645122
3578.5,724.613191910117
3578.75,726.049880984271
3579,727.234236028232
3579.25,727.944747218913
3579.5,727.988566185639
3579.75,727.356476836795
3580,726.112991307118
3580.25,724.373971893706
3580.5,722.510162249072
3580.75,720.971537886785
3581,720.101301200736
3581.25,719.843983356632
3581.5,720.05101810615
3581.75,720.524886105765
3582,720.938221415162
3582.25,720.945673692127
3582.5,720.567401041749
3582.75,720.515811471743
3583,721.564173533297
3583.25,723.749893595438
3583.5,726.089936429384
3583.75,727.555900149991
3584,727.832029353552
3584.25,727.331592084169
3584.5,726.478426880239
3584.75,725.337459043014
3585,723.684966963897
3585.25,721.350629223605
3585.5,718.857683613242
3585.75,717.166480051876
3586,717.07445546199
3586.25,718.055739394275
3586.5,718.963330283041
3586.75,718.934882065382
3587,718.595052492797
3587.25,719.04661015625
3587.5,720.953009332746
3587.75,723.416145540536
3588,725.192817896946
3588.25,725.583777665111
3588.5,725.234650620031
3588.75,724.990630659084
3589,725.203676527348
3589.25,725.303141791769
3589.5,724.629387817497
3589.75,723.118692047092
3590,721.559135015916
3590.25,720.781336766092
3590.5,720.986798372802
3590.75,721.685645609936
3591,722.377761479193
3591.25,722.971451391515
3591.5,723.706470721131
3591.75,724.805871635146
3592,726.213688106492
3592.25,727.705745127287
3592.5,729.087860804779
3592.75,730.407723718869
3593,731.822643272323
3593.25,733.398308326113
3593.5,734.677032408859
3593.75,735.016619694395
3594,733.977441651833
3594.25,732.045146479425
3594.5,729.969152311487
3594.75,728.369506365405
3595,727.373254138953
3595.25,726.98999556605
3595.5,727.160907721302
3595.75,727.621626696218
3596,728.069946479413
3596.25,728.350443740135
3596.5,728.646101625886
3596.75,729.186147838586
3597,730.078409694017
3597.25,731.211345882555
3597.5,732.448160042144
3597.75,733.542599698872
3598,734.090571153435
3598.25,733.689527808569
3598.5,732.384133731014
3598.75,730.752467205375
3599,729.388912367463
3599.25,728.538772194007
3599.5,728.095141275555
3599.75,727.951241536533
3600,728.258199641204
3600.25,729.37823826337
3600.5,731.631120650915
3600.75,734.766802571538
3601,738.165691006987
3601.25,741.241784211219
3601.5,743.76193763086
3601.75,745.677318340162
3602,746.955552398665
3602.25,747.678083154235
3602.5,747.978986061093
3602.75,747.960013431111
3603,747.485672851618
3603.25,746.315587918022
3603.5,744.304791572094
3603.75,741.988134607551
3604,740.194267135686
3604.25,739.596212204288
3604.5,739.81036150748
3604.75,740.016744695488
3605,739.525795580104
3605.25,738.431676422101
3605.5,737.117124434448
3605.75,735.944229973517
3606,735.164108165004
