2646,56.1647077974931
2646.25,56.2546638450269
2646.5,56.3446198925606
2646.75,56.428813283412
2647,56.5037766563568
2647.25,56.5787400293016
2647.5,56.6537034022465
2647.75,56.7286667751913
2648,56.8036301481361
2648.25,56.8785935210809
2648.5,56.9535568940257
2648.75,57.0285202669705
2649,57.1034836399154
2649.25,57.1784470128602
2649.5,57.253410385805
2649.75,57.3283737587498
2650,57.4033371316946
2650.25,57.4783005046394
2650.5,57.5532638775842
2650.75,57.6282272505291
2651,57.7031906234739
2651.25,57.7781539964187
2651.5,57.8531173693635
2651.75,57.9430571382061
2652,58.0580009767215
2652.25,58.1729448152368
2652.5,58.2878886537523
2652.75,58.4028324922676
2653,58.5177763307831
2653.25,58.6327201692984
2653.5,58.7476640078138
2653.75,58.8626078463292
2654,58.9775516848445
2654.25,59.0924955233599
2654.5,59.2074393618753
2654.75,59.3223832003907
2655,59.4373270389061
2655.25,59.5522708774215
2655.5,59.6672147159368
2655.75,59.7821585544523
2656,59.8971023929676
2656.25,60.012046231483
2656.5,60.1269900699984
2656.75,60.1525964512453
2657,60.0226599381409
2657.25,59.8927234250366
2657.5,59.7627869119322
2657.75,59.6328503988279
2658,59.5029138857236
2658.25,59.3729773726192
2658.5,59.2430408595149
2658.75,59.1131043464105
2659,58.9831678333062
2659.25,58.8532313202018
2659.5,58.7232948070975
2659.75,58.5933582939931
2660,58.4634217808888
2660.25,58.3334852677845
2660.5,58.2035487546801
2660.75,58.0736122415758
2661,57.9436757284714
2661.25,57.8137392153671
2661.5,57.6838027022627
2661.75,57.5645124531988
2662,57.4645612892723
2662.25,57.3646101253459
2662.5,57.2646589614195
2662.75,57.1647077974931
2663,57.0647566335667
2663.25,56.9648054696402
2663.5,56.8648543057138
2663.75,56.7649031417874
2664,56.664951977861
2664.25,56.5650008139345
2664.5,56.4650496500081
2664.75,56.3650984860818
2665,56.2651473221553
2665.25,56.1651961582289
2665.5,56.0652449943024
2665.75,55.965293830376
2666,55.8653426664496
2666.25,55.7653915025232
2666.5,55.6654403385967
2666.75,55.6017255412665
2667,55.6067230994628
2667.25,55.6117206576591
2667.5,55.6167182158554
2667.75,55.6217157740518
2668,55.6267133322481
2668.25,55.6317108904444
2668.5,55.6367084486407
2668.75,55.6417060068371
2669,55.6467035650334
2669.25,55.6517011232297
2669.5,55.656698681426
2669.75,55.6616962396223
2670,55.6666937978187
2670.25,55.671691356015
2670.5,55.6766889142113
2670.75,55.6816864724076
2671,55.6866840306039
2671.25,55.6916815888003
2671.5,55.6966791469966
2671.75,55.7184437571219
2672,55.7734168972815
2672.25,55.828390037441
2672.5,55.8833631776005
2672.75,55.9383363177601
2673,55.9933094579196
2673.25,56.0482825980791
2673.5,56.1032557382387
2673.75,56.1582288783982
2674,56.2132020185577
2674.25,56.2681751587172
2674.5,56.3231482988768
2674.75,56.3781214390363
2675,56.4330945791959
2675.25,56.4880677193554
2675.5,56.5430408595149
2675.75,56.5980139996744
2676,56.6529871398339
2676.25,56.7079602799935
2676.5,56.762933420153
2676.75,56.8227901676705
2677,56.892755982419
2677.25,56.9627217971675
2677.5,57.032687611916
2677.75,57.1026534266645
2678,57.172619241413
2678.25,57.2425850561615
2678.5,57.31255087091
2678.75,57.3825166856585
2679,57.452482500407
2679.25,57.5224483151555
2679.5,57.592414129904
2679.75,57.6623799446525
2680,57.7323457594009
2680.25,57.8023115741495
2680.5,57.8722773888979
2680.75,57.9422432036464
2681,58.0122090183949
2681.25,58.0821748331434
2681.5,58.1521406478919
2681.75,58.1747354712681
2682,58.094774540127
2682.25,58.0148136089859
2682.5,57.9348526778447
2682.75,57.8548917467036
2683,57.7749308155624
2683.25,57.6949698844213
2683.5,57.6150089532801
2683.75,57.535048022139
2684,57.4550870909979
2684.25,57.3751261598567
2684.5,57.2951652287156
2684.75,57.2152042975745
2685,57.1352433664334
2685.25,57.0552824352922
2685.5,56.9753215041511
2685.75,56.8953605730099
2686,56.8153996418688
2686.25,56.7354387107277
2686.5,56.6554777795865
2686.75,56.6459059091649
2687,56.7958326550546
2687.25,56.9457594009441
2687.5,57.0956861468338
2687.75,57.2456128927234
2688,57.3955396386131
2688.25,57.5454663845027
2688.5,57.6953931303923
2688.75,57.845319876282
2689,57.9952466221715
2689.25,58.1451733680613
2689.5,58.2951001139508
2689.75,58.4450268598405
2690,58.5949536057301
2690.25,58.7448803516198
2690.5,58.8948070975094
2690.75,59.0447338433989
2691,59.1946605892887
2691.25,59.3445873351782
2691.5,59.4945140810679
2691.75,59.5718541429269
2692,59.4769005371968
2692.25,59.3819469314667
2692.5,59.2869933257366
2692.75,59.1920397200065
2693,59.0970861142764
2693.25,59.0021325085463
2693.5,58.9071789028162
2693.75,58.8122252970861
2694,58.717271691356
2694.25,58.6223180856259
2694.5,58.5273644798958
2694.75,58.4324108741658
2695,58.3374572684356
2695.25,58.2425036627055
2695.5,58.1475500569754
2695.75,58.0525964512453
2696,57.9576428455152
2696.25,57.8626892397851
2696.5,57.767735634055
2696.75,57.7114601986
2697,57.7514406641706
2697.25,57.7914211297412
2697.5,57.8314015953117
2697.75,57.8713820608823
2698,57.9113625264529
2698.25,57.9513429920235
2698.5,57.991323457594
2698.75,58.0313039231646
2699,58.0712843887352
2699.25,58.1112648543057
2699.5,58.1512453198763
2699.75,58.1912257854468
2700,58.2312062510174
2700.25,58.271186716588
2700.5,58.3111671821586
2700.75,58.3511476477291
2701,58.3911281132997
2701.25,58.4311085788703
2701.5,58.4710890444408
2701.75,58.4737099137229
2702,58.3787563079929
2702.25,58.2838027022627
2702.5,58.1888490965327
2702.75,58.0938954908025
2703,57.9989418850724
2703.25,57.9039882793423
2703.5,57.8090346736122
2703.75,57.7140810678822
2704,57.619127462152
2704.25,57.524173856422
2704.5,57.4292202506918
2704.75,57.3342666449618
2705,57.2393130392316
2705.25,57.1443594335015
2705.5,57.0494058277715
2705.75,56.9544522220413
2706,56.8594986163113
2706.25,56.7645450105811
2706.5,56.6695914048511
2706.75,56.5893211785772
2707,56.5493407130067
2707.25,56.5093602474361
2707.5,56.4693797818655
2707.75,56.429399316295
2708,56.3894188507244
2708.25,56.3494383851538
2708.5,56.3094579195833
2708.75,56.2694774540127
2709,56.2294969884421
2709.25,56.1895165228716
2709.5,56.149536057301
2709.75,56.1095555917304
2710,56.0695751261599
2710.25,56.0295946605893
2710.5,55.9896141950187
2710.75,55.9496337294481
2711,55.9096532638776
2711.25,55.869672798307
2711.5,55.8296923327365
2711.75,55.7948559335829
2712,55.7748657007977
2712.25,55.7548754680124
2712.5,55.7348852352271
2712.75,55.7148950024418
2713,55.6949047696565
2713.25,55.6749145368712
2713.5,55.6549243040859
2713.75,55.6349340713007
2714,55.6149438385154
2714.25,55.5949536057301
2714.5,55.5749633729448
2714.75,55.5549731401595
2715,55.5349829073743
2715.25,55.514992674589
2715.5,55.4950024418037
2715.75,55.4750122090184
2716,55.4550219762331
2716.25,55.4350317434478
2716.5,55.4150415106625
2716.75,55.4383525964512
2717,55.5932769005372
2717.25,55.7482012046231
2717.5,55.9031255087091
2717.75,56.058049812795
2718,56.2129741168811
2718.25,56.367898420967
2718.5,56.5228227250528
2718.75,56.6777470291389
2719,56.8326713332248
2719.25,56.9875956373108
2719.5,57.1425199413967
2719.75,57.2974442454827
2720,57.4523685495686
2720.25,57.6072928536546
2720.5,57.7622171577405
2720.75,57.9171414618264
2721,58.0720657659124
2721.25,58.2269900699983
2721.5,58.3819143740844
2721.75,58.4976233110858
2722,58.4876281946931
2722.25,58.4776330783005
2722.5,58.4676379619079
2722.75,58.4576428455152
2723,58.4476477291226
2723.25,58.4376526127299
2723.5,58.4276574963373
2723.75,58.4176623799447
2724,58.407667263552
2724.25,58.3976721471594
2724.5,58.3876770307667
2724.75,58.3776819143741
2725,58.3676867979814
2725.25,58.3576916815888
2725.5,58.3476965651962
2725.75,58.3377014488035
2726,58.3277063324109
2726.25,58.3177112160182
2726.5,58.3077160996256
2726.75,58.2897444245483
2727,58.2447664007814
2727.25,58.1997883770145
2727.5,58.1548103532476
2727.75,58.1098323294807
2728,58.0648543057138
2728.25,58.0198762819469
2728.5,57.97489825818
2728.75,57.9299202344131
2729,57.8849422106463
2729.25,57.8399641868793
2729.5,57.7949861631125
2729.75,57.7500081393456
2730,57.7050301155787
2730.25,57.6600520918118
2730.5,57.6150740680449
2730.75,57.570096044278
2731,57.5251180205111
2731.25,57.4801399967443
2731.5,57.4351619729774
2731.75,57.3847305876607
2732,57.3147647729123
2732.25,57.2447989581637
2732.5,57.1748331434153
2732.75,57.1048673286667
2733,57.0349015139183
2733.25,56.9649356991698
2733.5,56.8949698844213
2733.75,56.8250040696728
2734,56.7550382549243
2734.25,56.6850724401758
2734.5,56.6151066254273
2734.75,56.5451408106788
2735,56.4751749959303
2735.25,56.4052091811818
2735.5,56.3352433664333
2735.75,56.2652775516848
2736,56.1953117369364
2736.25,56.1253459221878
2736.5,56.0553801074394
2736.75,56.0250040696728
2737,56.1449454663845
2737.25,56.2648868630963
2737.5,56.3848282598079
2737.75,56.5047696565197
2738,56.6247110532313
2738.25,56.744652449943
2738.5,56.8645938466547
2738.75,56.9845352433664
2739,57.1044766400782
2739.25,57.2244180367898
2739.5,57.3443594335016
2739.75,57.4643008302132
2740,57.584242226925
2740.25,57.7041836236367
2740.5,57.8241250203483
2740.75,57.9440664170601
2741,58.0640078137718
2741.25,58.1839492104835
2741.5,58.3038906071952
2741.75,58.4178740029302
2742,58.5078300504639
2742.25,58.5977860979977
2742.5,58.6877421455315
2742.75,58.7776981930653
2743,58.8676542405991
2743.25,58.9576102881328
2743.5,59.0475663356666
2743.75,59.1375223832004
2744,59.2274784307342
2744.25,59.3174344782679
2744.5,59.4073905258017
2744.75,59.4973465733355
2745,59.5873026208693
2745.25,59.6772586684031
2745.5,59.7672147159368
2745.75,59.8571707634706
2746,59.9471268110044
2746.25,60.0370828585382
2746.5,60.127038906072
2746.75,60.1990558359108
2747,60.1940582777145
2747.25,60.1890607195182
2747.5,60.1840631613218
2747.75,60.1790656031255
2748,60.1740680449292
2748.25,60.1690704867329
2748.5,60.1640729285365
2748.75,60.1590753703402
2749,60.1540778121439
2749.25,60.1490802539476
2749.5,60.1440826957513
2749.75,60.1390851375549
2750,60.1340875793586
2750.25,60.1290900211623
2750.5,60.124092462966
2750.75,60.1190949047697
2751,60.1140973465733
2751.25,60.109099788377
2751.5,60.1041022301807
2751.75,60.0892560638125
2752,60.0292853654566
2752.25,59.9693146671008
2752.5,59.9093439687449
2752.75,59.8493732703891
2753,59.7894025720332
2753.25,59.7294318736773
2753.5,59.6694611753215
2753.75,59.6094904769656
2754,59.5495197786098
2754.25,59.4895490802539
2754.5,59.4295783818981
2754.75,59.3696076835422
2755,59.3096369851864
2755.25,59.2496662868306
2755.5,59.1896955884747
2755.75,59.1297248901189
2756,59.069754191763
2756.25,59.0097834934071
2756.5,58.9498127950513
2756.75,58.8957675402898
2757,58.8707797493081
2757.25,58.8457919583266
2757.5,58.820804167345
2757.75,58.7958163763633
2758,58.7708285853817
2758.25,58.7458407944001
2758.5,58.7208530034185
2758.75,58.6958652124369
2759,58.6708774214553
2759.25,58.6458896304737
2759.5,58.6209018394921
2759.75,58.5959140485105
2760,58.5709262575289
2760.25,58.5459384665473
2760.5,58.5209506755657
2760.75,58.4959628845841
2761,58.4709750936025
2761.25,58.4459873026209
2761.5,58.4209995116393
2761.75,58.3944164089207
2762,58.3594335015465
2762.25,58.3244505941722
2762.5,58.289467686798
2762.75,58.2544847794237
2763,58.2195018720495
2763.25,58.1845189646752
2763.5,58.149536057301
2763.75,58.1145531499267
2764,58.0795702425525
2764.25,58.0445873351783
2764.5,58.009604427804
2764.75,57.9746215204298
2765,57.9396386130555
2765.25,57.9046557056813
2765.5,57.869672798307
2765.75,57.8346898909328
2766,57.7997069835585
2766.25,57.7647240761843
2766.5,57.72974116881
2766.75,57.6880188832818
2767,57.6080579521407
2767.25,57.5280970209995
2767.5,57.4481360898584
2767.75,57.3681751587172
2768,57.2882142275761
2768.25,57.208253296435
2768.5,57.1282923652938
2768.75,57.0483314341527
2769,56.9683705030115
2769.25,56.8884095718704
2769.5,56.8084486407293
2769.75,56.7284877095882
2770,56.648526778447
2770.25,56.5685658473059
2770.5,56.4886049161648
2770.75,56.4086439850236
2771,56.3286830538825
2771.25,56.2487221227413
2771.5,56.1687611916002
2771.75,56.0937001465082
2772,56.0487221227413
2772.25,56.0037440989744
2772.5,55.9587660752075
2772.75,55.9137880514407
2773,55.8688100276738
2773.25,55.8238320039069
2773.5,55.77885398014
2773.75,55.7338759563731
2774,55.6888979326062
2774.25,55.6439199088393
2774.5,55.5989418850724
2774.75,55.5539638613055
2775,55.5089858375387
2775.25,55.4640078137718
2775.5,55.4190297900049
2775.75,55.374051766238
2776,55.3290737424711
2776.25,55.2840957187042
2776.5,55.2391176949373
2776.75,55.2117206576592
2777,55.3016767051929
2777.25,55.3916327527267
2777.5,55.4815888002605
2777.75,55.5715448477942
2778,55.661500895328
2778.25,55.7514569428618
2778.5,55.8414129903956
2778.75,55.9313690379294
2779,56.0213250854631
2779.25,56.1112811329969
2779.5,56.2012371805307
2779.75,56.2911932280645
2780,56.3811492755982
2780.25,56.4711053231321
2780.5,56.5610613706658
2780.75,56.6510174181996
2781,56.7409734657334
2781.25,56.8309295132671
2781.5,56.9208855608009
2781.75,57.0096369851864
2782,57.0895979163275
2782.25,57.1695588474687
2782.5,57.2495197786098
2782.75,57.3294807097509
2783,57.4094416408921
2783.25,57.4894025720332
2783.5,57.5693635031743
2783.75,57.6493244343155
2784,57.7292853654566
2784.25,57.8092462965978
2784.5,57.8892072277389
2784.75,57.9691681588801
2785,58.0491290900212
2785.25,58.1290900211623
2785.5,58.2090509523034
2785.75,58.2890118834445
2786,58.3689728145857
2786.25,58.4489337457268
2786.5,58.528894676868
2786.75,58.6033208530034
2787,58.6333062021814
2787.25,58.6632915513593
2787.5,58.6932769005372
2787.75,58.7232622497151
2788,58.753247598893
2788.25,58.783232948071
2788.5,58.8132182972489
2788.75,58.8432036464268
2789,58.8731889956048
2789.25,58.9031743447827
2789.5,58.9331596939606
2789.75,58.9631450431385
2790,58.9931303923165
2790.25,59.0231157414944
2790.5,59.0531010906723
2790.75,59.0830864398502
2791,59.1130717890282
2791.25,59.1430571382061
2791.5,59.173042487384
2791.75,59.198990721146
2792,59.1889956047534
2792.25,59.1790004883607
2792.5,59.1690053719681
2792.75,59.1590102555755
2793,59.1490151391828
2793.25,59.1390200227902
2793.5,59.1290249063975
2793.75,59.1190297900049
2794,59.1090346736122
2794.25,59.0990395572196
2794.5,59.089044440827
2794.75,59.0790493244343
2795,59.0690542080417
2795.25,59.059059091649
2795.5,59.0490639752564
2795.75,59.0390688588638
2796,59.0290737424711
2796.25,59.0190786260785
2796.5,59.0090835096858
2796.75,58.9981767865864
2797,58.9781865538011
2797.25,58.9581963210158
2797.5,58.9382060882305
2797.75,58.9182158554452
2798,58.8982256226599
2798.25,58.8782353898746
2798.5,58.8582451570894
2798.75,58.8382549243041
2799,58.8182646915188
2799.25,58.7982744587335
2799.5,58.7782842259482
2799.75,58.758293993163
2800,58.7383037603777
2800.25,58.7183135275924
2800.5,58.6983232948071
2800.75,58.6783330620218
2801,58.6583428292365
2801.25,58.6383525964512
2801.5,58.618362363666
2801.75,58.6044766400782
2802,58.6594497802377
2802.25,58.7144229203972
2802.5,58.7693960605567
2802.75,58.8243692007162
2803,58.8793423408758
2803.25,58.9343154810353
2803.5,58.9892886211949
2803.75,59.0442617613544
2804,59.0992349015139
2804.25,59.1542080416734
2804.5,59.209181181833
2804.75,59.2641543219925
2805,59.319127462152
2805.25,59.3741006023116
2805.5,59.4290737424711
2805.75,59.4840468826307
2806,59.5390200227902
2806.25,59.5939931629497
2806.5,59.6489663031092
2806.75,59.6996418687937
2807,59.6946443105974
2807.25,59.6896467524011
2807.5,59.6846491942048
2807.75,59.6796516360085
2808,59.6746540778121
2808.25,59.6696565196158
2808.5,59.6646589614195
2808.75,59.6596614032232
2809,59.6546638450269
2809.25,59.6496662868305
2809.5,59.6446687286342
2809.75,59.6396711704379
2810,59.6346736122416
2810.25,59.6296760540453
2810.5,59.6246784958489
2810.75,59.6196809376526
2811,59.6146833794563
2811.25,59.60968582126
2811.5,59.6046882630637
2811.75,59.6003092951327
2812,59.605306853329
2812.25,59.6103044115253
2812.5,59.6153019697216
2812.75,59.620299527918
2813,59.6252970861143
2813.25,59.6302946443106
2813.5,59.6352922025069
2813.75,59.6402897607032
2814,59.6452873188996
2814.25,59.6502848770959
2814.5,59.6552824352922
2814.75,59.6602799934885
2815,59.6652775516848
2815.25,59.6702751098812
2815.5,59.6752726680775
2815.75,59.6802702262738
2816,59.6852677844701
2816.25,59.6902653426665
2816.5,59.6952629008628
2816.75,59.7010418362364
2817,59.7210320690217
2817.25,59.7410223018069
2817.5,59.7610125345922
2817.75,59.7810027673775
2818,59.8009930001628
2818.25,59.8209832329481
2818.5,59.8409734657334
2818.75,59.8609636985186
2819,59.8809539313039
2819.25,59.9009441640892
2819.5,59.9209343968745
2819.75,59.9409246296598
2820,59.9609148624451
2820.25,59.9809050952303
2820.5,60.0008953280156
2820.75,60.0208855608009
2821,60.0408757935862
2821.25,60.0608660263715
2821.5,60.0808562591568
2821.75,60.1012697379131
2822,60.131255087091
2822.25,60.1612404362689
2822.5,60.1912257854468
2822.75,60.2212111346248
2823,60.2511964838027
2823.25,60.2811818329806
2823.5,60.3111671821586
2823.75,60.3411525313365
2824,60.3711378805144
2824.25,60.4011232296924
2824.5,60.4311085788703
2824.75,60.4610939280482
2825,60.4910792772261
2825.25,60.521064626404
2825.5,60.551049975582
2825.75,60.5810353247599
2826,60.6110206739378
2826.25,60.6410060231157
2826.5,60.6709913722937
2826.75,60.7003255738239
2827,60.7103206902165
2827.25,60.7203158066092
2827.5,60.7303109230018
2827.75,60.7403060393944
2828,60.7503011557871
2828.25,60.7602962721797
2828.5,60.7702913885724
2828.75,60.780286504965
2829,60.7902816213576
2829.25,60.8002767377503
2829.5,60.8102718541429
2829.75,60.8202669705356
2830,60.8302620869282
2830.25,60.8402572033209
2830.5,60.8502523197135
2830.75,60.8602474361061
2831,60.8702425524988
2831.25,60.8802376688914
2831.5,60.8902327852841
2831.75,60.8990883932932
2832,60.8591079277226
2832.25,60.819127462152
2832.5,60.7791469965815
2832.75,60.7391665310109
2833,60.6991860654403
2833.25,60.6592055998698
2833.5,60.6192251342992
2833.75,60.5792446687286
2834,60.5392642031581
2834.25,60.4992837375875
2834.5,60.4593032720169
2834.75,60.4193228064464
2835,60.3793423408758
2835.25,60.3393618753052
2835.5,60.2993814097347
2835.75,60.2594009441641
2836,60.2194204785935
2836.25,60.1794400130229
2836.5,60.1394595474524
2836.75,60.0998046557057
2837,60.0848119811167
2837.25,60.0698193065277
2837.5,60.0548266319388
2837.75,60.0398339573498
2838,60.0248412827609
2838.25,60.0098486081719
2838.5,59.9948559335829
2838.75,59.979863258994
2839,59.964870584405
2839.25,59.9498779098161
2839.5,59.9348852352271
2839.75,59.9198925606381
2840,59.9048998860492
2840.25,59.8899072114602
2840.5,59.8749145368712
2840.75,59.8599218622823
2841,59.8449291876933
2841.25,59.8299365131043
2841.5,59.8149438385154
2841.75,59.8
2842,59.8
2842.25,59.8
2842.5,59.8
2842.75,59.8
2843,59.8
2843.25,59.8
2843.5,59.8
2843.75,59.8
2844,59.8
2844.25,59.8
2844.5,59.8
2844.75,59.8
2845,59.8
2845.25,59.8
2845.5,59.8
2845.75,59.8
2846,59.8
2846.25,59.8
2846.5,59.8
2846.75,59.8
2847,59.8248250040697
2847.25,59.8498127950513
2847.5,59.8748005860329
2847.75,59.8997883770145
2848,59.9247761679961
2848.25,59.9497639589777
2848.5,59.9747517499593
2848.75,59.9997395409409
2849,60.0247273319225
2849.25,60.0497151229041
2849.5,60.0747029138857
2849.75,60.0996907048673
2850,60.124678495849
2850.25,60.1496662868306
2850.5,60.1746540778121
2850.75,60.1996418687937
2851,60.2246296597753
2851.25,60.249617450757
2851.5,60.2746052417386
2851.75,60.2995930327202
2852,60.2803353410386
2852.25,60.2603451082533
2852.5,60.240354875468
2852.75,60.2203646426827
2853,60.2003744098974
2853.25,60.1803841771122
2853.5,60.1603939443269
2853.75,60.1404037115416
2854,60.1204134787563
2854.25,60.100423245971
2854.5,60.0804330131857
2854.75,60.0604427804004
2855,60.0404525476152
2855.25,60.0204623148299
2855.5,60.0004720820446
2855.75,59.9804818492593
2856,59.960491616474
2856.25,59.9405013836887
2856.5,59.9205111509035
2856.75,59.9005209181182
2857,59.8659286993325
2857.25,59.8309457919583
2857.5,59.7959628845841
2857.75,59.7609799772099
2858,59.7259970698356
2858.25,59.6910141624613
2858.5,59.6560312550871
2858.75,59.6210483477129
2859,59.5860654403386
2859.25,59.5510825329643
2859.5,59.5160996255901
2859.75,59.4811167182159
2860,59.4461338108416
2860.25,59.4111509034673
2860.5,59.3761679960931
2860.75,59.3411850887189
2861,59.3062021813446
2861.25,59.2712192739704
2861.5,59.2362363665961
2861.75,59.2012534592219
2862,59.1807260296272
2862.25,59.1607357968419
2862.5,59.1407455640566
2862.75,59.1207553312714
2863,59.1007650984861
2863.25,59.0807748657008
2863.5,59.0607846329155
2863.75,59.0407944001302
2864,59.0208041673449
2864.25,59.0008139345597
2864.5,58.9808237017744
2864.75,58.9608334689891
2865,58.9408432362038
2865.25,58.9208530034185
2865.5,58.9008627706332
2865.75,58.880872537848
2866,58.8608823050627
2866.25,58.8408920722774
2866.5,58.8209018394921
2866.75,58.8009116067068
2867,58.838157252157
2867.25,58.8781377177275
2867.5,58.9181181832981
2867.75,58.9580986488686
2868,58.9980791144392
2868.25,59.0380595800098
2868.5,59.0780400455803
2868.75,59.1180205111509
2869,59.1580009767214
2869.25,59.1979814422921
2869.5,59.2379619078626
2869.75,59.2779423734332
2870,59.3179228390037
2870.25,59.3579033045743
2870.5,59.3978837701449
2870.75,59.4378642357155
2871,59.477844701286
2871.25,59.5178251668566
2871.5,59.5578056324272
2871.75,59.5977860979977
2872,59.6377665635683
2872.25,59.6777470291389
2872.5,59.7177274947094
2872.75,59.75770796028
2873,59.7976884258506
2873.25,59.8376688914211
2873.5,59.8776493569917
2873.75,59.9176298225623
2874,59.9576102881329
2874.25,59.9975907537034
2874.5,60.037571219274
2874.75,60.0775516848445
2875,60.1175321504151
2875.25,60.1575126159857
2875.5,60.1974930815562
2875.75,60.2374735471268
2876,60.2774540126974
2876.25,60.317434478268
2876.5,60.3574149438385
2876.75,60.3973954094091
2877,60.3953280156275
2877.25,60.3903304574312
2877.5,60.3853328992349
2877.75,60.3803353410386
2878,60.3753377828423
2878.25,60.3703402246459
2878.5,60.3653426664496
2878.75,60.3603451082533
2879,60.355347550057
2879.25,60.3503499918607
2879.5,60.3453524336643
2879.75,60.340354875468
2880,60.3353573172717
2880.25,60.3303597590754
2880.5,60.325362200879
2880.75,60.3203646426827
2881,60.3153670844864
2881.25,60.3103695262901
2881.5,60.3053719680938
2881.75,60.3003744098974
2882,60.2907537034022
2882.25,60.2807585870096
2882.5,60.270763470617
2882.75,60.2607683542243
2883,60.2507732378317
2883.25,60.240778121439
2883.5,60.2307830050464
2883.75,60.2207878886538
2884,60.2107927722611
2884.25,60.2007976558685
2884.5,60.1908025394758
2884.75,60.1808074230832
2885,60.1708123066906
2885.25,60.1608171902979
2885.5,60.1508220739053
2885.75,60.1408269575126
2886,60.13083184112
2886.25,60.1208367247273
2886.5,60.1108416083347
2886.75,60.1008464919421
2887,60.0771284388735
2887.25,60.0521406478919
2887.5,60.0271528569103
2887.75,60.0021650659287
2888,59.9771772749471
2888.25,59.9521894839655
2888.5,59.9272016929839
2888.75,59.9022139020023
2889,59.8772261110207
2889.25,59.8522383200391
2889.5,59.8272505290575
2889.75,59.8022627380758
2890,59.7772749470942
2890.25,59.7522871561127
2890.5,59.7272993651311
2890.75,59.7023115741494
2891,59.6773237831678
2891.25,59.6523359921862
2891.5,59.6273482012046
2891.75,59.602360410223
2892,59.6497802376689
2892.25,59.7047533778284
2892.5,59.759726517988
2892.75,59.8146996581475
2893,59.8696727983071
2893.25,59.9246459384666
2893.5,59.9796190786261
2893.75,60.0345922187856
2894,60.0895653589451
2894.25,60.1445384991047
2894.5,60.1995116392642
2894.75,60.2544847794237
2895,60.3094579195832
2895.25,60.3644310597428
2895.5,60.4194041999024
2895.75,60.4743773400619
2896,60.5293504802214
2896.25,60.5843236203809
2896.5,60.6392967605405
2896.75,60.6942699007
2897,60.6910467198437
2897.25,60.6810516034511
2897.5,60.6710564870584
2897.75,60.6610613706658
2898,60.6510662542732
2898.25,60.6410711378805
2898.5,60.6310760214879
2898.75,60.6210809050952
2899,60.6110857887026
2899.25,60.60109067231
2899.5,60.5910955559173
2899.75,60.5811004395247
2900,60.571105323132
2900.25,60.5611102067394
2900.5,60.5511150903467
2900.75,60.5411199739541
2901,60.5311248575614
2901.25,60.5211297411688
2901.5,60.5111346247762
2901.75,60.5011395083835
2902,60.5309946280319
2902.25,60.5659775354062
2902.5,60.6009604427804
2902.75,60.6359433501546
2903,60.6709262575289
2903.25,60.7059091649032
2903.5,60.7408920722774
2903.75,60.7758749796516
2904,60.8108578870259
2904.25,60.8458407944001
2904.5,60.8808237017744
2904.75,60.9158066091486
2905,60.9507895165229
2905.25,60.9857724238971
2905.5,61.0207553312714
2905.75,61.0557382386456
2906,61.0907211460199
2906.25,61.1257040533941
2906.5,61.1606869607683
2906.75,61.1956698681426
2907,61.1737261924141
2907.25,61.1437408432362
2907.5,61.1137554940583
2907.75,61.0837701448803
2908,61.0537847957024
2908.25,61.0237994465245
2908.5,60.9938140973466
2908.75,60.9638287481687
2909,60.9338433989907
2909.25,60.9038580498128
2909.5,60.8738727006349
2909.75,60.843887351457
2910,60.813902002279
2910.25,60.7839166531011
2910.5,60.7539313039232
2910.75,60.7239459547453
2911,60.6939606055673
2911.25,60.6639752563894
2911.5,60.6339899072115
2911.75,60.6040045580335
2912,60.5956698681426
2912.25,60.5906723099463
2912.5,60.58567475175
2912.75,60.5806771935536
2913,60.5756796353573
2913.25,60.570682077161
2913.5,60.5656845189647
2913.75,60.5606869607684
2914,60.555689402572
2914.25,60.5506918443757
2914.5,60.5456942861794
2914.75,60.5406967279831
2915,60.5356991697868
2915.25,60.5307016115904
2915.5,60.5257040533941
2915.75,60.5207064951978
2916,60.5157089370015
2916.25,60.5107113788051
2916.5,60.5057138206088
2916.75,60.5007162624125
2917,60.4828748168647
2917.25,60.4628845840794
2917.5,60.4428943512942
2917.75,60.4229041185089
2918,60.4029138857236
2918.25,60.3829236529383
2918.5,60.362933420153
2918.75,60.3429431873677
2919,60.3229529545824
2919.25,60.3029627217972
2919.5,60.2829724890119
2919.75,60.2629822562266
2920,60.2429920234413
2920.25,60.223001790656
2920.5,60.2030115578707
2920.75,60.1830213250855
2921,60.1630310923002
2921.25,60.1430408595149
2921.5,60.1230506267296
2921.75,60.1030603939443
2922,60.0830701611591
2922.25,60.0630799283738
2922.5,60.0430896955885
2922.75,60.0230994628032
2923,60.0031092300179
2923.25,59.9831189972326
2923.5,59.9631287644473
2923.75,59.943138531662
2924,59.9231482988768
2924.25,59.9031580660915
2924.5,59.8831678333062
2924.75,59.8631776005209
2925,59.8431873677356
2925.25,59.8231971349504
2925.5,59.8032069021651
2925.75,59.7832166693798
2926,59.7632264365945
2926.25,59.7432362038092
2926.5,59.7232459710239
2926.75,59.7032557382387
2927,59.7167344945467
2927.25,59.7367247273319
2927.5,59.7567149601172
2927.75,59.7767051929025
2928,59.7966954256878
2928.25,59.8166856584731
2928.5,59.8366758912584
2928.75,59.8566661240436
2929,59.8766563568289
2929.25,59.8966465896142
2929.5,59.9166368223995
2929.75,59.9366270551848
2930,59.95661728797
2930.25,59.9766075207553
2930.5,59.9965977535406
2930.75,60.0165879863259
2931,60.0365782191112
2931.25,60.0565684518965
2931.5,60.0765586846818
2931.75,60.096548917467
2932,60.1206739378154
2932.25,60.145661728797
2932.5,60.1706495197786
2932.75,60.1956373107602
2933,60.2206251017418
2933.25,60.2456128927234
2933.5,60.270600683705
2933.75,60.2955884746867
2934,60.3205762656683
2934.25,60.3455640566498
2934.5,60.3705518476314
2934.75,60.395539638613
2935,60.4205274295947
2935.25,60.4455152205763
2935.5,60.4705030115579
2935.75,60.4954908025395
2936,60.5204785935211
2936.25,60.5454663845027
2936.5,60.5704541754843
2936.75,60.5954419664659
2937,60.5959140485105
2937.25,60.5909164903142
2937.5,60.5859189321179
2937.75,60.5809213739215
2938,60.5759238157252
2938.25,60.5709262575289
2938.5,60.5659286993326
2938.75,60.5609311411363
2939,60.5559335829399
2939.25,60.5509360247436
2939.5,60.5459384665473
2939.75,60.540940908351
2940,60.5359433501546
2940.25,60.5309457919583
2940.5,60.525948233762
2940.75,60.5209506755657
2941,60.5159531173694
2941.25,60.510955559173
2941.5,60.5059580009767
2941.75,60.5009604427804
2942,60.5040371154159
2942.25,60.5090346736122
2942.5,60.5140322318086
2942.75,60.5190297900049
2943,60.5240273482012
2943.25,60.5290249063975
2943.5,60.5340224645938
2943.75,60.5390200227902
2944,60.5440175809865
2944.25,60.5490151391828
2944.5,60.5540126973791
2944.75,60.5590102555755
2945,60.5640078137718
2945.25,60.5690053719681
2945.5,60.5740029301644
2945.75,60.5790004883607
2946,60.5839980465571
2946.25,60.5889956047534
2946.5,60.5939931629497
2946.75,60.598990721146
2947,60.576070323946
2947.25,60.546084974768
2947.5,60.5160996255901
2947.75,60.4861142764122
2948,60.4561289272343
2948.25,60.4261435780563
2948.5,60.3961582288784
2948.75,60.3661728797005
2949,60.3361875305226
2949.25,60.3062021813446
2949.5,60.2762168321667
2949.75,60.2462314829888
2950,60.2162461338108
2950.25,60.1862607846329
2950.5,60.156275435455
2950.75,60.126290086277
2951,60.0963047370991
2951.25,60.0663193879212
2951.5,60.0363340387433
2951.75,60.0063486895653
2952,60.0315155461501
2952.25,60.0714960117207
2952.5,60.1114764772912
2952.75,60.1514569428618
2953,60.1914374084324
2953.25,60.2314178740029
2953.5,60.2713983395735
2953.75,60.311378805144
2954,60.3513592707146
2954.25,60.3913397362852
2954.5,60.4313202018558
2954.75,60.4713006674263
2955,60.5112811329969
2955.25,60.5512615985675
2955.5,60.5912420641381
2955.75,60.6312225297086
2956,60.6712029952792
2956.25,60.7111834608497
2956.5,60.7511639264203
2956.75,60.7911443919909
2957,60.7688751424386
2957.25,60.728894676868
2957.5,60.6889142112974
2957.75,60.6489337457268
2958,60.6089532801563
2958.25,60.5689728145857
2958.5,60.5289923490152
2958.75,60.4890118834445
2959,60.449031417874
2959.25,60.4090509523034
2959.5,60.3690704867329
2959.75,60.3290900211623
2960,60.2891095555917
2960.25,60.2491290900212
2960.5,60.2091486244506
2960.75,60.1691681588801
2961,60.1291876933094
2961.25,60.0892072277389
2961.5,60.0492267621683
2961.75,60.0092462965978
2962,59.9077974930815
2962.25,59.7878560963698
2962.5,59.6679146996581
2962.75,59.5479733029465
2963,59.4280319062348
2963.25,59.308090509523
2963.5,59.1881491128113
2963.75,59.0682077160996
2964,58.948266319388
2964.25,58.8283249226761
2964.5,58.7083835259645
2964.75,58.5884421292528
2965,58.4685007325411
2965.25,58.3485593358295
2965.5,58.2286179391176
2965.75,58.108676542406
2966,57.9887351456943
2966.25,57.8687937489826
2966.5,57.7488523522708
2966.75,57.6289109555591
2967,57.5468989093277
2967.25,57.4769330945792
2967.5,57.4069672798308
2967.75,57.3370014650822
2968,57.2670356503337
2968.25,57.1970698355852
2968.5,57.1271040208368
2968.75,57.0571382060882
2969,56.9871723913397
2969.25,56.9172065765912
2969.5,56.8472407618428
2969.75,56.7772749470943
2970,56.7073091323457
2970.25,56.6373433175972
2970.5,56.5673775028488
2970.75,56.4974116881003
2971,56.4274458733517
2971.25,56.3574800586033
2971.5,56.2875142438548
2971.75,56.2175484291063
2972,56.2074881979489
2972.25,56.2174833143415
2972.5,56.2274784307342
2972.75,56.2374735471268
2973,56.2474686635194
2973.25,56.2574637799121
2973.5,56.2674588963047
2973.75,56.2774540126974
2974,56.28744912909
2974.25,56.2974442454827
2974.5,56.3074393618753
2974.75,56.3174344782679
2975,56.3274295946606
2975.25,56.3374247110532
2975.5,56.3474198274459
2975.75,56.3574149438385
2976,56.3674100602312
2976.25,56.3774051766238
2976.5,56.3874002930164
2976.75,56.3973954094091
2977,56.4702099951164
2977.25,56.5651636008465
2977.5,56.6601172065766
2977.75,56.7550708123066
2978,56.8500244180368
2978.25,56.9449780237669
2978.5,57.039931629497
2978.75,57.134885235227
2979,57.2298388409573
2979.25,57.3247924466873
2979.5,57.4197460524174
2979.75,57.5146996581474
2980,57.6096532638775
2980.25,57.7046068696077
2980.5,57.7995604753378
2980.75,57.8945140810679
2981,57.9894676867979
2981.25,58.0844212925282
2981.5,58.1793748982582
2981.75,58.2743285039883
2982,58.3328178414455
2982.25,58.3777958652124
2982.5,58.4227738889794
2982.75,58.4677519127462
2983,58.5127299365131
2983.25,58.55770796028
2983.5,58.6026859840469
2983.75,58.6476640078138
2984,58.6926420315807
2984.25,58.7376200553475
2984.5,58.7825980791144
2984.75,58.8275761028814
2985,58.8725541266482
2985.25,58.9175321504151
2985.5,58.962510174182
2985.75,59.0074881979489
2986,59.0524662217158
2986.25,59.0974442454827
2986.5,59.1424222692495
2986.75,59.1874002930164
2987,59.2323783167834
2987.25,59.2773563405502
2987.5,59.3223343643171
2987.75,59.367312388084
2988,59.4122904118509
2988.25,59.4572684356178
2988.5,59.5022464593847
2988.75,59.5472244831515
2989,59.5922025069184
2989.25,59.6371805306854
2989.5,59.6821585544522
2989.75,59.7271365782191
2990,59.772114601986
2990.25,59.8170926257529
2990.5,59.8620706495198
2990.75,59.9070486732867
2991,59.9520266970535
2991.25,59.9970047208204
2991.5,60.0419827445874
2991.75,60.0869607683542
2992,60.1141950187205
2992.25,60.1341852515058
2992.5,60.1541754842911
2992.75,60.1741657170764
2993,60.1941559498616
2993.25,60.2141461826469
2993.5,60.2341364154322
2993.75,60.2541266482175
2994,60.2741168810028
2994.25,60.2941071137881
2994.5,60.3140973465733
2994.75,60.3340875793586
2995,60.3540778121439
2995.25,60.3740680449292
2995.5,60.3940582777145
2995.75,60.4140485104997
2996,60.4340387432851
2996.25,60.4540289760703
2996.5,60.4740192088556
2996.75,60.4940094416409
2997,60.4965000813934
2997.25,60.4915025231971
2997.5,60.4865049650008
2997.75,60.4815074068045
2998,60.4765098486082
2998.25,60.4715122904118
2998.5,60.4665147322155
2998.75,60.4615171740192
2999,60.4565196158229
2999.25,60.4515220576266
2999.5,60.4465244994302
2999.75,60.4415269412339
3000,60.4365293830376
3000.25,60.4315318248413
3000.5,60.426534266645
3000.75,60.4215367084486
3001,60.4165391502523
3001.25,60.411541592056
3001.5,60.4065440338597
3001.75,60.4015464756634
3002,60.3482337620055
3002.25,60.2732703890607
3002.5,60.1983070161159
3002.75,60.123343643171
3003,60.0483802702262
3003.25,59.9734168972815
3003.5,59.8984535243367
3003.75,59.8234901513919
3004,59.748526778447
3004.25,59.6735634055022
3004.5,59.5986000325574
3004.75,59.5236366596126
3005,59.4486732866677
3005.25,59.3737099137229
3005.5,59.2987465407781
3005.75,59.2237831678333
3006,59.1488197948885
3006.25,59.0738564219436
3006.5,58.9988930489988
3006.75,58.9239296760541
3007,58.9136089858375
3007.25,58.9335992186228
3007.5,58.9535894514081
3007.75,58.9735796841934
3008,58.9935699169787
3008.25,59.0135601497639
3008.5,59.0335503825493
3008.75,59.0535406153345
3009,59.0735308481198
3009.25,59.0935210809051
3009.5,59.1135113136904
3009.75,59.1335015464757
3010,59.1534917792609
3010.25,59.1734820120462
3010.5,59.1934722448315
3010.75,59.2134624776168
3011,59.2334527104021
3011.25,59.2534429431874
3011.5,59.2734331759726
3011.75,59.293423408758
3012,59.3234738727006
3012.25,59.3584567800749
3012.5,59.3934396874491
3012.75,59.4284225948233
3013,59.4634055021976
3013.25,59.4983884095719
3013.5,59.5333713169461
3013.75,59.5683542243203
3014,59.6033371316946
3014.25,59.6383200390689
3014.5,59.6733029464431
3014.75,59.7082858538173
3015,59.7432687611916
3015.25,59.7782516685659
3015.5,59.8132345759401
3015.75,59.8482174833143
3016,59.8832003906886
3016.25,59.9181832980629
3016.5,59.9531662054371
3016.75,59.9881491128113
3017,60.0231320201856
3017.25,60.0581149275598
3017.5,60.0930978349341
3017.75,60.1280807423083
3018,60.1630636496826
3018.25,60.1980465570568
3018.5,60.2330294644311
3018.75,60.2680123718053
3019,60.3029952791796
3019.25,60.3379781865538
3019.5,60.372961093928
3019.75,60.4079440013023
3020,60.4429269086766
3020.25,60.4779098160508
3020.5,60.512892723425
3020.75,60.5478756307993
3021,60.5828585381736
3021.25,60.6178414455478
3021.5,60.652824352922
3021.75,60.6878072602963
3022,60.6544196646589
3022.25,60.5844538499104
3022.5,60.514488035162
3022.75,60.4445222204135
3023,60.3745564056649
3023.25,60.3045905909165
3023.5,60.234624776168
3023.75,60.1646589614195
3024,60.0946931466711
3024.25,60.0247273319225
3024.5,59.954761517174
3024.75,59.8847957024255
3025,59.8148298876771
3025.25,59.7448640729286
3025.5,59.67489825818
3025.75,59.6049324434315
3026,59.5349666286831
3026.25,59.4650008139346
3026.5,59.395034999186
3026.75,59.3250691844375
3027,59.2967930978349
3027.25,59.2917955396386
3027.5,59.2867979814423
3027.75,59.281800423246
3028,59.2768028650496
3028.25,59.2718053068533
3028.5,59.266807748657
3028.75,59.2618101904607
3029,59.2568126322644
3029.25,59.251815074068
3029.5,59.2468175158717
3029.75,59.2418199576754
3030,59.2368223994791
3030.25,59.2318248412828
3030.5,59.2268272830864
3030.75,59.2218297248901
3031,59.2168321666938
3031.25,59.2118346084975
3031.5,59.2068370503012
3031.75,59.2018394921048
3032,59.2094741982744
3032.25,59.2244668728634
3032.5,59.2394595474524
3032.75,59.2544522220414
3033,59.2694448966303
3033.25,59.2844375712193
3033.5,59.2994302458082
3033.75,59.3144229203972
3034,59.3294155949862
3034.25,59.3444082695751
3034.5,59.3594009441641
3034.75,59.3743936187531
3035,59.389386293342
3035.25,59.404378967931
3035.5,59.41937164252
3035.75,59.4343643171089
3036,59.4493569916979
3036.25,59.4643496662868
3036.5,59.4793423408758
3036.75,59.4943350154648
3037,59.4937815399642
3037.25,59.4837864235715
3037.5,59.4737913071789
3037.75,59.4637961907863
3038,59.4538010743936
3038.25,59.443805958001
3038.5,59.4338108416083
3038.75,59.4238157252157
3039,59.413820608823
3039.25,59.4038254924304
3039.5,59.3938303760378
3039.75,59.3838352596451
3040,59.3738401432525
3040.25,59.3638450268598
3040.5,59.3538499104672
3040.75,59.3438547940746
3041,59.3338596776819
3041.25,59.3238645612893
3041.5,59.3138694448966
3041.75,59.303874328504
3042,59.2265505453362
3042.25,59.1066091486243
3042.5,58.9866677519127
3042.75,58.866726355201
3043,58.7467849584894
3043.25,58.6268435617777
3043.5,58.5069021650658
3043.75,58.3869607683542
3044,58.2670193716425
3044.25,58.1470779749309
3044.5,58.027136578219
3044.75,57.9071951815073
3045,57.7872537847957
3045.25,57.667312388084
3045.5,57.5473709913724
3045.75,57.4274295946605
3046,57.3074881979488
3046.25,57.1875468012372
3046.5,57.0676054045255
3046.75,56.9476640078137
3047,56.9030115578707
3047.25,56.9080091160671
3047.5,56.9130066742634
3047.75,56.9180042324597
3048,56.923001790656
3048.25,56.9279993488524
3048.5,56.9329969070487
3048.75,56.937994465245
3049,56.9429920234413
3049.25,56.9479895816376
3049.5,56.952987139834
3049.75,56.9579846980303
3050,56.9629822562266
3050.25,56.9679798144229
3050.5,56.9729773726192
3050.75,56.9779749308156
3051,56.9829724890119
3051.25,56.9879700472082
3051.5,56.9929676054045
3051.75,56.9979651636008
3052,57.0444408269575
3052.25,57.1194041999023
3052.5,57.1943675728472
3052.75,57.269330945792
3053,57.3442943187368
3053.25,57.4192576916816
3053.5,57.4942210646263
3053.75,57.5691844375713
3054,57.6441478105161
3054.25,57.7191111834608
3054.5,57.7940745564056
3054.75,57.8690379293505
3055,57.9440013022953
3055.25,58.0189646752401
3055.5,58.0939280481849
3055.75,58.1688914211297
3056,58.2438547940746
3056.25,58.3188181670194
3056.5,58.3937815399642
3056.75,58.468744912909
3057,58.5262249715123
3057.25,58.5712029952792
3057.5,58.6161810190461
3057.75,58.6611590428129
3058,58.7061370665798
3058.25,58.7511150903468
3058.5,58.7960931141136
3058.75,58.8410711378805
3059,58.8860491616474
3059.25,58.9310271854143
3059.5,58.9760052091812
3059.75,59.0209832329481
3060,59.0659612567149
3060.25,59.1109392804818
3060.5,59.1559173042488
3060.75,59.2008953280156
3061,59.2458733517825
3061.25,59.2908513755494
3061.5,59.3358293993163
3061.75,59.3808074230832
3062,59.40859514895
3062.25,59.423587823539
3062.5,59.4385804981279
3062.75,59.4535731727169
3063,59.4685658473059
3063.25,59.4835585218948
3063.5,59.4985511964838
3063.75,59.5135438710728
3064,59.5285365456617
3064.25,59.5435292202507
3064.5,59.5585218948397
3064.75,59.5735145694286
3065,59.5885072440176
3065.25,59.6034999186066
3065.5,59.6184925931955
3065.75,59.6334852677845
3066,59.6484779423734
3066.25,59.6634706169624
3066.5,59.6784632915514
3066.75,59.6934559661403
3067,59.6859189321179
3067.25,59.6609311411362
3067.5,59.6359433501546
3067.75,59.6109555591731
3068,59.5859677681915
3068.25,59.5609799772098
3068.5,59.5359921862282
3068.75,59.5110043952466
3069,59.486016604265
3069.25,59.4610288132834
3069.5,59.4360410223018
3069.75,59.4110532313202
3070,59.3860654403386
3070.25,59.361077649357
3070.5,59.3360898583754
3070.75,59.3111020673938
3071,59.2861142764122
3071.25,59.2611264854306
3071.5,59.236138694449
3071.75,59.2111509034673
3072,59.2166042650171
3072.25,59.246589614195
3072.5,59.2765749633729
3072.75,59.3065603125509
3073,59.3365456617288
3073.25,59.3665310109067
3073.5,59.3965163600846
3073.75,59.4265017092626
3074,59.4564870584405
3074.25,59.4864724076184
3074.5,59.5164577567964
3074.75,59.5464431059743
3075,59.5764284551522
3075.25,59.6064138043301
3075.5,59.6363991535081
3075.75,59.666384502686
3076,59.6963698518639
3076.25,59.7263552010419
3076.5,59.7563405502198
3076.75,59.7863258993977
3077,59.7755331271366
3077.25,59.7305551033697
3077.5,59.6855770796028
3077.75,59.6405990558359
3078,59.595621032069
3078.25,59.5506430083022
3078.5,59.5056649845352
3078.75,59.4606869607683
3079,59.4157089370015
3079.25,59.3707309132346
3079.5,59.3257528894677
3079.75,59.2807748657008
3080,59.2357968419339
3080.25,59.190818818167
3080.5,59.1458407944002
3080.75,59.1008627706332
3081,59.0558847468663
3081.25,59.0109067230995
3081.5,58.9659286993326
3081.75,58.9209506755657
3082,58.7932117857723
3082.25,58.5933094579195
3082.5,58.3934071300668
3082.75,58.193504802214
3083,57.9936024743609
3083.25,57.7937001465081
3083.5,57.5937978186554
3083.75,57.3938954908026
3084,57.1939931629498
3084.25,56.9940908350967
3084.5,56.794188507244
3084.75,56.5942861793912
3085,56.3943838515384
3085.25,56.1944815236853
3085.5,55.9945791958326
3085.75,55.7946768679798
3086,55.594774540127
3086.25,55.3948722122743
3086.5,55.1949698844211
3086.75,54.9950675565684
3087,54.8711704378968
3087.25,54.8161972977373
3087.5,54.7612241575777
3087.75,54.7062510174182
3088,54.6512778772587
3088.25,54.5963047370992
3088.5,54.5413315969396
3088.75,54.48635845678
3089,54.4313853166205
3089.25,54.376412176461
3089.5,54.3214390363015
3089.75,54.2664658961419
3090,54.2114927559824
3090.25,54.1565196158229
3090.5,54.1015464756634
3090.75,54.0465733355039
3091,53.9916001953443
3091.25,53.9366270551847
3091.5,53.8816539150252
3091.75,53.8266807748657
3092,53.8051440664171
3092.25,53.8151391828097
3092.5,53.8251342992023
3092.75,53.835129415595
3093,53.8451245319876
3093.25,53.8551196483803
3093.5,53.8651147647729
3093.75,53.8751098811656
3094,53.8851049975582
3094.25,53.8951001139508
3094.5,53.9050952303435
3094.75,53.9150903467361
3095,53.9250854631288
3095.25,53.9350805795214
3095.5,53.9450756959141
3095.75,53.9550708123067
3096,53.9650659286993
3096.25,53.975061045092
3096.5,53.9850561614846
3096.75,53.9950512778773
3097,54.0984046882631
3097.25,54.2933094579195
3097.5,54.488214227576
3097.75,54.6831189972328
3098,54.8780237668892
3098.25,55.0729285365457
3098.5,55.2678333062021
3098.75,55.4627380758585
3099,55.6576428455153
3099.25,55.8525476151718
3099.5,56.0474523848282
3099.75,56.2423571544847
3100,56.4372619241415
3100.25,56.6321666937979
3100.5,56.8270714634543
3100.75,57.0219762331108
3101,57.2168810027672
3101.25,57.411785772424
3101.5,57.6066905420805
3101.75,57.8015953117369
3102,57.9668077486569
3102.25,58.1017418199578
3102.5,58.2366758912584
3102.75,58.371609962559
3103,58.5065440338596
3103.25,58.6414781051602
3103.5,58.7764121764611
3103.75,58.9113462477617
3104,59.0462803190623
3104.25,59.1812143903629
3104.5,59.3161484616638
3104.75,59.4510825329644
3105,59.586016604265
3105.25,59.7209506755656
3105.5,59.8558847468663
3105.75,59.9908188181671
3106,60.1257528894677
3106.25,60.2606869607683
3106.5,60.395621032069
3106.75,60.5305551033698
3107,60.5781702751099
3107.25,60.533192251343
3107.5,60.4882142275761
3107.75,60.4432362038092
3108,60.3982581800423
3108.25,60.3532801562754
3108.5,60.3083021325086
3108.75,60.2633241087417
3109,60.2183460849747
3109.25,60.1733680612079
3109.5,60.128390037441
3109.75,60.0834120136741
3110,60.0384339899072
3110.25,59.9934559661403
3110.5,59.9484779423734
3110.75,59.9034999186065
3111,59.8585218948397
3111.25,59.8135438710727
3111.5,59.7685658473059
3111.75,59.723587823539
3112,59.6762331108579
3112.25,59.6262575288947
3112.5,59.5762819469314
3112.75,59.5263063649682
3113,59.4763307830051
3113.25,59.4263552010419
3113.5,59.3763796190786
3113.75,59.3264040371154
3114,59.2764284551522
3114.25,59.226452873189
3114.5,59.1764772912258
3114.75,59.1265017092625
3115,59.0765261272994
3115.25,59.0265505453362
3115.5,58.976574963373
3115.75,58.9265993814097
3116,58.8766237994465
3116.25,58.8266482174833
3116.5,58.7766726355201
3116.75,58.7266970535569
3117,58.6860328829562
3117.25,58.6560475337783
3117.5,58.6260621846004
3117.75,58.5960768354225
3118,58.5660914862445
3118.25,58.5361061370666
3118.5,58.5061207878886
3118.75,58.4761354387107
3119,58.4461500895328
3119.25,58.4161647403549
3119.5,58.3861793911769
3119.75,58.356194041999
3120,58.3262086928211
3120.25,58.2962233436431
3120.5,58.2662379944652
3120.75,58.2362526452873
3121,58.2062672961094
3121.25,58.1762819469315
3121.5,58.1462965977535
3121.75,58.1163112485756
3122,58.1524173856422
3122.25,58.2673612241575
3122.5,58.3823050626729
3122.75,58.4972489011884
3123,58.6121927397038
3123.25,58.7271365782191
3123.5,58.8420804167344
3123.75,58.95702425525
3124,59.0719680937653
3124.25,59.1869119322806
3124.5,59.301855770796
3124.75,59.4167996093113
3125,59.5317434478269
3125.25,59.6466872863422
3125.5,59.7616311248575
3125.75,59.8765749633729
3126,59.9915188018884
3126.25,60.1064626404038
3126.5,60.2214064789191
3126.75,60.3363503174344
3127,60.3643171089045
3127.25,60.2843561777633
3127.5,60.2043952466221
3127.75,60.124434315481
3128,60.0444733843399
3128.25,59.9645124531987
3128.5,59.8845515220576
3128.75,59.8045905909165
3129,59.7246296597754
3129.25,59.6446687286343
3129.5,59.564707797493
3129.75,59.4847468663519
3130,59.4047859352108
3130.25,59.3248250040697
3130.5,59.2448640729285
3130.75,59.1649031417874
3131,59.0849422106463
3131.25,59.0049812795052
3131.5,58.9250203483641
3131.75,58.8450594172228
3132,58.7498290737424
3132.25,58.6348852352271
3132.5,58.5199413967118
3132.75,58.4049975581962
3133,58.2900537196809
3133.25,58.1751098811655
3133.5,58.0601660426502
3133.75,57.9452222041349
3134,57.8302783656193
3134.25,57.715334527104
3134.5,57.6003906885886
3134.75,57.4854468500733
3135,57.3705030115578
3135.25,57.2555591730424
3135.5,57.1406153345271
3135.75,57.0256714960118
3136,56.9107276574964
3136.25,56.7957838189809
3136.5,56.6808399804655
3136.75,56.5658961419502
3137,56.4530848119812
3137.25,56.343138531662
3137.5,56.2331922513429
3137.75,56.1232459710239
3138,56.0132996907049
3138.25,55.9033534103859
3138.5,55.7934071300667
3138.75,55.6834608497476
3139,55.5735145694286
3139.25,55.4635682891096
3139.5,55.3536220087904
3139.75,55.2436757284714
3140,55.1337294481524
3140.25,55.0237831678333
3140.5,54.9138368875143
3140.75,54.8038906071951
3141,54.6939443268761
3141.25,54.5839980465571
3141.5,54.474051766238
3141.75,54.3641054859188
3142,54.2937489825818
3142.25,54.2787563079928
3142.5,54.2637636334039
3142.75,54.2487709588149
3143,54.2337782842259
3143.25,54.218785609637
3143.5,54.203792935048
3143.75,54.1888002604591
3144,54.1738075858701
3144.25,54.1588149112811
3144.5,54.1438222366922
3144.75,54.1288295621032
3145,54.1138368875143
3145.25,54.0988442129253
3145.5,54.0838515383363
3145.75,54.0688588637474
3146,54.0538661891584
3146.25,54.0388735145694
3146.5,54.0238808399805
3146.75,54.0088881653915
3147,53.9450594172229
3147.25,53.8101253459223
3147.5,53.6751912746214
3147.75,53.5402572033208
3148,53.4053231320202
3148.25,53.2703890607196
3148.5,53.135454989419
3148.75,53.0005209181181
3149,52.8655868468175
3149.25,52.7306527755169
3149.5,52.5957187042163
3149.75,52.4607846329154
3150,52.3258505616148
3150.25,52.1909164903142
3150.5,52.0559824190136
3150.75,51.9210483477129
3151,51.7861142764121
3151.25,51.6511802051115
3151.5,51.5162461338109
3151.75,51.3813120625102
3152,51.286097997721
3152.25,51.2511150903467
3152.5,51.2161321829725
3152.75,51.1811492755983
3153,51.146166368224
3153.25,51.1111834608497
3153.5,51.0762005534755
3153.75,51.0412176461013
3154,51.006234738727
3154.25,50.9712518313527
3154.5,50.9362689239785
3154.75,50.9012860166043
3155,50.86630310923
3155.25,50.8313202018558
3155.5,50.7963372944815
3155.75,50.7613543871073
3156,50.726371479733
3156.25,50.6913885723588
3156.5,50.6564056649845
3156.75,50.6214227576103
3157,50.6232459710239
3157.25,50.6832166693798
3157.5,50.7431873677356
3157.75,50.8031580660915
3158,50.8631287644474
3158.25,50.9230994628032
3158.5,50.983070161159
3158.75,51.0430408595149
3159,51.1030115578708
3159.25,51.1629822562266
3159.5,51.2229529545824
3159.75,51.2829236529383
3160,51.3428943512942
3160.25,51.40286504965
3160.5,51.4628357480059
3160.75,51.5228064463617
3161,51.5827771447176
3161.25,51.6427478430734
3161.5,51.7027185414293
3161.75,51.7626892397851
3162,51.8396548917466
3162.25,51.9446036138695
3162.5,52.0495523359922
3162.75,52.1545010581149
3163,52.2594497802376
3163.25,52.3643985023605
3163.5,52.4693472244832
3163.75,52.5742959466059
3164,52.6792446687286
3164.25,52.7841933908513
3164.5,52.8891421129742
3164.75,52.9940908350969
3165,53.0990395572196
3165.25,53.2039882793423
3165.5,53.3089370014652
3165.75,53.4138857235879
3166,53.5188344457106
3166.25,53.6237831678333
3166.5,53.728731889956
3166.75,53.8336806120789
3167,53.9312713657822
3167.25,54.0162298551196
3167.5,54.1011883444571
3167.75,54.1861468337946
3168,54.2711053231321
3168.25,54.3560638124695
3168.5,54.4410223018069
3168.75,54.5259807911443
3169,54.6109392804819
3169.25,54.6958977698193
3169.5,54.7808562591568
3169.75,54.8658147484942
3170,54.9507732378316
3170.25,55.0357317271692
3170.5,55.1206902165066
3170.75,55.205648705844
3171,55.2906071951815
3171.25,55.375565684519
3171.5,55.4605241738565
3171.75,55.5454826631939
3172,55.5731401595312
3172.25,55.4981767865864
3172.5,55.4232134136415
3172.75,55.3482500406967
3173,55.2732866677519
3173.25,55.1983232948071
3173.5,55.1233599218622
3173.75,55.0483965489174
3174,54.9734331759727
3174.25,54.8984698030279
3174.5,54.8235064300831
3174.75,54.7485430571382
3175,54.6735796841934
3175.25,54.5986163112486
3175.5,54.5236529383038
3175.75,54.4486895653589
3176,54.3737261924141
3176.25,54.2987628194693
3176.5,54.2237994465245
3176.75,54.1488360735797
3177,54.0338108416082
3177.25,53.8439036301481
3177.5,53.653996418688
3177.75,53.4640892072278
3178,53.2741819957674
3178.25,53.0842747843073
3178.5,52.8943675728471
3178.75,52.704460361387
3179,52.5145531499269
3179.25,52.3246459384664
3179.5,52.1347387270063
3179.75,51.9448315155462
3180,51.7549243040861
3180.25,51.5650170926256
3180.5,51.3751098811655
3180.75,51.1852026697053
3181,50.9952954582452
3181.25,50.8053882467851
3181.5,50.6154810353246
3181.75,50.4255738238645
3182,50.2983070161159
3182.25,50.2933094579196
3182.5,50.2883118997233
3182.75,50.2833143415269
3183,50.2783167833306
3183.25,50.2733192251343
3183.5,50.268321666938
3183.75,50.2633241087416
3184,50.2583265505453
3184.25,50.253328992349
3184.5,50.2483314341527
3184.75,50.2433338759564
3185,50.2383363177601
3185.25,50.2333387595637
3185.5,50.2283412013674
3185.75,50.2233436431711
3186,50.2183460849748
3186.25,50.2133485267784
3186.5,50.2083509685821
3186.75,50.2033534103858
3187,50.1539638613054
3187.25,50.0140322318085
3187.5,49.8741006023116
3187.75,49.7341689728146
3188,49.5942373433177
3188.25,49.4543057138205
3188.5,49.3143740843236
3188.75,49.1744424548266
3189,49.0345108253297
3189.25,48.8945791958325
3189.5,48.7546475663356
3189.75,48.6147159368387
3190,48.4747843073417
3190.25,48.3348526778448
3190.5,48.1949210483476
3190.75,48.0549894188507
3191,47.9150577893537
3191.25,47.7751261598568
3191.5,47.6351945303596
3191.75,47.4952629008627
3192,47.4430734168973
3192.25,47.5780074881979
3192.5,47.7129415594985
3192.75,47.8478756307994
3193,47.9828097021
3193.25,48.1177437734006
3193.5,48.2526778447012
3193.75,48.3876119160018
3194,48.5225459873027
3194.25,48.6574800586033
3194.5,48.7924141299039
3194.75,48.9273482012045
3195,49.0622822725054
3195.25,49.197216343806
3195.5,49.3321504151066
3195.75,49.4670844864072
3196,49.6020185577079
3196.25,49.7369526290087
3196.5,49.8718867003093
3196.75,50.0068207716099
3197,50.1077323783168
3197.25,50.1327201692984
3197.5,50.15770796028
3197.75,50.1826957512616
3198,50.2076835422432
3198.25,50.2326713332248
3198.5,50.2576591242064
3198.75,50.282646915188
3199,50.3076347061696
3199.25,50.3326224971512
3199.5,50.3576102881329
3199.75,50.3825980791145
3200,50.4075858700961
3200.25,50.4325736610776
3200.5,50.4575614520592
3200.75,50.4825492430409
3201,50.5075370340225
3201.25,50.5325248250041
3201.5,50.5575126159857
3201.75,50.5825004069673
3202,50.6
3202.25,50.6
3202.5,50.6
3202.75,50.6
3203,50.6
3203.25,50.6
3203.5,50.6
3203.75,50.6
3204,50.6
3204.25,50.6
3204.5,50.6
3204.75,50.6
3205,50.6
3205.25,50.6
3205.5,50.6
3205.75,50.6
3206,50.6
3206.25,50.6
3206.5,50.6
3206.75,50.6
3207,50.6
3207.25,50.6
3207.5,50.6
3207.75,50.6
3208,50.6
3208.25,50.6
3208.5,50.6
3208.75,50.6
3209,50.6
3209.25,50.6
3209.5,50.6
3209.75,50.6
3210,50.6
3210.25,50.6
3210.5,50.6
3210.75,50.6
3211,50.6
3211.25,50.6
3211.5,50.6
3211.75,50.6
3212,50.5720006511476
3212.25,50.4720494872212
3212.5,50.3720983232948
3212.75,50.2721471593684
3213,50.1721959954419
3213.25,50.0722448315155
3213.5,49.9722936675891
3213.75,49.8723425036627
3214,49.7723913397364
3214.25,49.6724401758098
3214.5,49.5724890118834
3214.75,49.472537847957
3215,49.3725866840307
3215.25,49.2726355201041
3215.5,49.1726843561777
3215.75,49.0727331922513
3216,48.972782028325
3216.25,48.8728308643986
3216.5,48.772879700472
3216.75,48.6729285365456
3217,48.6324271528569
3217.25,48.7523685495686
3217.5,48.8723099462802
3217.75,48.9922513429921
3218,49.1121927397038
3218.25,49.2321341364154
3218.5,49.3520755331271
3218.75,49.4720169298389
3219,49.5919583265506
3219.25,49.7118997232622
3219.5,49.8318411199739
3219.75,49.9517825166856
3220,50.0717239133974
3220.25,50.1916653101091
3220.5,50.3116067068207
3220.75,50.4315481035324
3221,50.5514895002443
3221.25,50.6714308969559
3221.5,50.7913722936676
3221.75,50.9113136903792
3222,51.0039068858864
3222.25,51.0188995604753
3222.5,51.0338922350643
3222.75,51.0488849096533
3223,51.0638775842422
3223.25,51.0788702588312
3223.5,51.0938629334202
3223.75,51.1088556080091
3224,51.1238482825981
3224.25,51.138840957187
3224.5,51.153833631776
3224.75,51.168826306365
3225,51.1838189809539
3225.25,51.1988116555429
3225.5,51.2138043301319
3225.75,51.2287970047208
3226,51.2437896793098
3226.25,51.2587823538987
3226.5,51.2737750284877
3226.75,51.2887677030767
3227,51.3087742145532
3227.25,51.3437571219274
3227.5,51.3787400293016
3227.75,51.4137229366759
3228,51.4487058440502
3228.25,51.4836887514244
3228.5,51.5186716587986
3228.75,51.5536545661729
3229,51.5886374735472
3229.25,51.6236203809214
3229.5,51.6586032882956
3229.75,51.6935861956699
3230,51.7285691030441
3230.25,51.7635520104184
3230.5,51.7985349177926
3230.75,51.8335178251668
3231,51.8685007325411
3231.25,51.9034836399154
3231.5,51.9384665472896
3231.75,51.9734494546638
3232,51.9903630148136
3232.25,51.950382549243
3232.5,51.9104020836725
3232.75,51.8704216181019
3233,51.8304411525314
3233.25,51.7904606869608
3233.5,51.7504802213902
3233.75,51.7104997558196
3234,51.6705192902491
3234.25,51.6305388246785
3234.5,51.5905583591079
3234.75,51.5505778935373
3235,51.5105974279668
3235.25,51.4706169623962
3235.5,51.4306364968257
3235.75,51.3906560312551
3236,51.3506755656845
3236.25,51.310695100114
3236.5,51.2707146345434
3236.75,51.2307341689728
3237,51.2150252319714
3237.25,51.2799934885235
3237.5,51.3449617450757
3237.75,51.4099300016278
3238,51.4748982581801
3238.25,51.5398665147322
3238.5,51.6048347712844
3238.75,51.6698030278365
3239,51.7347712843888
3239.25,51.7997395409409
3239.5,51.8647077974931
3239.75,51.9296760540452
3240,51.9946443105974
3240.25,52.0596125671496
3240.5,52.1245808237018
3240.75,52.1895490802539
3241,52.2545173368061
3241.25,52.3194855933584
3241.5,52.3844538499105
3241.75,52.4494221064627
3242,52.5066417060068
3242.25,52.5366270551847
3242.5,52.5666124043627
3242.75,52.5965977535406
3243,52.6265831027185
3243.25,52.6565684518965
3243.5,52.6865538010744
3243.75,52.7165391502523
3244,52.7465244994303
3244.25,52.7765098486082
3244.5,52.8064951977861
3244.75,52.836480546964
3245,52.866465896142
3245.25,52.8964512453199
3245.5,52.9264365944978
3245.75,52.9564219436757
3246,52.9864072928537
3246.25,53.0163926420316
3246.5,53.0463779912095
3246.75,53.0763633403874
3247,53.1232785284064
3247.25,53.2332248087254
3247.5,53.3431710890444
3247.75,53.4531173693635
3248,53.5630636496825
3248.25,53.6730099300017
3248.5,53.7829562103207
3248.75,53.8929024906397
3249,54.0028487709587
3249.25,54.112795051278
3249.5,54.222741331597
3249.75,54.332687611916
3250,54.442633892235
3250.25,54.552580172554
3250.5,54.6625264528733
3250.75,54.7724727331923
3251,54.8824190135113
3251.25,54.9923652938303
3251.5,55.1023115741495
3251.75,55.2122578544686
3252,55.2848608171903
3252.25,55.2098974442455
3252.5,55.1349340713007
3252.75,55.0599706983558
3253,54.985007325411
3253.25,54.9100439524662
3253.5,54.8350805795214
3253.75,54.7601172065765
3254,54.6851538336317
3254.25,54.610190460687
3254.5,54.5352270877422
3254.75,54.4602637147974
3255,54.3853003418525
3255.25,54.3103369689077
3255.5,54.2353735959629
3255.75,54.1604102230181
3256,54.0854468500732
3256.25,54.0104834771284
3256.5,53.9355201041836
3256.75,53.8605567312388
3257,53.8067230994628
3257.25,53.8417060068371
3257.5,53.8766889142113
3257.75,53.9116718215855
3258,53.9466547289598
3258.25,53.9816376363341
3258.5,54.0166205437083
3258.75,54.0516034510825
3259,54.0865863584568
3259.25,54.121569265831
3259.5,54.1565521732053
3259.75,54.1915350805795
3260,54.2265179879538
3260.25,54.261500895328
3260.5,54.2964838027023
3260.75,54.3314667100765
3261,54.3664496174508
3261.25,54.401432524825
3261.5,54.4364154321992
3261.75,54.4713983395735
3262,54.4854142926908
3262.25,54.4054533615497
3262.5,54.3254924304086
3262.75,54.2455314992674
3263,54.1655705681263
3263.25,54.0856096369852
3263.5,54.0056487058441
3263.75,53.925687774703
3264,53.8457268435617
3264.25,53.7657659124206
3264.5,53.6858049812795
3264.75,53.6058440501384
3265,53.5258831189972
3265.25,53.445922187856
3265.5,53.3659612567149
3265.75,53.2860003255738
3266,53.2060393944327
3266.25,53.1260784632915
3266.5,53.0461175321504
3266.75,52.9661566010093
3267,52.9017255412665
3267.25,52.9117206576591
3267.5,52.9217157740518
3267.75,52.9317108904444
3268,52.941706006837
3268.25,52.9517011232297
3268.5,52.9616962396223
3268.75,52.971691356015
3269,52.9816864724076
3269.25,52.9916815888003
3269.5,53.0016767051929
3269.75,53.0116718215856
3270,53.0216669379782
3270.25,53.0316620543708
3270.5,53.0416571707635
3270.75,53.0516522871561
3271,53.0616474035488
3271.25,53.0716425199414
3271.5,53.081637636334
3271.75,53.0916327527267
3272,53.1032557382387
3272.25,53.1232459710239
3272.5,53.1432362038092
3272.75,53.1632264365945
3273,53.1832166693798
3273.25,53.2032069021651
3273.5,53.2231971349504
3273.75,53.2431873677356
3274,53.2631776005209
3274.25,53.2831678333062
3274.5,53.3031580660915
3274.75,53.3231482988768
3275,53.343138531662
3275.25,53.3631287644474
3275.5,53.3831189972326
3275.75,53.4031092300179
3276,53.4230994628032
3276.25,53.4430896955885
3276.5,53.4630799283738
3276.75,53.483070161159
3277,53.5038254924304
3277.25,53.528813283412
3277.5,53.5538010743936
3277.75,53.5787888653752
3278,53.6037766563568
3278.25,53.6287644473384
3278.5,53.65375223832
3278.75,53.6787400293017
3279,53.7037278202833
3279.25,53.7287156112649
3279.5,53.7537034022464
3279.75,53.7786911932281
3280,53.8036789842097
3280.25,53.8286667751913
3280.5,53.8536545661729
3280.75,53.8786423571545
3281,53.9036301481361
3281.25,53.9286179391177
3281.5,53.9536057300993
3281.75,53.9785935210809
3282,54.0057300993001
3282.25,54.0457105648706
3282.5,54.0856910304412
3282.75,54.1256714960117
3283,54.1656519615823
3283.25,54.2056324271529
3283.5,54.2456128927234
3283.75,54.285593358294
3284,54.3255738238645
3284.25,54.3655542894352
3284.5,54.4055347550057
3284.75,54.4455152205763
3285,54.4854956861468
3285.25,54.5254761517174
3285.5,54.565456617288
3285.75,54.6054370828586
3286,54.6454175484291
3286.25,54.6853980139997
3286.5,54.7253784795703
3286.75,54.7653589451408
3287,54.7973302946443
3287.25,54.777340061859
3287.5,54.7573498290738
3287.75,54.7373595962884
3288,54.7173693635032
3288.25,54.6973791307179
3288.5,54.6773888979326
3288.75,54.6573986651473
3289,54.637408432362
3289.25,54.6174181995767
3289.5,54.5974279667915
3289.75,54.5774377340062
3290,54.5574475012209
3290.25,54.5374572684356
3290.5,54.5174670356503
3290.75,54.4974768028651
3291,54.4774865700798
3291.25,54.4574963372945
3291.5,54.4375061045092
3291.75,54.4175158717239
3292,54.3882467849585
3292.25,54.2932931792283
3292.5,54.1983395734983
3292.75,54.1033859677682
3293,54.0084323620381
3293.25,53.9134787563081
3293.5,53.8185251505778
3293.75,53.7235715448478
3294,53.6286179391177
3294.25,53.5336643333876
3294.5,53.4387107276574
3294.75,53.3437571219274
3295,53.2488035161973
3295.25,53.1538499104672
3295.5,53.0588963047372
3295.75,52.9639426990069
3296,52.8689890932769
3296.25,52.7740354875468
3296.5,52.6790818818168
3296.75,52.5841282760865
3297,52.482907374247
3297.25,52.3329806283575
3297.5,52.1830538824679
3297.75,52.0331271365783
3298,51.8832003906885
3298.25,51.7332736447989
3298.5,51.5833468989093
3298.75,51.4334201530198
3299,51.2834934071299
3299.25,51.1335666612404
3299.5,50.9836399153508
3299.75,50.8337131694612
3300,50.6837864235717
3300.25,50.5338596776818
3300.5,50.3839329317922
3300.75,50.2340061859027
3301,50.0840794400131
3301.25,49.9341526941233
3301.5,49.7842259482337
3301.75,49.6342992023441
3302,49.5
3302.25,49.5
3302.5,49.5
3302.75,49.5
3303,49.5
3303.25,49.5
3303.5,49.5
3303.75,49.5
3304,49.5
3304.25,49.5
3304.5,49.5
3304.75,49.5
3305,49.5
3305.25,49.5
3305.5,49.5
3305.75,49.5
3306,49.5
3306.25,49.5
3306.5,49.5
3306.75,49.5
3307,49.4929187693309
3307.25,49.4179553963861
3307.5,49.3429920234413
3307.75,49.2680286504965
3308,49.1930652775516
3308.25,49.1181019046068
3308.5,49.043138531662
3308.75,48.9681751587173
3309,48.8932117857725
3309.25,48.8182484128276
3309.5,48.7432850398828
3309.75,48.668321666938
3310,48.5933582939932
3310.25,48.5183949210483
3310.5,48.4434315481035
3310.75,48.3684681751587
3311,48.2935048022139
3311.25,48.2185414292691
3311.5,48.1435780563242
3311.75,48.0686146833794
3312,48.0038092137392
3312.25,48.0487872375061
3312.5,48.093765261273
3312.75,48.1387432850399
3313,48.1837213088068
3313.25,48.2286993325736
3313.5,48.2736773563405
3313.75,48.3186553801075
3314,48.3636334038743
3314.25,48.4086114276412
3314.5,48.4535894514081
3314.75,48.498567475175
3315,48.5435454989419
3315.25,48.5885235227088
3315.5,48.6335015464757
3315.75,48.6784795702425
3316,48.7234575940095
3316.25,48.7684356177763
3316.5,48.8134136415432
3316.75,48.8583916653101
3317,48.9003744098974
3317.25,48.9053719680938
3317.5,48.9103695262901
3317.75,48.9153670844864
3318,48.9203646426827
3318.25,48.9253622008791
3318.5,48.9303597590754
3318.75,48.9353573172717
3319,48.940354875468
3319.25,48.9453524336643
3319.5,48.9503499918607
3319.75,48.955347550057
3320,48.9603451082533
3320.25,48.9653426664496
3320.5,48.9703402246459
3320.75,48.9753377828423
3321,48.9803353410386
3321.25,48.9853328992349
3321.5,48.9903304574312
3321.75,48.9953280156276
3322,49.0016278691193
3322.25,49.0266156601009
3322.5,49.0516034510825
3322.75,49.0765912420642
3323,49.1015790330458
3323.25,49.1265668240274
3323.5,49.1515546150089
3323.75,49.1765424059905
3324,49.2015301969722
3324.25,49.2265179879538
3324.5,49.2515057789354
3324.75,49.276493569917
3325,49.3014813608986
3325.25,49.3264691518802
3325.5,49.3514569428618
3325.75,49.3764447338434
3326,49.401432524825
3326.25,49.4264203158066
3326.5,49.4514081067882
3326.75,49.4763958977698
3327,49.4944652449944
3327.25,49.3945140810678
3327.5,49.2945629171414
3327.75,49.194611753215
3328,49.0946605892887
3328.25,48.9947094253623
3328.5,48.8947582614357
3328.75,48.7948070975093
3329,48.694855933583
3329.25,48.5949047696566
3329.5,48.49495360573
3329.75,48.3950024418036
3330,48.2950512778772
3330.25,48.1951001139509
3330.5,48.0951489500245
3330.75,47.9951977860979
3331,47.8952466221715
3331.25,47.7952954582452
3331.5,47.6953442943188
3331.75,47.5953931303922
3332,47.4970372782028
3332.25,47.4320690216506
3332.5,47.3671007650985
3332.75,47.3021325085464
3333,47.2371642519941
3333.25,47.1721959954419
3333.5,47.1072277388898
3333.75,47.0422594823376
3334,46.9772912257854
3334.25,46.9123229692332
3334.5,46.8473547126811
3334.75,46.7823864561289
3335,46.7174181995768
3335.25,46.6524499430245
3335.5,46.5874816864724
3335.75,46.5225134299202
3336,46.4575451733681
3336.25,46.3925769168158
3336.5,46.3276086602637
3336.75,46.2626404037115
3337,46.1994628031906
3337.25,46.1844701286017
3337.5,46.1694774540127
3337.75,46.1544847794237
3338,46.1394921048348
3338.25,46.1244994302458
3338.5,46.1095067556569
3338.75,46.0945140810679
3339,46.0795214064789
3339.25,46.06452873189
3339.5,46.049536057301
3339.75,46.034543382712
3340,46.0195507081231
3340.25,46.0045580335341
3340.5,45.9895653589452
3340.75,45.9745726843562
3341,45.9595800097672
3341.25,45.9445873351782
3341.5,45.9295946605893
3341.75,45.9146019860003
3342,45.9023441315319
3342.25,45.9923001790656
3342.5,46.0822562265994
3342.75,46.1722122741331
3343,46.2621683216669
3343.25,46.3521243692008
3343.5,46.4420804167345
3343.75,46.5320364642683
3344,46.621992511802
3344.25,46.7119485593359
3344.5,46.8019046068696
3344.75,46.8918606544034
3345,46.9818167019371
3345.25,47.0717727494709
3345.5,47.1617287970048
3345.75,47.2516848445385
3346,47.3416408920723
3346.25,47.431596939606
3346.5,47.5215529871399
3346.75,47.6115090346737
3347,47.7013836887514
3347.25,47.7863421780889
3347.5,47.8713006674263
3347.75,47.9562591567639
3348,48.0412176461013
3348.25,48.1261761354387
3348.5,48.2111346247761
3348.75,48.2960931141137
3349,48.3810516034511
3349.25,48.4660100927886
3349.5,48.550968582126
3349.75,48.6359270714634
3350,48.720885560801
3350.25,48.8058440501384
3350.5,48.8908025394758
3350.75,48.9757610288132
3351,49.0607195181508
3351.25,49.1456780074882
3351.5,49.2306364968257
3351.75,49.3155949861631
3352,49.3997395409409
3352.25,49.3597590753703
3352.5,49.3197786097998
3352.75,49.2797981442292
3353,49.2398176786587
3353.25,49.199837213088
3353.5,49.1598567475175
3353.75,49.1198762819469
3354,49.0798958163764
3354.25,49.0399153508058
3354.5,48.9999348852352
3354.75,48.9599544196646
3355,48.9199739540941
3355.25,48.8799934885235
3355.5,48.8400130229529
3355.75,48.8000325573824
3356,48.7600520918118
3356.25,48.7200716262413
3356.5,48.6800911606707
3356.75,48.6401106951001
3357,48.6001302295295
3357.25,48.6
3357.5,48.6
3357.75,48.6
3358,48.6
3358.25,48.6
3358.5,48.6
3358.75,48.6
3359,48.6
3359.25,48.6
3359.5,48.6
3359.75,48.6
3360,48.6
3360.25,48.6
3360.5,48.6
3360.75,48.6
3361,48.6
3361.25,48.6
3361.5,48.6
3361.75,48.6
3362,48.6
3362.25,48.7134461989255
3362.5,48.8283900374411
3362.75,48.9433338759564
3363,49.0582777144717
3363.25,49.1732215529871
3363.5,49.2881653915026
3363.75,49.403109230018
3364,49.5180530685333
3364.25,49.6329969070486
3364.5,49.747940745564
3364.75,49.8628845840795
3365,49.9778284225948
3365.25,50.0927722611102
3365.5,50.2077160996255
3365.75,50.3226599381411
3366,50.4376037766564
3366.25,50.5525476151717
3366.5,50.6674914536871
3366.75,50.7824352922024
3367,50.897379130718
3367.25,51.066042650171
3367.5,51.2359596288458
3367.75,51.4058766075207
3368,51.5757935861958
3368.25,51.7457105648707
3368.5,51.9156275435455
3368.75,52.0855445222204
3369,52.2554615008952
3369.25,52.4253784795704
3369.5,52.5952954582452
3369.75,52.76521243692
3370,52.9351294155949
3370.25,53.10504639427
3370.5,53.2749633729449
3370.75,53.4448803516197
3371,53.6147973302946
3371.25,53.7847143089694
3371.5,53.9546312876446
3371.75,54.1245482663194
3372,54.2944652449943
3372.25,54.1984698030279
3372.5,54.093521080905
3372.75,53.9885723587823
3373,53.8836236366596
3373.25,53.7786749145369
3373.5,53.6737261924142
3373.75,53.5687774702913
3374,53.4638287481686
3374.25,53.3588800260459
3374.5,53.2539313039232
3374.75,53.1489825818003
3375,53.0440338596776
3375.25,52.9390851375549
3375.5,52.8341364154322
3375.75,52.7291876933095
3376,52.6242389711866
3376.25,52.5192902490639
3376.5,52.4143415269412
3376.75,52.3093928048186
3377,52.2044440826957
3377.25,52.2478593521081
3377.5,52.2978349340713
3377.75,52.3478105160345
3378,52.3977860979977
3378.25,52.447761679961
3378.5,52.4977372619242
3378.75,52.5477128438874
3379,52.5976884258505
3379.25,52.6476640078138
3379.5,52.697639589777
3379.75,52.7476151717402
3380,52.7975907537034
3380.25,52.8475663356666
3380.5,52.8975419176299
3380.75,52.9475174995931
3381,52.9974930815562
3381.25,53.0474686635194
3381.5,53.0974442454827
3381.75,53.1474198274459
3382,53.1973954094091
3382.25,53.1005209181182
3382.5,52.9955721959955
3382.75,52.8906234738726
3383,52.7856747517499
3383.25,52.6807260296272
3383.5,52.5757773075045
3383.75,52.4708285853816
3384,52.3658798632589
3384.25,52.2609311411362
3384.5,52.1559824190135
3384.75,52.0510336968908
3385,51.9460849747679
3385.25,51.8411362526452
3385.5,51.7361875305226
3385.75,51.6312388083999
3386,51.5262900862772
3386.25,51.4213413641543
3386.5,51.3163926420316
3386.75,51.2114439199089
3387,51.1064951977862
3387.25,51.0390525801725
3387.5,50.9740843236204
3387.75,50.9091160670682
3388,50.8441478105161
3388.25,50.7791795539639
3388.5,50.7142112974117
3388.75,50.6492430408595
3389,50.5842747843074
3389.25,50.5193065277552
3389.5,50.4543382712029
3389.75,50.3893700146508
3390,50.3244017580986
3390.25,50.2594335015465
3390.5,50.1944652449944
3390.75,50.1294969884421
3391,50.0645287318899
3391.25,49.9995604753378
3391.5,49.9345922187856
3391.75,49.8696239622334
3392,49.8046557056812
3392.25,49.7768028650496
3392.5,49.751815074068
3392.75,49.7268272830865
3393,49.7018394921048
3393.25,49.6768517011232
3393.5,49.6518639101416
3393.75,49.62687611916
3394,49.6018883281784
3394.25,49.5769005371968
3394.5,49.5519127462152
3394.75,49.5269249552336
3395,49.501937164252
3395.25,49.4769493732704
3395.5,49.4519615822888
3395.75,49.4269737913072
3396,49.4019860003256
3396.25,49.3769982093439
3396.5,49.3520104183623
3396.75,49.3270226273808
3397,49.3020348363992
3397.25,49.3045905909165
3397.5,49.3095881491128
3397.75,49.3145857073091
3398,49.3195832655055
3398.25,49.3245808237018
3398.5,49.3295783818981
3398.75,49.3345759400944
3399,49.3395734982907
3399.25,49.3445710564871
3399.5,49.3495686146834
3399.75,49.3545661728797
3400,49.359563731076
3400.25,49.3645612892723
3400.5,49.3695588474687
3400.75,49.374556405665
3401,49.3795539638613
3401.25,49.3845515220576
3401.5,49.3895490802539
3401.75,49.3945466384503
3402,49.3995441966466
3402.25,49.6134624776169
3402.5,49.8483477128439
3402.75,50.0832329480709
3403,50.3181181832983
3403.25,50.5530034185253
3403.5,50.7878886537523
3403.75,51.0227738889793
3404,51.2576591242063
3404.25,51.4925443594337
3404.5,51.7274295946607
3404.75,51.9623148298877
3405,52.1972000651147
3405.25,52.4320853003421
3405.5,52.6669705355691
3405.75,52.9018557707961
3406,53.1367410060231
3406.25,53.3716262412501
3406.5,53.6065114764775
3406.75,53.8413967117045
3407,54.0762819469315
3407.25,54.0191274621521
3407.5,53.9291714146182
3407.75,53.8392153670844
3408,53.7492593195507
3408.25,53.6593032720169
3408.5,53.5693472244832
3408.75,53.4793911769493
3409,53.3894351294156
3409.25,53.2994790818818
3409.5,53.2095230343481
3409.75,53.1195669868142
3410,53.0296109392804
3410.25,52.9396548917467
3410.5,52.8496988442129
3410.75,52.7597427966792
3411,52.6697867491453
3411.25,52.5798307016115
3411.5,52.4898746540778
3411.75,52.3999186065441
3412,52.3099625590103
3412.25,52.2955559173042
3412.5,52.2905583591079
3412.75,52.2855608009116
3413,52.2805632427153
3413.25,52.275565684519
3413.5,52.2705681263226
3413.75,52.2655705681263
3414,52.26057300993
3414.25,52.2555754517337
3414.5,52.2505778935374
3414.75,52.245580335341
3415,52.2405827771447
3415.25,52.2355852189484
3415.5,52.2305876607521
3415.75,52.2255901025558
3416,52.2205925443594
3416.25,52.2155949861631
3416.5,52.2105974279668
3416.75,52.2055998697705
3417,52.2006023115742
3417.25,52.0857235878236
3417.5,51.9557870747193
3417.75,51.8258505616147
3418,51.6959140485104
3418.25,51.5659775354061
3418.5,51.4360410223019
3418.75,51.3061045091976
3419,51.176167996093
3419.25,51.0462314829887
3419.5,50.9162949698844
3419.75,50.7863584567802
3420,50.6564219436756
3420.25,50.5264854305713
3420.5,50.396548917467
3420.75,50.2666124043627
3421,50.1366758912584
3421.25,50.0067393781539
3421.5,49.8768028650496
3421.75,49.7468663519453
3422,49.616929838841
3422.25,49.6086928210972
3422.5,49.6186879374898
3422.75,49.6286830538825
3423,49.6386781702751
3423.25,49.6486732866677
3423.5,49.6586684030604
3423.75,49.668663519453
3424,49.6786586358457
3424.25,49.6886537522383
3424.5,49.698648868631
3424.75,49.7086439850236
3425,49.7186391014162
3425.25,49.7286342178089
3425.5,49.7386293342015
3425.75,49.7486244505942
3426,49.7586195669868
3426.25,49.7686146833795
3426.5,49.7786097997721
3426.75,49.7886049161648
3427,49.7986000325574
3427.25,49.7785121276249
3427.5,49.7535243366433
3427.75,49.7285365456617
3428,49.7035487546801
3428.25,49.6785609636985
3428.5,49.6535731727169
3428.75,49.6285853817353
3429,49.6035975907537
3429.25,49.5786097997721
3429.5,49.5536220087905
3429.75,49.5286342178089
3430,49.5036464268273
3430.25,49.4786586358457
3430.5,49.4536708448641
3430.75,49.4286830538825
3431,49.4036952629009
3431.25,49.3787074719192
3431.5,49.3537196809376
3431.75,49.328731889956
3432,49.3037440989744
3432.25,49.4826957512615
3432.5,49.6975907537036
3432.75,49.9124857561453
3433,50.127380758587
3433.25,50.3422757610287
3433.5,50.5571707634708
3433.75,50.7720657659125
3434,50.9869607683543
3434.25,51.201855770796
3434.5,51.4167507732377
3434.75,51.6316457756798
3435,51.8465407781215
3435.25,52.0614357805632
3435.5,52.276330783005
3435.75,52.4912257854467
3436,52.7061207878888
3436.25,52.9210157903305
3436.5,53.1359107927722
3436.75,53.3508057952139
3437,53.565700797656
3437.25,53.8099951163927
3437.5,54.0598730262087
3437.75,54.3097509360246
3438,54.5596288458406
3438.25,54.809506755657
3438.5,55.059384665473
3438.75,55.3092625752889
3439,55.5591404851049
3439.25,55.8090183949213
3439.5,56.0588963047372
3439.75,56.3087742145532
3440,56.5586521243691
3440.25,56.8085300341851
3440.5,57.0584079440015
3440.75,57.3082858538174
3441,57.5581637636334
3441.25,57.8080416734493
3441.5,58.0579195832657
3441.75,58.3077974930817
3442,58.5576754028976
3442.25,58.4962233436432
3442.5,58.3712843887352
3442.75,58.246345433827
3443,58.1214064789191
3443.25,57.9964675240111
3443.5,57.8715285691031
3443.75,57.7465896141949
3444,57.6216506592869
3444.25,57.496711704379
3444.5,57.371772749471
3444.75,57.246833794563
3445,57.1218948396548
3445.25,56.9969558847468
3445.5,56.8720169298389
3445.75,56.7470779749309
3446,56.6221390200227
3446.25,56.4972000651147
3446.5,56.3722611102067
3446.75,56.2473221552988
3447,56.1223832003908
3447.25,55.8210483477126
3447.5,55.4812143903629
3447.75,55.1413804330132
3448,54.8015464756635
3448.25,54.4617125183132
3448.5,54.1218785609635
3448.75,53.7820446036138
3449,53.4422106462641
3449.25,53.1023766889144
3449.5,52.7625427315641
3449.75,52.4227087742144
3450,52.0828748168648
3450.25,51.7430408595151
3450.5,51.4032069021647
3450.75,51.0633729448151
3451,50.7235389874654
3451.25,50.3837050301157
3451.5,50.043871072766
3451.75,49.7040371154157
3452,49.364203158066
3452.25,49.2797330294644
3452.5,49.2547452384828
3452.75,49.2297574475012
3453,49.2047696565196
3453.25,49.179781865538
3453.5,49.1547940745564
3453.75,49.1298062835748
3454,49.1048184925932
3454.25,49.0798307016116
3454.5,49.05484291063
3454.75,49.0298551196484
3455,49.0048673286667
3455.25,48.9798795376852
3455.5,48.9548917467036
3455.75,48.929903955722
3456,48.9049161647404
3456.25,48.8799283737587
3456.5,48.8549405827771
3456.75,48.8299527917955
3457,48.8049650008139
3457.25,48.8200227901677
3457.5,48.8450105811493
3457.75,48.8699983721309
3458,48.8949861631125
3458.25,48.9199739540941
3458.5,48.9449617450757
3458.75,48.9699495360573
3459,48.9949373270389
3459.25,49.0199251180205
3459.5,49.0449129090021
3459.75,49.0699006999837
3460,49.0948884909653
3460.25,49.1198762819469
3460.5,49.1448640729285
3460.75,49.1698518639102
3461,49.1948396548918
3461.25,49.2198274458733
3461.5,49.2448152368549
3461.75,49.2698030278365
3462,49.2947908188182
3462.25,49.3118671658799
3462.5,49.3268598404688
3462.75,49.3418525150578
3463,49.3568451896468
3463.25,49.3718378642357
3463.5,49.3868305388247
3463.75,49.4018232134136
3464,49.4168158880026
3464.25,49.4318085625916
3464.5,49.4468012371805
3464.75,49.4617939117695
3465,49.4767865863585
3465.25,49.4917792609474
3465.5,49.5067719355364
3465.75,49.5217646101253
3466,49.5367572847143
3466.25,49.5517499593033
3466.5,49.5667426338922
3466.75,49.5817353084812
3467,49.5967279830702
3467.25,49.5492104834772
3467.5,49.4842422269249
3467.75,49.4192739703728
3468,49.3543057138206
3468.25,49.2893374572685
3468.5,49.2243692007163
3468.75,49.159400944164
3469,49.0944326876119
3469.25,49.0294644310598
3469.5,48.9644961745076
3469.75,48.8995279179553
3470,48.8345596614032
3470.25,48.769591404851
3470.5,48.7046231482989
3470.75,48.6396548917468
3471,48.5746866351945
3471.25,48.5097183786423
3471.5,48.4447501220902
3471.75,48.379781865538
3472,48.3148136089858
3472.25,48.2266970535568
3472.5,48.1317434478268
3472.75,48.0367898420967
3473,47.9418362363667
3473.25,47.8468826306364
3473.5,47.7519290249064
3473.75,47.6569754191763
3474,47.5620218134462
3474.25,47.467068207716
3474.5,47.3721146019859
3474.75,47.2771609962559
3475,47.1822073905258
3475.25,47.0872537847958
3475.5,46.9923001790655
3475.75,46.8973465733355
3476,46.8023929676054
3476.25,46.7074393618753
3476.5,46.6124857561451
3476.75,46.5175321504151
3477,46.422578544685
3477.25,46.3771447175647
3477.5,46.3471593683868
3477.75,46.3171740192088
3478,46.2871886700309
3478.25,46.257203320853
3478.5,46.2272179716751
3478.75,46.1972326224971
3479,46.1672472733192
3479.25,46.1372619241413
3479.5,46.1072765749634
3479.75,46.0772912257855
3480,46.0473058766075
3480.25,46.0173205274296
3480.5,45.9873351782517
3480.75,45.9573498290738
3481,45.9273644798958
3481.25,45.8973791307179
3481.5,45.86739378154
3481.75,45.837408432362
3482,45.8074230831841
3482.25,45.7699169786749
3482.5,45.7299365131043
3482.75,45.6899560475338
3483,45.6499755819632
3483.25,45.6099951163927
3483.5,45.570014650822
3483.75,45.5300341852515
3484,45.4900537196809
3484.25,45.4500732541104
3484.5,45.4100927885398
3484.75,45.3701123229692
3485,45.3301318573987
3485.25,45.2901513918281
3485.5,45.2501709262576
3485.75,45.2101904606869
3486,45.1702099951164
3486.25,45.1302295295458
3486.5,45.0902490639753
3486.75,45.0502685984047
3487,45.0102881328341
3487.25,45.0593846654729
3487.5,45.139345596614
3487.75,45.2193065277551
3488,45.2992674588964
3488.25,45.3792283900375
3488.5,45.4591893211786
3488.75,45.5391502523197
3489,45.6191111834609
3489.25,45.699072114602
3489.5,45.7790330457431
3489.75,45.8589939768842
3490,45.9389549080253
3490.25,46.0189158391666
3490.5,46.0988767703077
3490.75,46.1788377014488
3491,46.2587986325899
3491.25,46.3387595637311
3491.5,46.4187204948723
3491.75,46.4986814260134
3492,46.5786423571545
3492.25,46.6586032882956
3492.5,46.7385642194368
3492.75,46.8185251505779
3493,46.898486081719
3493.25,46.9784470128601
3493.5,47.0584079440014
3493.75,47.1383688751425
3494,47.2183298062836
3494.25,47.2982907374247
3494.5,47.3782516685658
3494.75,47.458212599707
3495,47.5381735308481
3495.25,47.6181344619893
3495.5,47.6980953931304
3495.75,47.7780563242716
3496,47.8580172554127
3496.25,47.9379781865538
3496.5,48.0179391176949
3496.75,48.097900048836
3497,48.1778609799773
3497.25,48.1891583916653
3497.5,48.1741657170763
3497.75,48.1591730424874
3498,48.1441803678984
3498.25,48.1291876933095
3498.5,48.1141950187205
3498.75,48.0992023441315
3499,48.0842096695426
3499.25,48.0692169949536
3499.5,48.0542243203646
3499.75,48.0392316457757
3500,48.0242389711867
3500.25,48.0092462965977
3500.5,47.9942536220088
3500.75,47.9792609474198
3501,47.9642682728309
3501.25,47.9492755982419
3501.5,47.9342829236529
3501.75,47.919290249064
3502,47.904297574475
3502.25,47.8073091323458
3502.5,47.6773726192413
3502.75,47.547436106137
3503,47.4174995930327
3503.25,47.2875630799284
3503.5,47.1576265668241
3503.75,47.0276900537196
3504,46.8977535406153
3504.25,46.767817027511
3504.5,46.6378805144067
3504.75,46.5079440013022
3505,46.3780074881979
3505.25,46.2480709750936
3505.5,46.1181344619893
3505.75,45.988197948885
3506,45.8582614357805
3506.25,45.7283249226762
3506.5,45.5983884095719
3506.75,45.4684518964676
3507,45.3385153833633
3507.25,45.2929676054045
3507.5,45.2829724890119
3507.75,45.2729773726192
3508,45.2629822562266
3508.25,45.2529871398339
3508.5,45.2429920234413
3508.75,45.2329969070487
3509,45.223001790656
3509.25,45.2130066742634
3509.5,45.2030115578707
3509.75,45.1930164414781
3510,45.1830213250855
3510.25,45.1730262086928
3510.5,45.1630310923002
3510.75,45.1530359759075
3511,45.1430408595149
3511.25,45.1330457431223
3511.5,45.1230506267296
3511.75,45.113055510337
3512,45.1030603939443
3512.25,45.165879863259
3512.5,45.260833468989
3512.75,45.3557870747193
3513,45.4507406804493
3513.25,45.5456942861794
3513.5,45.6406478919095
3513.75,45.7356014976395
3514,45.8305551033698
3514.25,45.9255087090998
3514.5,46.0204623148299
3514.75,46.1154159205599
3515,46.2103695262902
3515.25,46.3053231320202
3515.5,46.4002767377503
3515.75,46.4952303434804
3516,46.5901839492104
3516.25,46.6851375549406
3516.5,46.7800911606707
3516.75,46.8750447664008
3517,46.9699983721308
3517.25,47.0478593521082
3517.5,47.1178251668566
3517.75,47.1877909816051
3518,47.2577567963536
3518.25,47.327722611102
3518.5,47.3976884258506
3518.75,47.4676542405991
3519,47.5376200553475
3519.25,47.607585870096
3519.5,47.6775516848446
3519.75,47.7475174995931
3520,47.8174833143415
3520.25,47.88744912909
3520.5,47.9574149438385
3520.75,48.0273807585871
3521,48.0973465733355
3521.25,48.167312388084
3521.5,48.2372782028325
3521.75,48.307244017581
3522,48.3772098323295
3522.25,48.4
3522.5,48.4
3522.75,48.4
3523,48.4
3523.25,48.4
3523.5,48.4
3523.75,48.4
3524,48.4
3524.25,48.4
3524.5,48.4
3524.75,48.4
3525,48.4
3525.25,48.4
3525.5,48.4
3525.75,48.4
3526,48.4
3526.25,48.4
3526.5,48.4
3526.75,48.4
3527,48.4
3527.25,48.3369037929351
3527.5,48.2419501872049
3527.75,48.1469965814748
3528,48.0520429757448
3528.25,47.9570893700147
3528.5,47.8621357642845
3528.75,47.7671821585544
3529,47.6722285528243
3529.25,47.5772749470943
3529.5,47.4823213413642
3529.75,47.387367735634
3530,47.2924141299039
3530.25,47.1974605241739
3530.5,47.1025069184438
3530.75,47.0075533127137
3531,46.9125997069835
3531.25,46.8176461012534
3531.5,46.7226924955234
3531.75,46.6277388897933
3532,46.5327852840631
3532.25,46.4738238645613
3532.5,46.4338433989907
3532.75,46.3938629334202
3533,46.3538824678496
3533.25,46.313902002279
3533.5,46.2739215367084
3533.75,46.2339410711379
3534,46.1939606055673
3534.25,46.1539801399967
3534.5,46.1139996744262
3534.75,46.0740192088556
3535,46.0340387432851
3535.25,45.9940582777145
3535.5,45.9540778121439
3535.75,45.9140973465733
3536,45.8741168810028
3536.25,45.8341364154322
3536.5,45.7941559498616
3536.75,45.754175484291
3537,45.7141950187205
3537.25,45.6290900211623
3537.5,45.5191437408433
3537.75,45.4091974605241
3538,45.2992511802051
3538.25,45.1893048998861
3538.5,45.079358619567
3538.75,44.9694123392478
3539,44.8594660589288
3539.25,44.7495197786098
3539.5,44.6395734982908
3539.75,44.5296272179718
3540,44.4196809376525
3540.25,44.3097346573335
3540.5,44.1997883770145
3540.75,44.0898420966955
3541,43.9798958163763
3541.25,43.8699495360572
3541.5,43.7600032557382
3541.75,43.6500569754192
3542,43.5401106951002
3542.25,43.4873026208693
3542.5,43.467312388084
3542.75,43.4473221552987
3543,43.4273319225134
3543.25,43.4073416897281
3543.5,43.3873514569429
3543.75,43.3673612241576
3544,43.3473709913723
3544.25,43.327380758587
3544.5,43.3073905258017
3544.75,43.2874002930164
3545,43.2674100602312
3545.25,43.2474198274459
3545.5,43.2274295946606
3545.75,43.2074393618753
3546,43.18744912909
3546.25,43.1674588963047
3546.5,43.1474686635195
3546.75,43.1274784307342
3547,43.1074881979489
3547.25,43.1218785609637
3547.5,43.1568614683379
3547.75,43.1918443757122
3548,43.2268272830865
3548.25,43.2618101904607
3548.5,43.2967930978349
3548.75,43.3317760052092
3549,43.3667589125835
3549.25,43.4017418199577
3549.5,43.4367247273319
3549.75,43.4717076347062
3550,43.5066905420804
3550.25,43.5416734494547
3550.5,43.5766563568289
3550.75,43.6116392642031
3551,43.6466221715774
3551.25,43.6816050789517
3551.5,43.7165879863259
3551.75,43.7515708937001
3552,43.7865538010744
3552.25,43.8707634706171
3552.5,43.9857073091324
3552.75,44.1006511476477
3553,44.2155949861631
3553.25,44.3305388246784
3553.5,44.445482663194
3553.75,44.5604265017093
3554,44.6753703402246
3554.25,44.79031417874
3554.5,44.9052580172555
3554.75,45.0202018557709
3555,45.1351456942862
3555.25,45.2500895328015
3555.5,45.3650333713169
3555.75,45.4799772098324
3556,45.5949210483478
3556.25,45.7098648868631
3556.5,45.8248087253784
3556.75,45.9397525638938
3557,46.0546964024093
3557.25,46.151473221553
3557.5,46.2364317108904
3557.75,46.3213902002279
3558,46.4063486895654
3558.25,46.4913071789029
3558.5,46.5762656682403
3558.75,46.6612241575777
3559,46.7461826469151
3559.25,46.8311411362527
3559.5,46.9160996255901
3559.75,47.0010581149275
3560,47.086016604265
3560.25,47.1709750936025
3560.5,47.25593358294
3560.75,47.3408920722774
3561,47.4258505616148
3561.25,47.5108090509522
3561.5,47.5957675402898
3561.75,47.6807260296272
3562,47.7656845189647
3562.25,47.7672309946281
3562.5,47.7122578544684
3562.75,47.6572847143089
3563,47.6023115741494
3563.25,47.5473384339899
3563.5,47.4923652938304
3563.75,47.4373921536708
3564,47.3824190135113
3564.25,47.3274458733518
3564.5,47.2724727331923
3564.75,47.2174995930327
3565,47.1625264528732
3565.25,47.1075533127137
3565.5,47.0525801725541
3565.75,46.9976070323946
3566,46.942633892235
3566.25,46.8876607520755
3566.5,46.832687611916
3566.75,46.7777144717565
3567,46.7227413315969
3567.25,46.7468826306365
3567.5,46.8268435617776
3567.75,46.9068044929187
3568,46.9867654240599
3568.25,47.0667263552011
3568.5,47.1466872863422
3568.75,47.2266482174833
3569,47.3066091486244
3569.25,47.3865700797657
3569.5,47.4665310109068
3569.75,47.5464919420479
3570,47.626452873189
3570.25,47.7064138043301
3570.5,47.7863747354713
3570.75,47.8663356666124
3571,47.9462965977535
3571.25,48.0262575288946
3571.5,48.1062184600359
3571.75,48.186179391177
3572,48.2661403223181
3572.25,48.2654240599056
3572.5,48.2054533615498
3572.75,48.1454826631938
3573,48.085511964838
3573.25,48.0255412664822
3573.5,47.9655705681263
3573.75,47.9055998697704
3574,47.8456291714146
3574.25,47.7856584730588
3574.5,47.7256877747029
3574.75,47.6657170763471
3575,47.6057463779912
3575.25,47.5457756796353
3575.5,47.4858049812795
3575.75,47.4258342829237
3576,47.3658635845677
3576.25,47.3058928862119
3576.5,47.2459221878561
3576.75,47.1859514895003
3577,47.1259807911444
3577.25,47.1169949536058
3577.5,47.1469803027837
3577.75,47.1769656519616
3578,47.2069510011395
3578.25,47.2369363503175
3578.5,47.2669216994954
3578.75,47.2969070486733
3579,47.3268923978512
3579.25,47.3568777470291
3579.5,47.3868630962071
3579.75,47.416848445385
3580,47.4468337945629
3580.25,47.4768191437408
3580.5,47.5068044929187
3580.75,47.5367898420967
3581,47.5667751912746
3581.25,47.5967605404525
3581.5,47.6267458896305
3581.75,47.6567312388084
3582,47.6867165879863
3582.25,47.7695914048511
3582.5,47.894530359759
3582.75,48.019469314667
3583,48.1444082695752
3583.25,48.2693472244832
3583.5,48.3942861793912
3583.75,48.5192251342991
3584,48.6441640892073
3584.25,48.7691030441153
3584.5,48.8940419990233
3584.75,49.0189809539313
3585,49.1439199088392
3585.25,49.2688588637474
3585.5,49.3937978186554
3585.75,49.5187367735634
3586,49.6436757284714
3586.25,49.7686146833796
3586.5,49.8935536382875
3586.75,50.0184925931955
3587,50.1434315481035
3587.25,50.1781214390363
3587.5,50.1381409734657
3587.75,50.0981605078952
3588,50.0581800423246
3588.25,50.0181995767541
3588.5,49.9782191111834
3588.75,49.9382386456129
3589,49.8982581800423
3589.25,49.8582777144718
3589.5,49.8182972489012
3589.75,49.7783167833306
3590,49.73833631776
3590.25,49.6983558521895
3590.5,49.6583753866189
3590.75,49.6183949210483
3591,49.5784144554778
3591.25,49.5384339899072
3591.5,49.4984535243367
3591.75,49.4584730587661
3592,49.4184925931955
3592.25,49.4026859840469
3592.5,49.4076835422432
3592.75,49.4126811004395
3593,49.4176786586359
3593.25,49.4226762168322
3593.5,49.4276737750285
3593.75,49.4326713332248
3594,49.4376688914211
3594.25,49.4426664496175
3594.5,49.4476640078138
3594.75,49.4526615660101
3595,49.4576591242064
3595.25,49.4626566824027
3595.5,49.4676542405991
3595.75,49.4726517987954
3596,49.4776493569917
3596.25,49.482646915188
3596.5,49.4876444733843
3596.75,49.4926420315807
3597,49.497639589777
3597.25,49.4050626729612
3597.5,49.2251505778934
3597.75,49.0452384828259
3598,48.8653263877584
3598.25,48.6854142926909
3598.5,48.5055021976234
3598.75,48.3255901025556
3599,48.1456780074881
3599.25,47.9657659124207
3599.5,47.7858538173532
3599.75,47.6059417222854
3600,47.4260296272179
3600.25,47.2461175321504
3600.5,47.0662054370829
3600.75,46.8862933420154
3601,46.7063812469476
3601.25,46.5264691518801
3601.5,46.3465570568126
3601.75,46.1666449617451
3602,45.9867328666773
3602.25,45.9051766237994
3602.5,45.9151717401921
3602.75,45.9251668565847
3603,45.9351619729774
3603.25,45.94515708937
3603.5,45.9551522057627
3603.75,45.9651473221553
3604,45.9751424385479
3604.25,45.9851375549406
3604.5,45.9951326713332
3604.75,46.0051277877259
3605,46.0151229041185
3605.25,46.0251180205111
3605.5,46.0351131369038
3605.75,46.0451082532964
3606,46.0551033696891
