2011,32.7724200802237
2011.25,32.8173817916616
2011.5,32.8623435030996
2011.75,32.9073052145375
2012,32.9522669259754
2012.25,32.9972286374134
2012.5,33.0421903488513
2012.75,33.0871520602893
2013,33.1321137717272
2013.25,33.1770754831652
2013.5,33.2220371946031
2013.75,33.2669989060411
2014,33.311960617479
2014.25,33.356922328917
2014.5,33.4018840403549
2014.75,33.4468457517929
2015,33.4918074632308
2015.25,33.5367691746688
2015.5,33.5817308861067
2015.75,33.6
2016,33.6
2016.25,33.6
2016.5,33.6
2016.75,33.6
2017,33.6
2017.25,33.6
2017.5,33.6
2017.75,33.6
2018,33.6
2018.25,33.6
2018.5,33.6
2018.75,33.6
2019,33.6
2019.25,33.6
2019.5,33.6
2019.75,33.6
2020,33.6
2020.25,33.6
2020.5,33.6
2020.75,33.5971192415218
2021,33.5921234958065
2021.25,33.5871277500912
2021.5,33.5821320043758
2021.75,33.5771362586605
2022,33.5721405129452
2022.25,33.5671447672299
2022.5,33.5621490215145
2022.75,33.5571532757992
2023,33.5521575300839
2023.25,33.5471617843685
2023.5,33.5421660386532
2023.75,33.5371702929379
2024,33.5321745472226
2024.25,33.5271788015072
2024.5,33.5221830557919
2024.75,33.5171873100766
2025,33.5121915643613
2025.25,33.5071958186459
2025.5,33.5022000729306
2025.75,33.5223653822779
2026,33.5623313480005
2026.25,33.6022973137231
2026.5,33.6422632794457
2026.75,33.6822292451683
2027,33.722195210891
2027.25,33.7621611766136
2027.5,33.8021271423362
2027.75,33.8420931080588
2028,33.8820590737814
2028.25,33.9220250395041
2028.5,33.9619910052267
2028.75,34.0019569709493
2029,34.0419229366719
2029.25,34.0818889023945
2029.5,34.1218548681172
2029.75,34.1618208338398
2030,34.2017867995624
2030.25,34.241752765285
2030.5,34.2817187310077
2030.75,34.2918682387261
2031,34.2768810015802
2031.25,34.2618937644342
2031.5,34.2469065272882
2031.75,34.2319192901422
2032,34.2169320529962
2032.25,34.2019448158502
2032.5,34.1869575787043
2032.75,34.1719703415583
2033,34.1569831044123
2033.25,34.1419958672663
2033.5,34.1270086301203
2033.75,34.1120213929743
2034,34.0970341558284
2034.25,34.0820469186824
2034.5,34.0670596815364
2034.75,34.0520724443904
2035,34.0370852072444
2035.25,34.0220979700985
2035.5,34.0071107329525
2035.75,33.9737449860216
2036,33.9237875288684
2036.25,33.8738300717151
2036.5,33.8238726145618
2036.75,33.7739151574085
2037,33.7239577002553
2037.25,33.674000243102
2037.5,33.6240427859487
2037.75,33.5740853287954
2038,33.5241278716422
2038.25,33.4741704144889
2038.5,33.4242129573356
2038.75,33.3742555001823
2039,33.3242980430291
2039.25,33.2743405858758
2039.5,33.2243831287225
2039.75,33.1744256715692
2040,33.1244682144159
2040.25,33.0745107572627
2040.5,33.0245533001094
2040.75,32.9872979214781
2041,32.9623191929014
2041.25,32.9373404643248
2041.5,32.9123617357481
2041.75,32.8873830071715
2042,32.8624042785949
2042.25,32.8374255500182
2042.5,32.8124468214416
2042.75,32.787468092865
2043,32.7624893642883
2043.25,32.7375106357117
2043.5,32.7125319071351
2043.75,32.6875531785584
2044,32.6625744499818
2044.25,32.6375957214051
2044.5,32.6126169928285
2044.75,32.5876382642519
2045,32.5626595356752
2045.25,32.5376808070986
2045.5,32.5127020785219
2045.75,32.5343746201532
2046,32.6043150601677
2046.25,32.6742555001823
2046.5,32.7441959401969
2046.75,32.8141363802115
2047,32.8840768202261
2047.25,32.9540172602407
2047.5,33.0239577002553
2047.75,33.0938981402699
2048,33.1638385802844
2048.25,33.233779020299
2048.5,33.3037194603136
2048.75,33.3736599003282
2049,33.4436003403427
2049.25,33.5135407803573
2049.5,33.5834812203719
2049.75,33.6534216603865
2050,33.7233621004011
2050.25,33.7933025404157
2050.5,33.8632429804303
2050.75,33.90948097727
2051,33.9294639601313
2051.25,33.9494469429926
2051.5,33.9694299258539
2051.75,33.9894129087152
2052,34.0093958915765
2052.25,34.0293788744378
2052.5,34.0493618572991
2052.75,34.0693448401604
2053,34.0893278230218
2053.25,34.1093108058831
2053.5,34.1292937887444
2053.75,34.1492767716057
2054,34.169259754467
2054.25,34.1892427373283
2054.5,34.2092257201896
2054.75,34.2292087030509
2055,34.2491916859122
2055.25,34.2691746687735
2055.5,34.2891576516348
2055.75,34.2794335723836
2056,34.2344718609457
2056.25,34.1895101495077
2056.5,34.1445484380698
2056.75,34.0995867266318
2057,34.0546250151939
2057.25,34.0096633037559
2057.5,33.964701592318
2057.75,33.91973988088
2058,33.8747781694421
2058.25,33.8298164580041
2058.5,33.7848547465662
2058.75,33.7398930351282
2059,33.6949313236903
2059.25,33.6499696122523
2059.5,33.6050079008144
2059.75,33.5600461893764
2060,33.5150844779385
2060.25,33.4701227665005
2060.5,33.4251610550626
2060.75,33.3911997082776
2061,33.3712167254163
2061.25,33.351233742555
2061.5,33.3312507596937
2061.75,33.3112677768324
2062,33.2912847939711
2062.25,33.2713018111098
2062.5,33.2513188282485
2062.75,33.2313358453872
2063,33.2113528625258
2063.25,33.1913698796645
2063.5,33.1713868968032
2063.75,33.1514039139419
2064,33.1314209310806
2064.25,33.1114379482193
2064.5,33.091454965358
2064.75,33.0714719824967
2065,33.0514889996353
2065.25,33.031506016774
2065.5,33.0115230339127
2065.75,33
2066,33
2066.25,33
2066.5,33
2066.75,33
2067,33
2067.25,33
2067.5,33
2067.75,33
2068,33
2068.25,33
2068.5,33
2068.75,33
2069,33
2069.25,33
2069.5,33
2069.75,33
2070,33
2070.25,33
2070.5,33
2070.75,33.0223289169807
2071,33.0772821198493
2071.25,33.1322353227179
2071.5,33.1871885255865
2071.75,33.2421417284551
2072,33.2970949313237
2072.25,33.3520481341923
2072.5,33.4070013370609
2072.75,33.4619545399295
2073,33.5169077427981
2073.25,33.5718609456667
2073.5,33.6268141485353
2073.75,33.6817673514039
2074,33.7367205542725
2074.25,33.7916737571411
2074.5,33.8466269600097
2074.75,33.9015801628783
2075,33.9565333657469
2075.25,34.0114865686155
2075.5,34.0664397714841
2075.75,34.1116688951015
2076,34.1416433693934
2076.25,34.1716178436854
2076.5,34.2015923179774
2076.75,34.2315667922694
2077,34.2615412665613
2077.25,34.2915157408533
2077.5,34.3214902151453
2077.75,34.3514646894372
2078,34.3814391637292
2078.25,34.4114136380212
2078.5,34.4413881123131
2078.75,34.4713625866051
2079,34.5013370608971
2079.25,34.531311535189
2079.5,34.561286009481
2079.75,34.5912604837729
2080,34.6212349580649
2080.25,34.6512094323569
2080.5,34.6811839066488
2080.75,34.7055791904704
2081,34.7205664276164
2081.25,34.7355536647624
2081.5,34.7505409019083
2081.75,34.7655281390543
2082,34.7805153762003
2082.25,34.7955026133463
2082.5,34.8104898504923
2082.75,34.8254770876383
2083,34.8404643247842
2083.25,34.8554515619302
2083.5,34.8704387990762
2083.75,34.8854260362222
2084,34.9004132733682
2084.25,34.9154005105142
2084.5,34.9303877476601
2084.75,34.9453749848061
2085,34.9603622219521
2085.25,34.9753494590981
2085.5,34.9903366962441
2085.75,34.9964507110733
2086,34.9864592196426
2086.25,34.976467728212
2086.5,34.9664762367813
2086.75,34.9564847453507
2087,34.94649325392
2087.25,34.9365017624894
2087.5,34.9265102710587
2087.75,34.9165187796281
2088,34.9065272881974
2088.25,34.8965357967667
2088.5,34.8865443053361
2088.75,34.8765528139054
2089,34.8665613224748
2089.25,34.8565698310441
2089.5,34.8465783396135
2089.75,34.8365868481828
2090,34.8265953567522
2090.25,34.8166038653215
2090.5,34.8066123738908
2090.75,34.7814148535311
2091,34.7264616506625
2091.25,34.6715084477938
2091.5,34.6165552449252
2091.75,34.5616020420566
2092,34.506648839188
2092.25,34.4516956363194
2092.5,34.3967424334508
2092.75,34.3417892305822
2093,34.2868360277136
2093.25,34.2318828248451
2093.5,34.1769296219764
2093.75,34.1219764191078
2094,34.0670232162392
2094.25,34.0120700133706
2094.5,33.957116810502
2094.75,33.9021636076334
2095,33.8472104047648
2095.25,33.7922572018962
2095.5,33.7373039990276
2095.75,33.6839552692355
2096,33.6339978120822
2096.25,33.5840403549289
2096.5,33.5340828977756
2096.75,33.4841254406224
2097,33.4341679834691
2097.25,33.3842105263158
2097.5,33.3342530691625
2097.75,33.2842956120092
2098,33.234338154856
2098.25,33.1843806977027
2098.5,33.1344232405494
2098.75,33.0844657833961
2099,33.0345083262429
2099.25,32.9845508690896
2099.5,32.9345934119363
2099.75,32.8846359547831
2100,32.8346784976298
2100.25,32.7847210404765
2100.5,32.7347635833232
2100.75,32.698480612617
2101,32.6934848669017
2101.25,32.6884891211863
2101.5,32.683493375471
2101.75,32.6784976297557
2102,32.6735018840404
2102.25,32.668506138325
2102.5,32.6635103926097
2102.75,32.6585146468944
2103,32.653518901179
2103.25,32.6485231554637
2103.5,32.6435274097484
2103.75,32.6385316640331
2104,32.6335359183177
2104.25,32.6285401726024
2104.5,32.6235444268871
2104.75,32.6185486811718
2105,32.6135529354564
2105.25,32.6085571897411
2105.5,32.6035614440258
2105.75,32.6157773185852
2106,32.6707305214537
2106.25,32.7256837243223
2106.5,32.7806369271909
2106.75,32.8355901300595
2107,32.8905433329281
2107.25,32.9454965357967
2107.5,33.0004497386654
2107.75,33.055402941534
2108,33.1103561444026
2108.25,33.1653093472712
2108.5,33.2202625501398
2108.75,33.2752157530084
2109,33.330168955877
2109.25,33.3851221587456
2109.5,33.4400753616142
2109.75,33.4950285644828
2110,33.5499817673514
2110.25,33.60493497022
2110.5,33.6598881730886
2110.75,33.7526194238483
2111,33.9474535067461
2111.25,34.1422875896439
2111.5,34.3371216725417
2111.75,34.5319557554394
2112,34.7267898383372
2112.25,34.921623921235
2112.5,35.1164580041326
2112.75,35.3112920870304
2113,35.5061261699282
2113.25,35.700960252826
2113.5,35.8957943357238
2113.75,36.0906284186215
2114,36.2854625015193
2114.25,36.4802965844171
2114.5,36.6751306673149
2114.75,36.8699647502127
2115,37.0647988331104
2115.25,37.2596329160082
2115.5,37.454466998906
2115.75,37.6379239090798
2116,37.7877962805397
2116.25,37.9376686519995
2116.5,38.0875410234593
2116.75,38.2374133949192
2117,38.387285766379
2117.25,38.5371581378388
2117.5,38.6870305092987
2117.75,38.8369028807585
2118,38.9867752522183
2118.25,39.1366476236782
2118.5,39.286519995138
2118.75,39.4363923665978
2119,39.5862647380575
2119.25,39.7361371095174
2119.5,39.8860094809772
2119.75,40.035881852437
2120,40.1857542238969
2120.25,40.3356265953567
2120.5,40.4854989668165
2120.75,40.5728819739881
2121,40.4579798225356
2121.25,40.3430776710831
2121.5,40.2281755196305
2121.75,40.113273368178
2122,39.9983712167254
2122.25,39.8834690652729
2122.5,39.7685669138204
2122.75,39.6536647623678
2123,39.5387626109153
2123.25,39.4238604594627
2123.5,39.3089583080102
2123.75,39.1940561565577
2124,39.0791540051051
2124.25,38.9642518536526
2124.5,38.8493497022001
2124.75,38.7344475507475
2125,38.619545399295
2125.25,38.5046432478425
2125.5,38.38974109639
2125.75,38.3087516713261
2126,38.3487176370487
2126.25,38.3886836027713
2126.5,38.428649568494
2126.75,38.4686155342166
2127,38.5085814999392
2127.25,38.5485474656618
2127.5,38.5885134313844
2127.75,38.6284793971071
2128,38.6684453628297
2128.25,38.7084113285523
2128.5,38.7483772942749
2128.75,38.7883432599976
2129,38.8283092257202
2129.25,38.8682751914428
2129.5,38.9082411571654
2129.75,38.9482071228881
2130,38.9881730886107
2130.25,39.0281390543333
2130.5,39.0681050200559
2130.75,39.096973380333
2131,39.0819861431871
2131.25,39.0669989060411
2131.5,39.0520116688951
2131.75,39.0370244317491
2132,39.0220371946031
2132.25,39.0070499574572
2132.5,38.9920627203112
2132.75,38.9770754831652
2133,38.9620882460192
2133.25,38.9471010088732
2133.5,38.9321137717272
2133.75,38.9171265345813
2134,38.9021392974353
2134.25,38.8871520602893
2134.5,38.8721648231433
2134.75,38.8571775859973
2135,38.8421903488513
2135.25,38.8272031117054
2135.5,38.8122158745594
2135.75,38.8
2136,38.8
2136.25,38.8
2136.5,38.8
2136.75,38.8
2137,38.8
2137.25,38.8
2137.5,38.8
2137.75,38.8
2138,38.8
2138.25,38.8
2138.5,38.8
2138.75,38.8
2139,38.8
2139.25,38.8
2139.5,38.8
2139.75,38.8
2140,38.8
2140.25,38.8
2140.5,38.8
2140.75,38.7974838944937
2141,38.7824966573478
2141.25,38.7675094202018
2141.5,38.7525221830558
2141.75,38.7375349459098
2142,38.7225477087638
2142.25,38.7075604716178
2142.5,38.6925732344719
2142.75,38.6775859973259
2143,38.6625987601799
2143.25,38.6476115230339
2143.5,38.6326242858879
2143.75,38.6176370487419
2144,38.602649811596
2144.25,38.58766257445
2144.5,38.572675337304
2144.75,38.557688100158
2145,38.542700863012
2145.25,38.5277136258661
2145.5,38.5127263887201
2145.75,38.4947246870062
2146,38.4597544669989
2146.25,38.4247842469916
2146.5,38.3898140269843
2146.75,38.354843806977
2147,38.3198735869697
2147.25,38.2849033669624
2147.5,38.2499331469552
2147.75,38.2149629269479
2148,38.1799927069406
2148.25,38.1450224869333
2148.5,38.110052266926
2148.75,38.0750820469187
2149,38.0401118269114
2149.25,38.0051416069041
2149.5,37.9701713868968
2149.75,37.9352011668895
2150,37.9002309468822
2150.25,37.8652607268749
2150.5,37.8302905068676
2150.75,37.7953202868604
2151,37.7603500668531
2151.25,37.7253798468458
2151.5,37.6904096268385
2151.75,37.6554394068312
2152,37.6204691868239
2152.25,37.5854989668166
2152.5,37.5505287468093
2152.75,37.515558526802
2153,37.4805883067947
2153.25,37.4456180867874
2153.5,37.4106478667801
2153.75,37.3756776467728
2154,37.3407074267655
2154.25,37.3057372067582
2154.5,37.2707669867509
2154.75,37.2357967667437
2155,37.2008265467364
2155.25,37.1658563267291
2155.5,37.1308861067218
2155.75,37.1081682265711
2156,37.1781086665856
2156.25,37.2480491066002
2156.5,37.3179895466148
2156.75,37.3879299866294
2157,37.457870426644
2157.25,37.5278108666585
2157.5,37.5977513066731
2157.75,37.6676917466877
2158,37.7376321867023
2158.25,37.8075726267169
2158.5,37.8775130667315
2158.75,37.9474535067461
2159,38.0173939467606
2159.25,38.0873343867752
2159.5,38.1572748267898
2159.75,38.2272152668044
2160,38.297155706819
2160.25,38.3670961468336
2160.5,38.4370365868482
2160.75,38.5004983590616
2161,38.505494104777
2161.25,38.5104898504923
2161.5,38.5154855962076
2161.75,38.5204813419229
2162,38.5254770876383
2162.25,38.5304728333536
2162.5,38.5354685790689
2162.75,38.5404643247842
2163,38.5454600704996
2163.25,38.5504558162149
2163.5,38.5554515619302
2163.75,38.5604473076456
2164,38.5654430533609
2164.25,38.5704387990762
2164.5,38.5754345447915
2164.75,38.5804302905069
2165,38.5854260362222
2165.25,38.5904217819375
2165.5,38.5954175276528
2165.75,38.6008265467364
2166,38.610818038167
2166.25,38.6208095295977
2166.5,38.6308010210283
2166.75,38.640792512459
2167,38.6507840038896
2167.25,38.6607754953203
2167.5,38.6707669867509
2167.75,38.6807584781816
2168,38.6907499696122
2168.25,38.7007414610429
2168.5,38.7107329524736
2168.75,38.7207244439042
2169,38.7307159353349
2169.25,38.7407074267655
2169.5,38.7506989181962
2169.75,38.7606904096268
2170,38.7706819010575
2170.25,38.7806733924881
2170.5,38.7906648839188
2170.75,38.8006563753494
2171,38.8106478667801
2171.25,38.8206393582108
2171.5,38.8306308496414
2171.75,38.8406223410721
2172,38.8506138325027
2172.25,38.8606053239334
2172.5,38.870596815364
2172.75,38.8805883067947
2173,38.8905797982254
2173.25,38.900571289656
2173.5,38.9105627810867
2173.75,38.9205542725173
2174,38.930545763948
2174.25,38.9405372553786
2174.5,38.9505287468093
2174.75,38.9605202382399
2175,38.9705117296706
2175.25,38.9805032211013
2175.5,38.9904947125319
2175.75,38.9975689801872
2176,38.9476115230339
2176.25,38.8976540658806
2176.5,38.8476966087274
2176.75,38.7977391515741
2177,38.7477816944208
2177.25,38.6978242372676
2177.5,38.6478667801143
2177.75,38.597909322961
2178,38.5479518658077
2178.25,38.4979944086544
2178.5,38.4480369515012
2178.75,38.3980794943479
2179,38.3481220371946
2179.25,38.2981645800413
2179.5,38.2482071228881
2179.75,38.1982496657348
2180,38.1482922085815
2180.25,38.0983347514282
2180.5,38.048377294275
2180.75,38.0023702443175
2181,38.0773064300474
2181.25,38.1522426157773
2181.5,38.2271788015072
2181.75,38.3021149872372
2182,38.3770511729671
2182.25,38.451987358697
2182.5,38.5269235444269
2182.75,38.6018597301568
2183,38.6767959158867
2183.25,38.7517321016166
2183.5,38.8266682873465
2183.75,38.9016044730764
2184,38.9765406588063
2184.25,39.0514768445363
2184.5,39.1264130302662
2184.75,39.2013492159961
2185,39.276285401726
2185.25,39.3512215874559
2185.5,39.4261577731858
2185.75,39.5
2186,39.5
2186.25,39.5
2186.5,39.5
2186.75,39.5
2187,39.5
2187.25,39.5
2187.5,39.5
2187.75,39.5
2188,39.5
2188.25,39.5
2188.5,39.5
2188.75,39.5
2189,39.5
2189.25,39.5
2189.5,39.5
2189.75,39.5
2190,39.5
2190.25,39.5
2190.5,39.5
2190.75,39.5
2191,39.480065637535
2191.25,39.4600826546736
2191.5,39.4400996718123
2191.75,39.420116688951
2192,39.4001337060897
2192.25,39.3801507232284
2192.5,39.3601677403671
2192.75,39.3401847575058
2193,39.3202017746445
2193.25,39.3002187917832
2193.5,39.2802358089218
2193.75,39.2602528260605
2194,39.2402698431992
2194.25,39.2202868603379
2194.5,39.2003038774766
2194.75,39.1803208946153
2195,39.160337911754
2195.25,39.1403549288927
2195.5,39.1203719460314
2195.75,39.1003889631701
2196,38.9922328916981
2196.25,38.8823264859609
2196.5,38.7724200802237
2196.75,38.6625136744865
2197,38.5526072687493
2197.25,38.4427008630121
2197.5,38.3327944572749
2197.75,38.2228880515377
2198,38.1129816458004
2198.25,38.0030752400632
2198.5,37.893168834326
2198.75,37.7832624285888
2199,37.6733560228516
2199.25,37.5634496171144
2199.5,37.4535432113772
2199.75,37.34363680564
2200,37.2337303999028
2200.25,37.1238239941655
2200.5,37.0139175884283
2200.75,36.9040111826911
2201,36.9240670961468
2201.25,36.9490458247235
2201.5,36.9740245533001
2201.75,36.9990032818768
2202,37.0239820104534
2202.25,37.04896073903
2202.5,37.0739394676066
2202.75,37.0989181961833
2203,37.1238969247599
2203.25,37.1488756533366
2203.5,37.1738543819132
2203.75,37.1988331104898
2204,37.2238118390665
2204.25,37.2487905676431
2204.5,37.2737692962198
2204.75,37.2987480247964
2205,37.323726753373
2205.25,37.3487054819497
2205.5,37.3736842105263
2205.75,37.3986629391029
2206,37.4141850006078
2206.25,37.4291722377537
2206.5,37.4441594748997
2206.75,37.4591467120457
2207,37.4741339491917
2207.25,37.4891211863377
2207.5,37.5041084234837
2207.75,37.5190956606296
2208,37.5340828977756
2208.25,37.5490701349216
2208.5,37.5640573720676
2208.75,37.5790446092136
2209,37.5940318463595
2209.25,37.6090190835055
2209.5,37.6240063206515
2209.75,37.6389935577975
2210,37.6539807949435
2210.25,37.6689680320895
2210.5,37.6839552692354
2210.75,37.6989425063814
2211,37.7
2211.25,37.7
2211.5,37.7
2211.75,37.7
2212,37.7
2212.25,37.7
2212.5,37.7
2212.75,37.7
2213,37.7
2213.25,37.7
2213.5,37.7
2213.75,37.7
2214,37.7
2214.25,37.7
2214.5,37.7
2214.75,37.7
2215,37.7
2215.25,37.7
2215.5,37.7
2215.75,37.7
2216,37.695441837851
2216.25,37.6904460921357
2216.5,37.6854503464203
2216.75,37.680454600705
2217,37.6754588549897
2217.25,37.6704631092743
2217.5,37.665467363559
2217.75,37.6604716178437
2218,37.6554758721284
2218.25,37.650480126413
2218.5,37.6454843806977
2218.75,37.6404886349824
2219,37.635492889267
2219.25,37.6304971435517
2219.5,37.6255013978364
2219.75,37.6205056521211
2220,37.6155099064057
2220.25,37.6105141606904
2220.5,37.6055184149751
2220.75,37.6005226692598
2221,37.6044730764556
2221.25,37.6094688221709
2221.5,37.6144645678862
2221.75,37.6194603136016
2222,37.6244560593169
2222.25,37.6294518050322
2222.5,37.6344475507475
2222.75,37.6394432964629
2223,37.6444390421782
2223.25,37.6494347878935
2223.5,37.6544305336089
2223.75,37.6594262793242
2224,37.6644220250395
2224.25,37.6694177707548
2224.5,37.6744135164702
2224.75,37.6794092621855
2225,37.6844050079008
2225.25,37.6894007536161
2225.5,37.6943964993315
2225.75,37.6993922450468
2226,37.6912240184758
2226.25,37.6812325270451
2226.5,37.6712410356144
2226.75,37.6612495441838
2227,37.6512580527531
2227.25,37.6412665613225
2227.5,37.6312750698918
2227.75,37.6212835784612
2228,37.6112920870305
2228.25,37.6013005955999
2228.5,37.5913091041692
2228.75,37.5813176127386
2229,37.5713261213079
2229.25,37.5613346298772
2229.5,37.5513431384466
2229.75,37.5413516470159
2230,37.5313601555853
2230.25,37.5213686641546
2230.5,37.511377172724
2230.75,37.5013856812933
2231,37.4225477087638
2231.25,37.3326242858879
2231.5,37.242700863012
2231.75,37.1527774401361
2232,37.0628540172602
2232.25,36.9729305943843
2232.5,36.8830071715084
2232.75,36.7930837486325
2233,36.7031603257566
2233.25,36.6132369028807
2233.5,36.5233134800048
2233.75,36.4333900571289
2234,36.3434666342531
2234.25,36.2535432113772
2234.5,36.1636197885013
2234.75,36.0736963656254
2235,35.9837729427495
2235.25,35.8938495198736
2235.5,35.8039260969977
2235.75,35.7140026741218
2236,35.7168712775009
2236.25,35.7368542603622
2236.5,35.7568372432235
2236.75,35.7768202260848
2237,35.7968032089462
2237.25,35.8167861918075
2237.5,35.8367691746688
2237.75,35.8567521575301
2238,35.8767351403914
2238.25,35.8967181232527
2238.5,35.916701106114
2238.75,35.9366840889753
2239,35.9566670718366
2239.25,35.9766500546979
2239.5,35.9966330375593
2239.75,36.0166160204206
2240,36.0365990032819
2240.25,36.0565819861432
2240.5,36.0765649690045
2240.75,36.0965479518658
2241,36.1950528746809
2241.25,36.3099550261334
2241.5,36.4248571775859
2241.75,36.5397593290385
2242,36.654661480491
2242.25,36.7695636319436
2242.5,36.8844657833961
2242.75,36.9993679348486
2243,37.1142700863012
2243.25,37.2291722377537
2243.5,37.3440743892062
2243.75,37.4589765406588
2244,37.5738786921113
2244.25,37.6887808435639
2244.5,37.8036829950164
2244.75,37.9185851464689
2245,38.0334872979215
2245.25,38.148389449374
2245.5,38.2632916008266
2245.75,38.3781937522791
2246,38.412142943965
2246.25,38.427130181111
2246.5,38.442117418257
2246.75,38.4571046554029
2247,38.4720918925489
2247.25,38.4870791296949
2247.5,38.5020663668409
2247.75,38.5170536039869
2248,38.5320408411328
2248.25,38.5470280782788
2248.5,38.5620153154248
2248.75,38.5770025525708
2249,38.5919897897168
2249.25,38.6069770268628
2249.5,38.6219642640088
2249.75,38.6369515011547
2250,38.6519387383007
2250.25,38.6669259754467
2250.5,38.6819132125927
2250.75,38.6969004497387
2251,38.7356630606539
2251.25,38.7806247720919
2251.5,38.8255864835298
2251.75,38.8705481949678
2252,38.9155099064057
2252.25,38.9604716178437
2252.5,39.0054333292816
2252.75,39.0503950407196
2253,39.0953567521575
2253.25,39.1403184635954
2253.5,39.1852801750334
2253.75,39.2302418864714
2254,39.2752035979093
2254.25,39.3201653093473
2254.5,39.3651270207852
2254.75,39.4100887322232
2255,39.4550504436611
2255.25,39.5000121550991
2255.5,39.544973866537
2255.75,39.5899355779749
2256,39.5612252339857
2256.25,39.5112677768324
2256.5,39.4613103196791
2256.75,39.4113528625258
2257,39.3613954053726
2257.25,39.3114379482193
2257.5,39.261480491066
2257.75,39.2115230339127
2258,39.1615655767595
2258.25,39.1116081196062
2258.5,39.0616506624529
2258.75,39.0116932052996
2259,38.9617357481463
2259.25,38.9117782909931
2259.5,38.8618208338398
2259.75,38.8118633766866
2260,38.7619059195333
2260.25,38.71194846238
2260.5,38.6619910052267
2260.75,38.6120335480734
2261,38.6986021636076
2261.25,38.8284915522061
2261.5,38.9583809408046
2261.75,39.0882703294031
2262,39.2181597180017
2262.25,39.3480491066002
2262.5,39.4779384951987
2262.75,39.6078278837972
2263,39.7377172723957
2263.25,39.8676066609943
2263.5,39.9974960495928
2263.75,40.1273854381913
2264,40.2572748267898
2264.25,40.3871642153884
2264.5,40.5170536039869
2264.75,40.6469429925854
2265,40.7768323811839
2265.25,40.9067217697824
2265.5,41.036611158381
2265.75,41.1665005469795
2266,41.2481949677889
2266.25,41.3131396620882
2266.5,41.3780843563875
2266.75,41.4430290506867
2267,41.507973744986
2267.25,41.5729184392853
2267.5,41.6378631335845
2267.75,41.7028078278838
2268,41.767752522183
2268.25,41.8326972164823
2268.5,41.8976419107816
2268.75,41.9625866050808
2269,42.0275312993801
2269.25,42.0924759936793
2269.5,42.1574206879786
2269.75,42.2223653822779
2270,42.2873100765771
2270.25,42.3522547708764
2270.5,42.4171994651756
2270.75,42.4821441594749
2271,42.5724443904218
2271.25,42.6723593047283
2271.5,42.7722742190349
2271.75,42.8721891333415
2272,42.972104047648
2272.25,43.0720189619546
2272.5,43.171933876261
2272.75,43.2718487905676
2273,43.3717637048741
2273.25,43.4716786191807
2273.5,43.5715935334872
2273.75,43.6715084477938
2274,43.7714233621004
2274.25,43.8713382764069
2274.5,43.9712531907135
2274.75,44.07116810502
2275,44.1710830193266
2275.25,44.2709979336331
2275.5,44.3709128479397
2275.75,44.4708277622462
2276,44.4858514646894
2276.25,44.4658684818281
2276.5,44.4458854989668
2276.75,44.4259025161055
2277,44.4059195332442
2277.25,44.3859365503829
2277.5,44.3659535675216
2277.75,44.3459705846603
2278,44.325987601799
2278.25,44.3060046189376
2278.5,44.2860216360763
2278.75,44.266038653215
2279,44.2460556703537
2279.25,44.2260726874924
2279.5,44.2060897046311
2279.75,44.1861067217698
2280,44.1661237389085
2280.25,44.1461407560472
2280.5,44.1261577731859
2280.75,44.1061747903246
2281,44.0551233742555
2281.25,43.9901786799563
2281.5,43.925233985657
2281.75,43.8602892913577
2282,43.7953445970585
2282.25,43.7303999027592
2282.5,43.66545520846
2282.75,43.6005105141607
2283,43.5355658198614
2283.25,43.4706211255622
2283.5,43.4056764312629
2283.75,43.3407317369637
2284,43.2757870426644
2284.25,43.2108423483651
2284.5,43.1458976540659
2284.75,43.0809529597666
2285,43.0160082654673
2285.25,42.9510635711681
2285.5,42.8861188768689
2285.75,42.8211741825696
2286,42.7797982253555
2286.25,42.7498237510636
2286.5,42.7198492767716
2286.75,42.6898748024797
2287,42.6599003281877
2287.25,42.6299258538957
2287.5,42.5999513796038
2287.75,42.5699769053118
2288,42.5400024310198
2288.25,42.5100279567279
2288.5,42.4800534824359
2288.75,42.4500790081439
2289,42.420104533852
2289.25,42.39013005956
2289.5,42.360155585268
2289.75,42.3301811109761
2290,42.3002066366841
2290.25,42.2702321623921
2290.5,42.2402576881002
2290.75,42.2102832138082
2291,42.111389327823
2291.25,41.9765041935092
2291.5,41.8416190591953
2291.75,41.7067339248816
2292,41.5718487905677
2292.25,41.4369636562539
2292.5,41.30207852194
2292.75,41.1671933876262
2293,41.0323082533123
2293.25,40.8974231189985
2293.5,40.7625379846846
2293.75,40.6276528503708
2294,40.4927677160569
2294.25,40.3578825817431
2294.5,40.2229974474292
2294.75,40.0881123131154
2295,39.9532271788015
2295.25,39.8183420444877
2295.5,39.6834569101738
2295.75,39.54857177586
2296,39.5031967910538
2296.25,39.5081925367692
2296.5,39.5131882824845
2296.75,39.5181840281998
2297,39.5231797739152
2297.25,39.5281755196305
2297.5,39.5331712653458
2297.75,39.5381670110611
2298,39.5431627567765
2298.25,39.5481585024918
2298.5,39.5531542482071
2298.75,39.5581499939224
2299,39.5631457396378
2299.25,39.5681414853531
2299.5,39.5731372310684
2299.75,39.5781329767838
2300,39.5831287224991
2300.25,39.5881244682144
2300.5,39.5931202139297
2300.75,39.5981159596451
2301,39.5439893035128
2301.25,39.4540658806369
2301.5,39.364142457761
2301.75,39.2742190348851
2302,39.1842956120092
2302.25,39.0943721891333
2302.5,39.0044487662574
2302.75,38.9145253433815
2303,38.8246019205057
2303.25,38.7346784976297
2303.5,38.6447550747538
2303.75,38.5548316518779
2304,38.464908229002
2304.25,38.3749848061262
2304.5,38.2850613832503
2304.75,38.1951379603744
2305,38.1052145374985
2305.25,38.0152911146226
2305.5,37.9253676917467
2305.75,37.8354442688708
2306,37.8756654916737
2306.25,38.0005591345569
2306.5,38.1254527774401
2306.75,38.2503464203233
2307,38.3752400632065
2307.25,38.5001337060897
2307.5,38.6250273489729
2307.75,38.7499209918561
2308,38.8748146347393
2308.25,38.9997082776224
2308.5,39.1246019205056
2308.75,39.2494955633888
2309,39.374389206272
2309.25,39.4992828491552
2309.5,39.6241764920384
2309.75,39.7490701349216
2310,39.8739637778048
2310.25,39.998857420688
2310.5,40.1237510635712
2310.75,40.2486447064544
2311,40.2382277865565
2311.25,40.1333171265346
2311.5,40.0284064665128
2311.75,39.9234958064909
2312,39.818585146469
2312.25,39.7136744864471
2312.5,39.6087638264252
2312.75,39.5038531664033
2313,39.3989425063815
2313.25,39.2940318463596
2313.5,39.1891211863377
2313.75,39.0842105263158
2314,38.9792998662939
2314.25,38.874389206272
2314.5,38.7694785462502
2314.75,38.6645678862283
2315,38.5596572262064
2315.25,38.4547465661845
2315.5,38.3498359061626
2315.75,38.2449252461408
2316,38.1657226206394
2316.25,38.1057736720554
2316.5,38.0458247234715
2316.75,37.9858757748876
2317,37.9259268263036
2317.25,37.8659778777197
2317.5,37.8060289291358
2317.75,37.7460799805519
2318,37.6861310319679
2318.25,37.626182083384
2318.5,37.5662331348001
2318.75,37.5062841862161
2319,37.4463352376322
2319.25,37.3863862890483
2319.5,37.3264373404643
2319.75,37.2664883918804
2320,37.2065394432965
2320.25,37.1465904947125
2320.5,37.0866415461286
2320.75,37.0266925975447
2321,36.972286374134
2321.25,36.9223289169807
2321.5,36.8723714598274
2321.75,36.8224140026741
2322,36.7724565455208
2322.25,36.7224990883676
2322.5,36.6725416312143
2322.75,36.622584174061
2323,36.5726267169077
2323.25,36.5226692597545
2323.5,36.4727118026012
2323.75,36.4227543454479
2324,36.3727968882947
2324.25,36.3228394311414
2324.5,36.2728819739881
2324.75,36.2229245168348
2325,36.1729670596816
2325.25,36.1230096025283
2325.5,36.073052145375
2325.75,36.0230946882217
2326,36.034921599611
2326.25,36.0998662939103
2326.5,36.1648109882095
2326.75,36.2297556825088
2327,36.2947003768081
2327.25,36.3596450711073
2327.5,36.4245897654066
2327.75,36.4895344597058
2328,36.5544791540051
2328.25,36.6194238483044
2328.5,36.6843685426036
2328.75,36.7493132369029
2329,36.8142579312021
2329.25,36.8792026255014
2329.5,36.9441473198007
2329.75,37.0090920140999
2330,37.0740367083991
2330.25,37.1389814026984
2330.5,37.2039260969976
2330.75,37.2688707912969
2331,37.3234107207973
2331.25,37.3683724322353
2331.5,37.4133341436732
2331.75,37.4582958551112
2332,37.5032575665492
2332.25,37.5482192779871
2332.5,37.5931809894251
2332.75,37.638142700863
2333,37.6831044123009
2333.25,37.7280661237389
2333.5,37.7730278351768
2333.75,37.8179895466148
2334,37.8629512580527
2334.25,37.9079129694907
2334.5,37.9528746809287
2334.75,37.9978363923666
2335,38.0427981038046
2335.25,38.0877598152425
2335.5,38.1327215266804
2335.75,38.1776832381184
2336,38.1849033669624
2336.25,38.1549288926705
2336.5,38.1249544183785
2336.75,38.0949799440866
2337,38.0650054697946
2337.25,38.0350309955026
2337.5,38.0050565212107
2337.75,37.9750820469187
2338,37.9451075726267
2338.25,37.9151330983348
2338.5,37.8851586240428
2338.75,37.8551841497508
2339,37.8252096754589
2339.25,37.7952352011669
2339.5,37.7652607268749
2339.75,37.735286252583
2340,37.705311778291
2340.25,37.675337303999
2340.5,37.6453628297071
2340.75,37.6153883554151
2341,37.5927069405616
2341.25,37.5777197034156
2341.5,37.5627324662696
2341.75,37.5477452291236
2342,37.5327579919776
2342.25,37.5177707548317
2342.5,37.5027835176857
2342.75,37.4877962805397
2343,37.4728090433937
2343.25,37.4578218062477
2343.5,37.4428345691017
2343.75,37.4278473319558
2344,37.4128600948098
2344.25,37.3978728576638
2344.5,37.3828856205178
2344.75,37.3678983833718
2345,37.3529111462258
2345.25,37.3379239090799
2345.5,37.3229366719339
2345.75,37.3079494347879
2346,37.2554272517321
2346.25,37.1605080831409
2346.5,37.0655889145497
2346.75,36.9706697459584
2347,36.8757505773672
2347.25,36.780831408776
2347.5,36.6859122401848
2347.75,36.5909930715935
2348,36.4960739030023
2348.25,36.4011547344111
2348.5,36.3062355658198
2348.75,36.2113163972286
2349,36.1163972286374
2349.25,36.0214780600462
2349.5,35.926558891455
2349.75,35.8316397228638
2350,35.7367205542726
2350.25,35.6418013856813
2350.5,35.5468822170901
2350.75,35.4519630484989
2351,35.4542603622219
2351.25,35.5741582593898
2351.5,35.6940561565576
2351.75,35.8139540537255
2352,35.9338519508934
2352.25,36.0537498480612
2352.5,36.1736477452291
2352.75,36.293545642397
2353,36.4134435395648
2353.25,36.5333414367327
2353.5,36.6532393339006
2353.75,36.7731372310684
2354,36.8930351282363
2354.25,37.0129330254042
2354.5,37.132830922572
2354.75,37.2527288197399
2355,37.3726267169078
2355.25,37.4925246140756
2355.5,37.6124225112435
2355.75,37.7323204084112
2356,37.8348122037194
2356.25,37.9147441351647
2356.5,37.9946760666099
2356.75,38.0746079980551
2357,38.1545399295004
2357.25,38.2344718609456
2357.5,38.3144037923909
2357.75,38.3943357238361
2358,38.4742676552814
2358.25,38.5541995867266
2358.5,38.6341315181718
2358.75,38.7140634496171
2359,38.7939953810623
2359.25,38.8739273125076
2359.5,38.9538592439528
2359.75,39.0337911753981
2360,39.1137231068433
2360.25,39.1936550382886
2360.5,39.2735869697338
2360.75,39.3535189011791
2361,39.4627203111706
2361.25,39.6125926826304
2361.5,39.7624650540902
2361.75,39.91233742555
2362,40.0622097970097
2362.25,40.2120821684696
2362.5,40.3619545399294
2362.75,40.5118269113892
2363,40.6616992828491
2363.25,40.8115716543089
2363.5,40.9614440257687
2363.75,41.1113163972286
2364,41.2611887686884
2364.25,41.4110611401482
2364.5,41.5609335116081
2364.75,41.7108058830679
2365,41.8606782545277
2365.25,42.0105506259876
2365.5,42.1604229974474
2365.75,42.3102953689072
2366,42.4461286009481
2366.25,42.5610307524006
2366.5,42.6759329038532
2366.75,42.7908350553057
2367,42.9057372067582
2367.25,43.0206393582108
2367.5,43.1355415096633
2367.75,43.2504436611159
2368,43.3653458125684
2368.25,43.4802479640209
2368.5,43.5951501154734
2368.75,43.7100522669259
2369,43.8249544183784
2369.25,43.939856569831
2369.5,44.0547587212835
2369.75,44.1696608727361
2370,44.2845630241886
2370.25,44.3994651756411
2370.5,44.5143673270937
2370.75,44.6292694785462
2371,44.6692719095661
2371.25,44.5893399781208
2371.5,44.5094080466756
2371.75,44.4294761152304
2372,44.3495441837851
2372.25,44.2696122523399
2372.5,44.1896803208946
2372.75,44.1097483894494
2373,44.0298164580041
2373.25,43.9498845265589
2373.5,43.8699525951136
2373.75,43.7900206636684
2374,43.7100887322232
2374.25,43.6301568007779
2374.5,43.5502248693327
2374.75,43.4702929378874
2375,43.3903610064423
2375.25,43.310429074997
2375.5,43.2304971435518
2375.75,43.1505652121065
2376,43.1385438191321
2376.25,43.243454479154
2376.5,43.3483651391758
2376.75,43.4532757991977
2377,43.5581864592196
2377.25,43.6630971192415
2377.5,43.7680077792634
2377.75,43.8729184392853
2378,43.9778290993071
2378.25,44.082739759329
2378.5,44.1876504193509
2378.75,44.2925610793728
2379,44.3974717393947
2379.25,44.5023823994166
2379.5,44.6072930594384
2379.75,44.7122037194603
2380,44.8171143794822
2380.25,44.9220250395041
2380.5,45.026935699526
2380.75,45.1318463595479
2381,45.1859973258782
2381.25,45.1460313601556
2381.5,45.106065394433
2381.75,45.0660994287104
2382,45.0261334629878
2382.25,44.9861674972651
2382.5,44.9462015315425
2382.75,44.9062355658199
2383,44.8662696000973
2383.25,44.8263036343746
2383.5,44.786337668652
2383.75,44.7463717029294
2384,44.7064057372068
2384.25,44.6664397714842
2384.5,44.6264738057615
2384.75,44.5865078400389
2385,44.5465418743163
2385.25,44.5065759085937
2385.5,44.466609942871
2385.75,44.4266439771484
2386,44.4549532028686
2386.25,44.6198128114744
2386.5,44.7846724200802
2386.75,44.9495320286861
2387,45.1143916372919
2387.25,45.2792512458977
2387.5,45.4441108545035
2387.75,45.6089704631092
2388,45.773830071715
2388.25,45.9386896803208
2388.5,46.1035492889266
2388.75,46.2684088975324
2389,46.4332685061382
2389.25,46.5981281147441
2389.5,46.7629877233499
2389.75,46.9278473319557
2390,47.0927069405615
2390.25,47.2575665491673
2390.5,47.4224261577731
2390.75,47.587285766379
2391,47.7237024431749
2391.25,47.7986386289048
2391.5,47.8735748146347
2391.75,47.9485110003646
2392,48.0234471860946
2392.25,48.0983833718245
2392.5,48.1733195575544
2392.75,48.2482557432843
2393,48.3231919290142
2393.25,48.3981281147441
2393.5,48.4730643004741
2393.75,48.548000486204
2394,48.6229366719338
2394.25,48.6978728576637
2394.5,48.7728090433937
2394.75,48.8477452291236
2395,48.9226814148535
2395.25,48.9976176005834
2395.5,49.0725537863133
2395.75,49.1474899720432
2396,49.1955147684454
2396.25,49.1805275312994
2396.5,49.1655402941534
2396.75,49.1505530570074
2397,49.1355658198614
2397.25,49.1205785827155
2397.5,49.1055913455695
2397.75,49.0906041084235
2398,49.0756168712775
2398.25,49.0606296341315
2398.5,49.0456423969855
2398.75,49.0306551598396
2399,49.0156679226936
2399.25,49.0006806855476
2399.5,48.9856934484016
2399.75,48.9707062112556
2400,48.9557189741096
2400.25,48.9407317369636
2400.5,48.9257444998177
2400.75,48.9107572626717
2401,48.8985900085086
2401.25,48.8935942627932
2401.5,48.8885985170779
2401.75,48.8836027713626
2402,48.8786070256473
2402.25,48.8736112799319
2402.5,48.8686155342166
2402.75,48.8636197885013
2403,48.8586240427859
2403.25,48.8536282970706
2403.5,48.8486325513553
2403.75,48.84363680564
2404,48.8386410599246
2404.25,48.8336453142093
2404.5,48.828649568494
2404.75,48.8236538227787
2405,48.8186580770633
2405.25,48.813662331348
2405.5,48.8086665856327
2405.75,48.8036708399173
2406,48.7735018840403
2406.25,48.6735869697338
2406.5,48.5736720554272
2406.75,48.4737571411208
2407,48.3738422268142
2407.25,48.2739273125077
2407.5,48.1740123982011
2407.75,48.0740974838945
2408,47.974182569588
2408.25,47.8742676552814
2408.5,47.7743527409749
2408.75,47.6744378266683
2409,47.5745229123618
2409.25,47.4746079980552
2409.5,47.3746930837487
2409.75,47.2747781694421
2410,47.1748632551355
2410.25,47.074948340829
2410.5,46.9750334265224
2410.75,46.8751185122159
2411,46.7702443174912
2411.25,46.6503464203233
2411.5,46.5304485231555
2411.75,46.4105506259876
2412,46.2906527288197
2412.25,46.1707548316519
2412.5,46.050856934484
2412.75,45.9309590373161
2413,45.8110611401483
2413.25,45.6911632429805
2413.5,45.5712653458126
2413.75,45.4513674486448
2414,45.3314695514769
2414.25,45.211571654309
2414.5,45.0916737571412
2414.75,44.9717758599733
2415,44.8518779628054
2415.25,44.7319800656376
2415.5,44.6120821684697
2415.75,44.4921842713018
2416,44.4369515011547
2416.25,44.5968153640452
2416.5,44.7566792269357
2416.75,44.9165430898262
2417,45.0764069527166
2417.25,45.2362708156071
2417.5,45.3961346784976
2417.75,45.5559985413881
2418,45.7158624042786
2418.25,45.8757262671691
2418.5,46.0355901300596
2418.75,46.1954539929501
2419,46.3553178558405
2419.25,46.515181718731
2419.5,46.6750455816215
2419.75,46.8349094445119
2420,46.9947733074024
2420.25,47.1546371702928
2420.5,47.3145010331833
2420.75,47.4743648960738
2421,47.687711194846
2421.25,48.0973623435029
2421.5,48.5070134921598
2421.75,48.9166646408167
2422,49.3263157894735
2422.25,49.7359669381304
2422.5,50.1456180867873
2422.75,50.5552692354442
2423,50.964920384101
2423.25,51.3745715327579
2423.5,51.7842226814148
2423.75,52.1938738300717
2424,52.6035249787286
2424.25,53.0131761273854
2424.5,53.4228272760423
2424.75,53.8324784246992
2425,54.2421295733561
2425.25,54.6517807220129
2425.5,55.0614318706698
2425.75,55.4710830193267
2426,55.8324905797981
2426.25,55.9973501884039
2426.5,56.1622097970097
2426.75,56.3270694056156
2427,56.4919290142214
2427.25,56.6567886228272
2427.5,56.821648231433
2427.75,56.9865078400388
2428,57.1513674486446
2428.25,57.3162270572505
2428.5,57.4810866658563
2428.75,57.6459462744621
2429,57.8108058830679
2429.25,57.9756654916737
2429.5,58.1405251002795
2429.75,58.3053847088854
2430,58.4702443174912
2430.25,58.635103926097
2430.5,58.7999635347028
2430.75,58.9648231433086
2431,59.0703172480856
2431.25,58.9054576394797
2431.5,58.7405980308739
2431.75,58.5757384222681
2432,58.4108788136623
2432.25,58.2460192050565
2432.5,58.0811595964508
2432.75,57.916299987845
2433,57.7514403792392
2433.25,57.5865807706334
2433.5,57.4217211620276
2433.75,57.2568615534217
2434,57.0920019448159
2434.25,56.9271423362101
2434.5,56.7622827276043
2434.75,56.5974231189985
2435,56.4325635103927
2435.25,56.2677039017868
2435.5,56.102844293181
2435.75,55.9379846845752
2436,55.7503221101252
2436.25,55.4455816214903
2436.5,55.1408411328553
2436.75,54.8361006442203
2437,54.5313601555853
2437.25,54.2266196669503
2437.5,53.9218791783153
2437.75,53.6171386896803
2438,53.3123982010453
2438.25,53.0076577124103
2438.5,52.7029172237753
2438.75,52.3981767351403
2439,52.0934362465056
2439.25,51.7886957578706
2439.5,51.4839552692356
2439.75,51.1792147806006
2440,50.8744742919656
2440.25,50.5697338033306
2440.5,50.2649933146957
2440.75,49.9602528260607
2441,49.6934362465054
2441.25,49.6484745350675
2441.5,49.6035128236295
2441.75,49.5585511121916
2442,49.5135894007536
2442.25,49.4686276893157
2442.5,49.4236659778777
2442.75,49.3787042664398
2443,49.3337425550018
2443.25,49.2887808435639
2443.5,49.2438191321259
2443.75,49.198857420688
2444,49.15389570925
2444.25,49.1089339978121
2444.5,49.0639722863741
2444.75,49.0190105749362
2445,48.9740488634982
2445.25,48.9290871520603
2445.5,48.8841254406224
2445.75,48.8391637291844
2446,48.8135286252582
2446.25,48.9184392852801
2446.5,49.023349945302
2446.75,49.1282606053239
2447,49.2331712653458
2447.25,49.3380819253676
2447.5,49.4429925853895
2447.75,49.5479032454114
2448,49.6528139054333
2448.25,49.7577245654552
2448.5,49.8626352254771
2448.75,49.9675458854989
2449,50.0724565455208
2449.25,50.1773672055427
2449.5,50.2822778655646
2449.75,50.3871885255865
2450,50.4920991856084
2450.25,50.5970098456302
2450.5,50.7019205056521
2450.75,50.806831165674
2451,50.9067096146834
2451.25,50.9666585632673
2451.5,51.0266075118512
2451.75,51.0865564604351
2452,51.146505409019
2452.25,51.206454357603
2452.5,51.2664033061869
2452.75,51.3263522547708
2453,51.3863012033548
2453.25,51.4462501519387
2453.5,51.5061991005226
2453.75,51.5661480491066
2454,51.6260969976905
2454.25,51.6860459462744
2454.5,51.7459948948584
2454.75,51.8059438434423
2455,51.8658927920262
2455.25,51.9258417406102
2455.5,51.9857906891941
2455.75,52.045739637778
2456,52.1109031238605
2456.25,52.225805275313
2456.5,52.3407074267655
2456.75,52.4556095782181
2457,52.5705117296706
2457.25,52.6854138811231
2457.5,52.8003160325757
2457.75,52.9152181840282
2458,53.0301203354807
2458.25,53.1450224869332
2458.5,53.2599246383857
2458.75,53.3748267898383
2459,53.4897289412908
2459.25,53.6046310927433
2459.5,53.7195332441959
2459.75,53.8344353956484
2460,53.949337547101
2460.25,54.0642396985535
2460.5,54.179141850006
2460.75,54.2940440014586
2461,54.4066123738908
2461.25,54.4915400510514
2461.5,54.576467728212
2461.75,54.6613954053725
2462,54.7463230825331
2462.25,54.8312507596937
2462.5,54.9161784368543
2462.75,55.0011061140148
2463,55.0860337911754
2463.25,55.170961468336
2463.5,55.2558891454965
2463.75,55.3408168226571
2464,55.4257444998177
2464.25,55.5106721769783
2464.5,55.5955998541388
2464.75,55.6805275312993
2465,55.7654552084599
2465.25,55.8503828856205
2465.5,55.935310562781
2465.75,56.0202382399416
2466,56.1115473441108
2466.25,56.3013856812932
2466.5,56.4912240184757
2466.75,56.6810623556581
2467,56.8709006928406
2467.25,57.060739030023
2467.5,57.2505773672055
2467.75,57.440415704388
2468,57.6302540415704
2468.25,57.8200923787529
2468.5,58.0099307159353
2468.75,58.1997690531178
2469,58.3896073903002
2469.25,58.5794457274827
2469.5,58.7692840646651
2469.75,58.9591224018476
2470,59.14896073903
2470.25,59.3387990762125
2470.5,59.528637413395
2470.75,59.7184757505772
2471,59.8947489972044
2471.25,59.7748511000365
2471.5,59.6549532028687
2471.75,59.5350553057008
2472,59.4151574085329
2472.25,59.2952595113651
2472.5,59.1753616141972
2472.75,59.0554637170293
2473,58.9355658198615
2473.25,58.8156679226936
2473.5,58.6957700255257
2473.75,58.5758721283579
2474,58.45597423119
2474.25,58.3360763340221
2474.5,58.2161784368543
2474.75,58.0962805396864
2475,57.9763826425185
2475.25,57.8564847453507
2475.5,57.7365868481828
2475.75,57.616688951015
2476,57.5040111826911
2476.25,57.653883554151
2476.5,57.8037559256108
2476.75,57.9536282970706
2477,58.1035006685305
2477.25,58.2533730399902
2477.5,58.40324541145
2477.75,58.5531177829098
2478,58.7029901543697
2478.25,58.8528625258295
2478.5,59.0027348972893
2478.75,59.1526072687492
2479,59.302479640209
2479.25,59.4523520116688
2479.5,59.6022243831287
2479.75,59.7520967545885
2480,59.9019691260483
2480.25,60.0518414975082
2480.5,60.201713868968
2480.75,60.3515862404278
2481,60.4982982861311
2481.25,60.3234471860946
2481.5,60.1485960860581
2481.75,59.9737449860216
2482,59.7988938859852
2482.25,59.6240427859487
2482.5,59.4491916859122
2482.75,59.2743405858758
2483,59.0994894858393
2483.25,58.9246383858028
2483.5,58.7497872857663
2483.75,58.57493618573
2484,58.4000850856936
2484.25,58.2252339856571
2484.5,58.0503828856206
2484.75,57.8755317855841
2485,57.7006806855477
2485.25,57.5258295855112
2485.5,57.3509784854747
2485.75,57.1761273854383
2486,57.0012762854018
2486.25,57.0793484866901
2486.5,57.1592804181354
2486.75,57.2392123495806
2487,57.3191442810259
2487.25,57.3990762124711
2487.5,57.4790081439164
2487.75,57.5589400753616
2488,57.6388720068068
2488.25,57.7188039382521
2488.5,57.7987358696973
2488.75,57.8786678011426
2489,57.9585997325878
2489.25,58.0385316640331
2489.5,58.1184635954783
2489.75,58.1983955269236
2490,58.2783274583687
2490.25,58.358259389814
2490.5,58.4381913212592
2490.75,58.5181232527045
2491,58.5980551841497
2491.25,58.3709128479398
2491.5,58.1361127993194
2491.75,57.901312750699
2492,57.6665127020786
2492.25,57.4317126534582
2492.5,57.1969126048378
2492.75,56.9621125562174
2493,56.727312507597
2493.25,56.4925124589766
2493.5,56.2577124103562
2493.75,56.0229123617358
2494,55.7881123131154
2494.25,55.553312264495
2494.5,55.3185122158746
2494.75,55.0837121672542
2495,54.8489121186338
2495.25,54.6141120700134
2495.5,54.3793120213929
2495.75,54.1445119727725
2496,53.9097119241521
2496.25,53.7850613832503
2496.5,53.6651634860825
2496.75,53.5452655889146
2497,53.4253676917468
2497.25,53.3054697945789
2497.5,53.185571897411
2497.75,53.0656740002432
2498,52.9457761030753
2498.25,52.8258782059074
2498.5,52.7059803087396
2498.75,52.5860824115717
2499,52.4661845144038
2499.25,52.346286617236
2499.5,52.2263887200681
2499.75,52.1064908229002
2500,51.9865929257324
2500.25,51.8666950285645
2500.5,51.7467971313966
2500.75,51.6268992342288
2501,51.5070013370609
2501.25,51.4200316032576
2501.5,51.335103926097
2501.75,51.2501762489364
2502,51.1652485717758
2502.25,51.0803208946153
2502.5,50.9953932174547
2502.75,50.9104655402941
2503,50.8255378631336
2503.25,50.7406101859731
2503.5,50.6556825088125
2503.75,50.5707548316519
2504,50.4858271544914
2504.25,50.4008994773308
2504.5,50.3159718001702
2504.75,50.2310441230096
2505,50.1461164458491
2505.25,50.0611887686885
2505.5,49.9762610915279
2505.75,49.8913334143673
2506,49.8064057372068
2506.25,49.7445727482679
2506.5,49.684623799684
2506.75,49.6246748511
2507,49.5647259025161
2507.25,49.5047769539322
2507.5,49.4448280053482
2507.75,49.3848790567643
2508,49.3249301081804
2508.25,49.2649811595964
2508.5,49.2050322110125
2508.75,49.1450832624286
2509,49.0851343138446
2509.25,49.0251853652608
2509.5,48.9652364166768
2509.75,48.9052874680929
2510,48.845338519509
2510.25,48.785389570925
2510.5,48.7254406223411
2510.75,48.6654916737572
2511,48.6055427251732
2511.25,48.7813540780357
2511.5,48.9811839066488
2511.75,49.1810137352619
2512,49.380843563875
2512.25,49.5806733924881
2512.5,49.7805032211012
2512.75,49.9803330497143
2513,50.1801628783274
2513.25,50.3799927069405
2513.5,50.5798225355537
2513.75,50.7796523641668
2514,50.9794821927799
2514.25,51.179312021393
2514.5,51.3791418500061
2514.75,51.5789716786192
2515,51.7788015072323
2515.25,51.9786313358454
2515.5,52.1784611644585
2515.75,52.3782909930715
2516,52.5781208216846
2516.25,52.5555123374256
2516.5,52.5055548802723
2516.75,52.455597423119
2517,52.4056399659657
2517.25,52.3556825088125
2517.5,52.3057250516592
2517.75,52.2557675945059
2518,52.2058101373526
2518.25,52.1558526801994
2518.5,52.1058952230461
2518.75,52.0559377658928
2519,52.0059803087395
2519.25,51.9560228515862
2519.5,51.906065394433
2519.75,51.8561079372797
2520,51.8061504801264
2520.25,51.7561930229731
2520.5,51.7062355658199
2520.75,51.6562781086666
2521,51.6063206515133
2521.25,51.674182569588
2521.5,51.7591102467485
2521.75,51.8440379239091
2522,51.9289656010696
2522.25,52.0138932782302
2522.5,52.0988209553907
2522.75,52.1837486325513
2523,52.2686763097119
2523.25,52.3536039868725
2523.5,52.438531664033
2523.75,52.5234593411936
2524,52.6083870183542
2524.25,52.6933146955147
2524.5,52.7782423726753
2524.75,52.8631700498359
2525,52.9480977269965
2525.25,53.033025404157
2525.5,53.1179530813176
2525.75,53.2028807584782
2526,53.2878084356387
2526.25,53.3898504922815
2526.5,53.4947611523034
2526.75,53.5996718123253
2527,53.7045824723471
2527.25,53.809493132369
2527.5,53.9144037923909
2527.75,54.0193144524128
2528,54.1242251124347
2528.25,54.2291357724566
2528.5,54.3340464324784
2528.75,54.4389570925002
2529,54.5438677525221
2529.25,54.648778412544
2529.5,54.7536890725659
2529.75,54.8585997325878
2530,54.9635103926096
2530.25,55.0684210526315
2530.5,55.1733317126534
2530.75,55.2782423726753
2531,55.3831530326972
2531.25,55.4377415825939
2531.5,55.4827032940318
2531.75,55.5276650054698
2532,55.5726267169077
2532.25,55.6175884283457
2532.5,55.6625501397836
2532.75,55.7075118512216
2533,55.7524735626595
2533.25,55.7974352740975
2533.5,55.8423969855354
2533.75,55.8873586969734
2534,55.9323204084113
2534.25,55.9772821198493
2534.5,56.0222438312872
2534.75,56.0672055427251
2535,56.1121672541631
2535.25,56.157128965601
2535.5,56.202090677039
2535.75,56.2470523884769
2536,56.2920140999149
2536.25,56.1890725659415
2536.5,56.0541874316276
2536.75,55.9193022973138
2537,55.7844171629999
2537.25,55.6495320286861
2537.5,55.5146468943722
2537.75,55.3797617600584
2538,55.2448766257445
2538.25,55.1099914914307
2538.5,54.9751063571168
2538.75,54.840221222803
2539,54.7053360884891
2539.25,54.5704509541753
2539.5,54.4355658198614
2539.75,54.3006806855476
2540,54.1657955512337
2540.25,54.0309104169199
2540.5,53.896025282606
2540.75,53.7611401482922
2541,53.6262550139783
2541.25,53.5637899598882
2541.5,53.5188282484503
2541.75,53.4738665370123
2542,53.4289048255744
2542.25,53.3839431141364
2542.5,53.3389814026985
2542.75,53.2940196912605
2543,53.2490579798226
2543.25,53.2040962683846
2543.5,53.1591345569467
2543.75,53.1141728455087
2544,53.0692111340708
2544.25,53.0242494226328
2544.5,52.9792877111949
2544.75,52.9343259997569
2545,52.889364288319
2545.25,52.844402576881
2545.5,52.7994408654431
2545.75,52.7544791540051
2546,52.7095174425672
2546.25,52.5739759329038
2546.5,52.4141120700134
2546.75,52.2542482071229
2547,52.0943843442324
2547.25,51.9345204813419
2547.5,51.7746566184514
2547.75,51.6147927555611
2548,51.4549288926706
2548.25,51.2950650297801
2548.5,51.1352011668896
2548.75,50.9753373039991
2549,50.8154734411086
2549.25,50.6556095782181
2549.5,50.4957457153277
2549.75,50.3358818524372
2550,50.1760179895467
2550.25,50.0161541266562
2550.5,49.8562902637657
2550.75,49.6964264008752
2551,49.5365625379847
2551.25,49.6541266561322
2551.5,49.8539564847453
2551.75,50.0537863133584
2552,50.2536161419715
2552.25,50.4534459705847
2552.5,50.6532757991978
2552.75,50.8531056278109
2553,51.052935456424
2553.25,51.2527652850371
2553.5,51.4525951136502
2553.75,51.6524249422633
2554,51.8522547708762
2554.25,52.0520845994894
2554.5,52.2519144281025
2554.75,52.4517442567156
2555,52.6515740853287
2555.25,52.8514039139418
2555.5,53.0512337425549
2555.75,53.251063571168
2556,53.4508933997811
2556.25,53.5188404035493
2556.5,53.5438191321259
2556.75,53.5687978607026
2557,53.5937765892792
2557.25,53.6187553178558
2557.5,53.6437340464325
2557.75,53.6687127750091
2558,53.6936915035858
2558.25,53.7186702321624
2558.5,53.743648960739
2558.75,53.7686276893157
2559,53.7936064178923
2559.25,53.8185851464689
2559.5,53.8435638750456
2559.75,53.8685426036222
2560,53.8935213321989
2560.25,53.9185000607755
2560.5,53.9434787893521
2560.75,53.9684575179288
2561,53.9934362465054
2561.25,54.0441959401969
2561.5,54.1041448887808
2561.75,54.1640938373647
2562,54.2240427859487
2562.25,54.2839917345326
2562.5,54.3439406831165
2562.75,54.4038896317005
2563,54.4638385802844
2563.25,54.5237875288683
2563.5,54.5837364774523
2563.75,54.6436854260362
2564,54.7036343746201
2564.25,54.7635833232041
2564.5,54.823532271788
2564.75,54.8834812203719
2565,54.9434301689559
2565.25,55.0033791175398
2565.5,55.0633280661237
2565.75,55.1232770147077
2566,55.1832259632916
2566.25,55.1424334508326
2566.5,55.0625015193874
2566.75,54.9825695879421
2567,54.902637656497
2567.25,54.8227057250517
2567.5,54.7427737936065
2567.75,54.6628418621612
2568,54.582909930716
2568.25,54.5029779992707
2568.5,54.4230460678255
2568.75,54.3431141363803
2569,54.263182204935
2569.25,54.1832502734898
2569.5,54.1033183420445
2569.75,54.0233864105993
2570,53.943454479154
2570.25,53.8635225477088
2570.5,53.7835906162635
2570.75,53.7036586848183
2571,53.623726753373
2571.25,53.607025647259
2571.5,53.6170171386897
2571.75,53.6270086301203
2572,53.637000121551
2572.25,53.6469916129816
2572.5,53.6569831044123
2572.75,53.666974595843
2573,53.6769660872736
2573.25,53.6869575787043
2573.5,53.6969490701349
2573.75,53.7069405615656
2574,53.7169320529962
2574.25,53.7269235444269
2574.5,53.7369150358575
2574.75,53.7469065272882
2575,53.7568980187188
2575.25,53.7668895101495
2575.5,53.7768810015802
2575.75,53.7868724930108
2576,53.7968639844415
2576.25,53.8891211863376
2576.5,54.0190105749362
2576.75,54.1488999635347
2577,54.2787893521332
2577.25,54.4086787407317
2577.5,54.5385681293302
2577.75,54.6684575179288
2578,54.7983469065273
2578.25,54.9282362951258
2578.5,55.0581256837243
2578.75,55.1880150723228
2579,55.3179044609214
2579.25,55.4477938495199
2579.5,55.5776832381184
2579.75,55.7075726267168
2580,55.8374620153153
2580.25,55.9673514039139
2580.5,56.0972407925124
2580.75,56.2271301811109
2581,56.3570195697094
2581.25,56.4300838701835
2581.5,56.4750455816215
2581.75,56.5200072930594
2582,56.5649690044974
2582.25,56.6099307159353
2582.5,56.6548924273733
2582.75,56.6998541388112
2583,56.7448158502492
2583.25,56.7897775616871
2583.5,56.8347392731251
2583.75,56.879700984563
2584,56.924662696001
2584.25,56.9696244074389
2584.5,57.0145861188769
2584.75,57.0595478303148
2585,57.1045095417528
2585.25,57.1494712531907
2585.5,57.1944329646287
2585.75,57.2393946760666
2586,57.2843563875045
2586.25,57.1631822049351
2586.5,56.9533608848913
2586.75,56.7435395648476
2587,56.5337182448038
2587.25,56.32389692476
2587.5,56.1140756047163
2587.75,55.9042542846725
2588,55.6944329646287
2588.25,55.484611644585
2588.5,55.2747903245412
2588.75,55.0649690044974
2589,54.8551476844537
2589.25,54.6453263644099
2589.5,54.4355050443662
2589.75,54.2256837243224
2590,54.0158624042786
2590.25,53.8060410842349
2590.5,53.5962197641911
2590.75,53.3863984441473
2591,53.1765771241036
2591.25,53.0587577488756
2591.5,52.9938130545764
2591.75,52.9288683602771
2592,52.8639236659779
2592.25,52.7989789716786
2592.5,52.7340342773794
2592.75,52.6690895830801
2593,52.6041448887809
2593.25,52.5392001944816
2593.5,52.4742555001824
2593.75,52.4093108058831
2594,52.3443661115838
2594.25,52.2794214172846
2594.5,52.2144767229853
2594.75,52.1495320286861
2595,52.0845873343868
2595.25,52.0196426400875
2595.5,51.9546979457883
2595.75,51.889753251489
2596,51.8248085571897
2596.25,51.7259025161055
2596.5,51.6060046189377
2596.75,51.4861067217698
2597,51.3662088246019
2597.25,51.2463109274341
2597.5,51.1264130302662
2597.75,51.0065151330983
2598,50.8866172359305
2598.25,50.7667193387626
2598.5,50.6468214415947
2598.75,50.526923544427
2599,50.4070256472591
2599.25,50.2871277500912
2599.5,50.1672298529234
2599.75,50.0473319557555
2600,49.9274340585876
2600.25,49.8075361614198
2600.5,49.6876382642519
2600.75,49.567740367084
2601,49.4478424699162
2601.25,49.5020785219399
2601.5,49.671933876261
2601.75,49.8417892305822
2602,50.0116445849033
2602.25,50.1814999392245
2602.5,50.3513552935456
2602.75,50.5212106478668
2603,50.6910660021879
2603.25,50.860921356509
2603.5,51.0307767108302
2603.75,51.2006320651513
2604,51.3704874194725
2604.25,51.5403427737936
2604.5,51.7101981281148
2604.75,51.8800534824359
2605,52.049908836757
2605.25,52.219764191078
2605.5,52.3896195453992
2605.75,52.5594748997203
2606,52.7293302540415
2606.25,52.8408411328552
2606.5,52.9107815728698
2606.75,52.9807220128844
2607,53.050662452899
2607.25,53.1206028929135
2607.5,53.1905433329281
2607.75,53.2604837729427
2608,53.3304242129573
2608.25,53.4003646529719
2608.5,53.4703050929865
2608.75,53.5402455330011
2609,53.6101859730157
2609.25,53.6801264130303
2609.5,53.7500668530448
2609.75,53.8200072930594
2610,53.889947733074
2610.25,53.9598881730886
2610.5,54.0298286131032
2610.75,54.0997690531178
2611,54.1697094931324
2611.25,54.2821320043759
2611.5,54.4270086301204
2611.75,54.5718852558647
2612,54.7167618816092
2612.25,54.8616385073537
2612.5,55.0065151330983
2612.75,55.1513917588428
2613,55.2962683845873
2613.25,55.4411450103318
2613.5,55.5860216360763
2613.75,55.7308982618208
2614,55.8757748875653
2614.25,56.0206515133098
2614.5,56.1655281390543
2614.75,56.3104047647988
2615,56.4552813905433
2615.25,56.6001580162878
2615.5,56.7450346420323
2615.75,56.8899112677768
2616,57.0347878935213
2616.25,57.0478060046189
2616.5,56.9528868360277
2616.75,56.8579676674365
2617,56.7630484988453
2617.25,56.668129330254
2617.5,56.5732101616628
2617.75,56.4782909930716
2618,56.3833718244804
2618.25,56.2884526558892
2618.5,56.193533487298
2618.75,56.0986143187068
2619,56.0036951501155
2619.25,55.9087759815243
2619.5,55.8138568129331
2619.75,55.7189376443419
2620,55.6240184757506
2620.25,55.5290993071594
2620.5,55.4341801385682
2620.75,55.3392609699769
2621,55.2443418013857
2621.25,55.0722255986387
2621.5,54.832429804303
2621.75,54.5926340099672
2622,54.3528382156315
2622.25,54.1130424212958
2622.5,53.87324662696
2622.75,53.6334508326243
2623,53.3936550382886
2623.25,53.1538592439528
2623.5,52.9140634496171
2623.75,52.6742676552814
2624,52.4344718609456
2624.25,52.1946760666099
2624.5,51.9548802722744
2624.75,51.7150844779387
2625,51.4752886836029
2625.25,51.2354928892672
2625.5,50.9956970949315
2625.75,50.7559013005957
2626,50.51610550626
2626.25,50.3149629269479
2626.5,50.1501033183421
2626.75,49.9852437097363
2627,49.8203841011305
2627.25,49.6555244925247
2627.5,49.4906648839188
2627.75,49.325805275313
2628,49.1609456667072
2628.25,48.9960860581014
2628.5,48.8312264494956
2628.75,48.6663668408898
2629,48.501507232284
2629.25,48.3366476236781
2629.5,48.1717880150723
2629.75,48.0069284064665
2630,47.8420687978607
2630.25,47.6772091892549
2630.5,47.5123495806491
2630.75,47.3474899720432
2631,47.1826303634376
2631.25,47.1299015436975
2631.5,47.1898504922815
2631.75,47.2497994408654
2632,47.3097483894493
2632.25,47.3696973380333
2632.5,47.4296462866172
2632.75,47.4895952352011
2633,47.5495441837851
2633.25,47.609493132369
2633.5,47.6694420809529
2633.75,47.7293910295369
2634,47.7893399781208
2634.25,47.8492889267047
2634.5,47.9092378752887
2634.75,47.9691868238726
2635,48.0291357724565
2635.25,48.0890847210405
2635.5,48.1490336696244
2635.75,48.2089826182083
2636,48.2689315667923
2636.25,48.3072201288441
2636.5,48.32220736599
2636.75,48.337194603136
2637,48.352181840282
2637.25,48.367169077428
2637.5,48.382156314574
2637.75,48.3971435517199
2638,48.4121307888659
2638.25,48.4271180260119
2638.5,48.4421052631579
2638.75,48.4570925003039
2639,48.4720797374499
2639.25,48.4870669745958
2639.5,48.5020542117418
2639.75,48.5170414488878
2640,48.5320286860338
2640.25,48.5470159231798
2640.5,48.5620031603258
2640.75,48.5769903974717
2641,48.5919776346177
2641.25,48.8089461529111
2641.5,49.2585632672906
2641.75,49.7081803816701
2642,50.1577974960496
2642.25,50.6074146104291
2642.5,51.0570317248086
2642.75,51.5066488391881
2643,51.9562659535676
2643.25,52.4058830679471
2643.5,52.8555001823266
2643.75,53.3051172967057
2644,53.7547344110852
2644.25,54.2043515254647
2644.5,54.6539686398442
2644.75,55.1035857542237
2645,55.5532028686032
2645.25,56.0028199829827
2645.5,56.4524370973621
2645.75,56.9020542117416
2646,57.3516713261211
2646.25,57.5552692354443
2646.5,57.4553543211377
2646.75,57.3554394068312
2647,57.2555244925246
2647.25,57.1556095782181
2647.5,57.0556946639115
2647.75,56.955779749605
2648,56.8558648352984
2648.25,56.7559499209919
2648.5,56.6560350066853
2648.75,56.5561200923788
2649,56.4562051780722
2649.25,56.3562902637656
2649.5,56.2563753494591
2649.75,56.1564604351525
2650,56.0565455208461
2650.25,55.9566306065395
2650.5,55.856715692233
2650.75,55.7568007779264
2651,55.6568858636198
2651.25,55.6043029050687
2651.5,55.6142943964993
2651.75,55.62428588793
2652,55.6342773793606
2652.25,55.6442688707913
2652.5,55.6542603622219
2652.75,55.6642518536526
2653,55.6742433450833
2653.25,55.6842348365139
2653.5,55.6942263279446
2653.75,55.7042178193752
2654,55.7142093108059
2654.25,55.7242008022365
2654.5,55.7341922936672
2654.75,55.7441837850978
2655,55.7541752765285
2655.25,55.7641667679592
2655.5,55.7741582593898
2655.75,55.7841497508205
2656,55.7941412422511
2656.25,55.7504071958186
2656.5,55.6305092986509
2656.75,55.510611401483
2657,55.3907135043151
2657.25,55.2708156071473
2657.5,55.1509177099794
2657.75,55.0310198128115
2658,54.9111219156437
2658.25,54.7912240184758
2658.5,54.6713261213079
2658.75,54.5514282241401
2659,54.4315303269722
2659.25,54.3116324298043
2659.5,54.1917345326365
2659.75,54.0718366354686
2660,53.9519387383007
2660.25,53.8320408411329
2660.5,53.712142943965
2660.75,53.5922450467971
2661,53.4723471496293
2661.25,53.3583930959037
2661.5,53.2534824358819
2661.75,53.14857177586
2662,53.0436611158381
2662.25,52.9387504558162
2662.5,52.8338397957943
2662.75,52.7289291357725
2663,52.6240184757506
2663.25,52.5191078157288
2663.5,52.4141971557069
2663.75,52.309286495685
2664,52.2043758356631
2664.25,52.0994651756412
2664.5,51.9945545156193
2664.75,51.8896438555975
2665,51.7847331955756
2665.25,51.6798225355537
2665.5,51.5749118755318
2665.75,51.4700012155099
2666,51.3650905554881
2666.25,51.296207609092
2666.5,51.2862161176614
2666.75,51.2762246262307
2667,51.2662331348
2667.25,51.2562416433694
2667.5,51.2462501519387
2667.75,51.2362586605081
2668,51.2262671690774
2668.25,51.2162756776468
2668.5,51.2062841862161
2668.75,51.1962926947855
2669,51.1863012033548
2669.25,51.1763097119242
2669.5,51.1663182204935
2669.75,51.1563267290628
2670,51.1463352376322
2670.25,51.1363437462015
2670.5,51.1263522547709
2670.75,51.1163607633402
2671,51.1063692719096
2671.25,51.0909444511973
2671.5,51.0659657226207
2671.75,51.040986994044
2672,51.0160082654674
2672.25,50.9910295368907
2672.5,50.9660508083141
2672.75,50.9410720797375
2673,50.9160933511608
2673.25,50.8911146225842
2673.5,50.8661358940075
2673.75,50.8411571654309
2674,50.8161784368543
2674.25,50.7911997082776
2674.5,50.766220979701
2674.75,50.7412422511243
2675,50.7162635225477
2675.25,50.6912847939711
2675.5,50.6663060653944
2675.75,50.6413273368178
2676,50.6163486082412
2676.25,50.563753494591
2676.5,50.4588428345692
2676.75,50.3539321745473
2677,50.2490215145254
2677.25,50.1441108545035
2677.5,50.0392001944816
2677.75,49.9342895344598
2678,49.8293788744379
2678.25,49.724468214416
2678.5,49.6195575543941
2678.75,49.5146468943722
2679,49.4097362343503
2679.25,49.3048255743285
2679.5,49.1999149143066
2679.75,49.0950042542847
2680,48.9900935942628
2680.25,48.8851829342409
2680.5,48.780272274219
2680.75,48.6753616141972
2681,48.5704509541753
2681.25,48.4934362465054
2681.5,48.4734532636441
2681.75,48.4534702807828
2682,48.4334872979215
2682.25,48.4135043150602
2682.5,48.3935213321989
2682.75,48.3735383493376
2683,48.3535553664763
2683.25,48.3335723836149
2683.5,48.3135894007536
2683.75,48.2936064178923
2684,48.273623435031
2684.25,48.2536404521697
2684.5,48.2336574693084
2684.75,48.2136744864471
2685,48.1936915035858
2685.25,48.1737085207245
2685.5,48.1537255378631
2685.75,48.1337425550018
2686,48.1137595721405
2686.25,48.1497872857664
2686.5,48.3096511486568
2686.75,48.4695150115473
2687,48.6293788744378
2687.25,48.7892427373283
2687.5,48.9491066002188
2687.75,49.1089704631093
2688,49.2688343259998
2688.25,49.4286981888903
2688.5,49.5885620517806
2688.75,49.7484259146711
2689,49.9082897775616
2689.25,50.0681536404521
2689.5,50.2280175033426
2689.75,50.387881366233
2690,50.5477452291235
2690.25,50.707609092014
2690.5,50.8674729549045
2690.75,51.027336817795
2691,51.1872006806855
2691.25,51.2985292330132
2691.5,51.2935334872979
2691.75,51.2885377415826
2692,51.2835419958673
2692.25,51.2785462501519
2692.5,51.2735505044366
2692.75,51.2685547587213
2693,51.263559013006
2693.25,51.2585632672906
2693.5,51.2535675215753
2693.75,51.24857177586
2694,51.2435760301446
2694.25,51.2385802844293
2694.5,51.233584538714
2694.75,51.2285887929987
2695,51.2235930472833
2695.25,51.218597301568
2695.5,51.2136015558527
2695.75,51.2086058101374
2696,51.203610064422
2696.25,51.1695150115474
2696.5,51.0596086058102
2696.75,50.949702200073
2697,50.8397957943358
2697.25,50.7298893885986
2697.5,50.6199829828614
2697.75,50.5100765771241
2698,50.4001701713869
2698.25,50.2902637656497
2698.5,50.1803573599125
2698.75,50.0704509541753
2699,49.9605445484381
2699.25,49.8506381427009
2699.5,49.7407317369637
2699.75,49.6308253312265
2700,49.5209189254892
2700.25,49.411012519752
2700.5,49.3011061140148
2700.75,49.1911997082776
2701,49.0812933025404
2701.25,48.9596815364046
2701.5,48.8048134192295
2701.75,48.6499453020543
2702,48.4950771848792
2702.25,48.340209067704
2702.5,48.1853409505288
2702.75,48.0304728333537
2703,47.8756047161785
2703.25,47.7207365990033
2703.5,47.5658684818282
2703.75,47.411000364653
2704,47.2561322474779
2704.25,47.1012641303027
2704.5,46.9463960131275
2704.75,46.7915278959524
2705,46.6366597787772
2705.25,46.4817916616021
2705.5,46.3269235444269
2705.75,46.1720554272517
2706,46.0171873100766
2706.25,45.9097240792512
2706.5,45.9496900449739
2706.75,45.9896560106965
2707,46.0296219764191
2707.25,46.0695879421417
2707.5,46.1095539078644
2707.75,46.1495198735869
2708,46.1894858393096
2708.25,46.2294518050322
2708.5,46.2694177707548
2708.75,46.3093837364774
2709,46.3493497022001
2709.25,46.3893156679227
2709.5,46.4292816336453
2709.75,46.4692475993679
2710,46.5092135650905
2710.25,46.5491795308132
2710.5,46.5891454965358
2710.75,46.6291114622584
2711,46.669077427981
2711.25,46.7101738179166
2711.5,46.7551355293546
2711.75,46.8000972407925
2712,46.8450589522305
2712.25,46.8900206636684
2712.5,46.9349823751064
2712.75,46.9799440865443
2713,47.0249057979823
2713.25,47.0698675094202
2713.5,47.1148292208582
2713.75,47.1597909322961
2714,47.204752643734
2714.25,47.249714355172
2714.5,47.2946760666099
2714.75,47.3396377780479
2715,47.3845994894858
2715.25,47.4295612009238
2715.5,47.4745229123617
2715.75,47.5194846237997
2716,47.5644463352376
2716.25,47.606272031117
2716.5,47.636246505409
2716.75,47.666220979701
2717,47.6961954539929
2717.25,47.7261699282849
2717.5,47.7561444025769
2717.75,47.7861188768688
2718,47.8160933511608
2718.25,47.8460678254528
2718.5,47.8760422997447
2718.75,47.9060167740367
2719,47.9359912483287
2719.25,47.9659657226206
2719.5,47.9959401969126
2719.75,48.0259146712046
2720,48.0558891454965
2720.25,48.0858636197885
2720.5,48.1158380940804
2720.75,48.1458125683724
2721,48.1757870426644
2721.25,48.1577488756535
2721.5,47.937936064179
2721.75,47.7181232527046
2722,47.4983104412302
2722.25,47.2784976297558
2722.5,47.0586848182814
2722.75,46.8388720068069
2723,46.6190591953325
2723.25,46.3992463838581
2723.5,46.1794335723837
2723.75,45.9596207609093
2724,45.7398079494348
2724.25,45.5199951379604
2724.5,45.300182326486
2724.75,45.0803695150116
2725,44.8605567035371
2725.25,44.6407438920627
2725.5,44.4209310805883
2725.75,44.2011182691139
2726,43.9813054576395
2726.25,43.7746201531542
2726.5,43.6297435274097
2726.75,43.4848669016654
2727,43.3399902759208
2727.25,43.1951136501763
2727.5,43.0502370244318
2727.75,42.9053603986873
2728,42.7604837729428
2728.25,42.6156071471983
2728.5,42.4707305214538
2728.75,42.3258538957093
2729,42.1809772699648
2729.25,42.0361006442203
2729.5,41.8912240184758
2729.75,41.7463473927313
2730,41.6014707669868
2730.25,41.4565941412423
2730.5,41.3117175154978
2730.75,41.1668408897533
2731,41.0219642640088
2731.25,40.8873586969734
2731.5,40.8074267655281
2731.75,40.7274948340829
2732,40.6475629026377
2732.25,40.5676309711924
2732.5,40.4876990397472
2732.75,40.4077671083019
2733,40.3278351768567
2733.25,40.2479032454115
2733.5,40.1679713139663
2733.75,40.088039382521
2734,40.0081074510758
2734.25,39.9281755196305
2734.5,39.8482435881853
2734.75,39.76831165674
2735,39.6883797252948
2735.25,39.6084477938496
2735.5,39.5285158624043
2735.75,39.4485839309591
2736,39.3686519995138
2736.25,39.3211498723714
2736.5,39.4710222438312
2736.75,39.6208946152911
2737,39.7707669867509
2737.25,39.9206393582107
2737.5,40.0705117296706
2737.75,40.2203841011304
2738,40.3702564725902
2738.25,40.5201288440501
2738.5,40.6700012155099
2738.75,40.8198735869697
2739,40.9697459584296
2739.25,41.1196183298894
2739.5,41.2694907013492
2739.75,41.4193630728089
2740,41.5692354442688
2740.25,41.7191078157286
2740.5,41.8689801871884
2740.75,42.0188525586483
2741,42.1687249301081
2741.25,42.3055791904704
2741.5,42.3505409019083
2741.75,42.3955026133463
2742,42.4404643247842
2742.25,42.4854260362222
2742.5,42.5303877476601
2742.75,42.5753494590981
2743,42.620311170536
2743.25,42.665272881974
2743.5,42.7102345934119
2743.75,42.7551963048499
2744,42.8001580162878
2744.25,42.8451197277258
2744.5,42.8900814391637
2744.75,42.9350431506017
2745,42.9800048620396
2745.25,43.0249665734776
2745.5,43.0699282849155
2745.75,43.1148899963535
2746,43.1598517077914
2746.25,43.2010696487176
2746.5,43.2110611401483
2746.75,43.2210526315789
2747,43.2310441230096
2747.25,43.2410356144403
2747.5,43.2510271058709
2747.75,43.2610185973016
2748,43.2710100887322
2748.25,43.2810015801629
2748.5,43.2909930715935
2748.75,43.3009845630242
2749,43.3109760544548
2749.25,43.3209675458855
2749.5,43.3309590373161
2749.75,43.3409505287468
2750,43.3509420201775
2750.25,43.3609335116081
2750.5,43.3709250030388
2750.75,43.3809164944694
2751,43.3909079859001
2751.25,43.3937036586848
2751.5,43.3237632186702
2751.75,43.2538227786556
2752,43.183882338641
2752.25,43.1139418986265
2752.5,43.0440014586119
2752.75,42.9740610185973
2753,42.9041205785828
2753.25,42.8341801385682
2753.5,42.7642396985536
2753.75,42.694299258539
2754,42.6243588185244
2754.25,42.5544183785098
2754.5,42.4844779384952
2754.75,42.4145374984806
2755,42.3445970584661
2755.25,42.2746566184515
2755.5,42.2047161784369
2755.75,42.1347757384223
2756,42.0648352984077
2756.25,41.9927069405616
2756.5,41.892792026255
2756.75,41.7928771119485
2757,41.6929621976419
2757.25,41.5930472833354
2757.5,41.4931323690288
2757.75,41.3932174547223
2758,41.2933025404157
2758.25,41.1933876261091
2758.5,41.0934727118026
2758.75,40.993557797496
2759,40.8936428831896
2759.25,40.793727968883
2759.5,40.6938130545765
2759.75,40.5938981402699
2760,40.4939832259633
2760.25,40.3940683116568
2760.5,40.2941533973502
2760.75,40.1942384830437
2761,40.0943235687371
2761.25,39.9997204327215
2761.5,39.9947246870062
2761.75,39.9897289412909
2762,39.9847331955755
2762.25,39.9797374498602
2762.5,39.9747417041449
2762.75,39.9697459584296
2763,39.9647502127142
2763.25,39.9597544669989
2763.5,39.9547587212836
2763.75,39.9497629755682
2764,39.9447672298529
2764.25,39.9397714841376
2764.5,39.9347757384223
2764.75,39.9297799927069
2765,39.9247842469916
2765.25,39.9197885012763
2765.5,39.914792755561
2765.75,39.9097970098456
2766,39.9048012641303
2766.25,39.899805518415
2766.5,39.8948097726997
2766.75,39.8898140269843
2767,39.884818281269
2767.25,39.8798225355537
2767.5,39.8748267898383
2767.75,39.869831044123
2768,39.8648352984077
2768.25,39.8598395526924
2768.5,39.854843806977
2768.75,39.8498480612617
2769,39.8448523155464
2769.25,39.839856569831
2769.5,39.8348608241157
2769.75,39.8298650784004
2770,39.8248693326851
2770.25,39.8198735869697
2770.5,39.8148778412544
2770.75,39.8098820955391
2771,39.8048863498237
2771.25,39.8022973137231
2771.5,39.907207973745
2771.75,40.0121186337668
2772,40.1170292937887
2772.25,40.2219399538106
2772.5,40.3268506138324
2772.75,40.4317612738543
2773,40.5366719338762
2773.25,40.6415825938981
2773.5,40.74649325392
2773.75,40.8514039139419
2774,40.9563145739637
2774.25,41.0612252339856
2774.5,41.1661358940075
2774.75,41.2710465540294
2775,41.3759572140513
2775.25,41.4808678740731
2775.5,41.585778534095
2775.75,41.6906891941169
2776,41.7955998541388
2776.25,41.900194481585
2776.5,41.9401604473076
2776.75,41.9801264130303
2777,42.0200923787529
2777.25,42.0600583444755
2777.5,42.1000243101981
2777.75,42.1399902759208
2778,42.1799562416433
2778.25,42.219922207366
2778.5,42.2598881730886
2778.75,42.2998541388112
2779,42.3398201045338
2779.25,42.3797860702565
2779.5,42.4197520359791
2779.75,42.4597180017017
2780,42.4996839674243
2780.25,42.5396499331469
2780.5,42.5796158988696
2780.75,42.6195818645922
2781,42.6595478303148
2781.25,42.6995137960374
2781.5,42.68026011912
2781.75,42.6602771362587
2782,42.6402941533974
2782.25,42.620311170536
2782.5,42.6003281876747
2782.75,42.5803452048134
2783,42.5603622219521
2783.25,42.5403792390908
2783.5,42.5203962562295
2783.75,42.5004132733682
2784,42.4804302905069
2784.25,42.4604473076456
2784.5,42.4404643247843
2784.75,42.420481341923
2785,42.4004983590616
2785.25,42.3805153762003
2785.5,42.360532393339
2785.75,42.3405494104777
2786,42.3205664276164
2786.25,42.3005834447551
2786.5,42.3727482678983
2786.75,42.4476844536283
2787,42.5226206393582
2787.25,42.5975568250881
2787.5,42.672493010818
2787.75,42.7474291965479
2788,42.8223653822778
2788.25,42.8973015680078
2788.5,42.9722377537377
2788.75,43.0471739394676
2789,43.1221101251975
2789.25,43.1970463109274
2789.5,43.2719824966573
2789.75,43.3469186823873
2790,43.4218548681172
2790.25,43.4967910538471
2790.5,43.571727239577
2790.75,43.6466634253069
2791,43.7215996110368
2791.25,43.7965357967667
2791.5,43.6475264373406
2791.75,43.4876625744501
2792,43.3277987115596
2792.25,43.1679348486691
2792.5,43.0080709857786
2792.75,42.8482071228881
2793,42.6883432599976
2793.25,42.5284793971071
2793.5,42.3686155342167
2793.75,42.2087516713262
2794,42.0488878084357
2794.25,41.8890239455452
2794.5,41.7291600826547
2794.75,41.5692962197642
2795,41.4094323568737
2795.25,41.2495684939832
2795.5,41.0897046310928
2795.75,40.9298407682023
2796,40.7699769053118
2796.25,40.6101130424213
2796.5,40.7263522547709
2796.75,40.8612373890847
2797,40.9961225233986
2797.25,41.1310076577123
2797.5,41.2658927920262
2797.75,41.40077792634
2798,41.5356630606539
2798.25,41.6705481949677
2798.5,41.8054333292816
2798.75,41.9403184635954
2799,42.0752035979093
2799.25,42.2100887322231
2799.5,42.344973866537
2799.75,42.4798590008508
2800,42.6147441351647
2800.25,42.7496292694785
2800.5,42.8845144037924
2800.75,43.0193995381062
2801,43.1542846724201
2801.25,43.2891698067339
2801.5,43.2908107451076
2801.75,43.2808192536769
2802,43.2708277622463
2802.25,43.2608362708156
2802.5,43.2508447793849
2802.75,43.2408532879543
2803,43.2308617965236
2803.25,43.220870305093
2803.5,43.2108788136623
2803.75,43.2008873222317
2804,43.190895830801
2804.25,43.1809043393704
2804.5,43.1709128479397
2804.75,43.1609213565091
2805,43.1509298650784
2805.25,43.1409383736477
2805.5,43.1309468822171
2805.75,43.1209553907864
2806,43.1109638993558
2806.25,43.1009724079251
2806.5,43.1631335845387
2806.75,43.2330740245533
2807,43.3030144645679
2807.25,43.3729549045825
2807.5,43.442895344597
2807.75,43.5128357846116
2808,43.5827762246262
2808.25,43.6527166646408
2808.5,43.7226571046554
2808.75,43.79259754467
2809,43.8625379846846
2809.25,43.9324784246992
2809.5,44.0024188647138
2809.75,44.0723593047283
2810,44.1422997447429
2810.25,44.2122401847575
2810.5,44.282180624772
2810.75,44.3521210647866
2811,44.4220615048012
2811.25,44.4920019448158
2811.5,44.4026619666951
2811.75,44.2927555609579
2812,44.1828491552207
2812.25,44.0729427494835
2812.5,43.9630363437462
2812.75,43.853129938009
2813,43.7432235322718
2813.25,43.6333171265346
2813.5,43.5234107207974
2813.75,43.4135043150602
2814,43.303597909323
2814.25,43.1936915035858
2814.5,43.0837850978486
2814.75,42.9738786921113
2815,42.8639722863741
2815.25,42.7540658806369
2815.5,42.6441594748997
2815.75,42.5342530691625
2816,42.4243466634253
2816.25,42.3144402576881
2816.5,42.3130181110976
2816.75,42.3280053482436
2817,42.3429925853896
2817.25,42.3579798225355
2817.5,42.3729670596815
2817.75,42.3879542968275
2818,42.4029415339735
2818.25,42.4179287711195
2818.5,42.4329160082655
2818.75,42.4479032454114
2819,42.4628904825574
2819.25,42.4778777197034
2819.5,42.4928649568494
2819.75,42.5078521939954
2820,42.5228394311414
2820.25,42.5378266682873
2820.5,42.5528139054333
2820.75,42.5678011425793
2821,42.5827883797253
2821.25,42.5977756168713
2821.5,42.5914914306552
2821.75,42.5814999392245
2822,42.5715084477939
2822.25,42.5615169563632
2822.5,42.5515254649325
2822.75,42.5415339735019
2823,42.5315424820712
2823.25,42.5215509906406
2823.5,42.5115594992099
2823.75,42.5015680077793
2824,42.4915765163486
2824.25,42.481585024918
2824.5,42.4715935334873
2824.75,42.4616020420566
2825,42.451610550626
2825.25,42.4416190591953
2825.5,42.4316275677647
2825.75,42.421636076334
2826,42.4116445849034
2826.25,42.4016530934727
2826.5,42.3749848061262
2826.75,42.3450103318342
2827,42.3150358575422
2827.25,42.2850613832503
2827.5,42.2550869089583
2827.75,42.2251124346663
2828,42.1951379603744
2828.25,42.1651634860824
2828.5,42.1351890117904
2828.75,42.1052145374985
2829,42.0752400632065
2829.25,42.0452655889146
2829.5,42.0152911146226
2829.75,41.9853166403306
2830,41.9553421660387
2830.25,41.9253676917467
2830.5,41.8953932174547
2830.75,41.8654187431628
2831,41.8354442688708
2831.25,41.8054697945788
2831.5,41.8122523398566
2831.75,41.8272395770025
2832,41.8422268141485
2832.25,41.8572140512945
2832.5,41.8722012884405
2832.75,41.8871885255865
2833,41.9021757627325
2833.25,41.9171629998784
2833.5,41.9321502370244
2833.75,41.9471374741704
2834,41.9621247113164
2834.25,41.9771119484624
2834.5,41.9920991856084
2834.75,42.0070864227543
2835,42.0220736599003
2835.25,42.0370608970463
2835.5,42.0520481341923
2835.75,42.0670353713383
2836,42.0820226084843
2836.25,42.0970098456302
2836.5,42.1919776346177
2836.75,42.3068797860702
2837,42.4217819375227
2837.25,42.5366840889753
2837.5,42.6515862404278
2837.75,42.7664883918803
2838,42.8813905433329
2838.25,42.9962926947854
2838.5,43.111194846238
2838.75,43.2260969976905
2839,43.340999149143
2839.25,43.4559013005956
2839.5,43.5708034520481
2839.75,43.6857056035007
2840,43.8006077549532
2840.25,43.9155099064057
2840.5,44.0304120578583
2840.75,44.1453142093108
2841,44.2602163607633
2841.25,44.3751185122159
2841.5,44.6191807463231
2841.75,44.8989425063815
2842,45.1787042664396
2842.25,45.4584660264979
2842.5,45.7382277865563
2842.75,46.0179895466146
2843,46.297751306673
2843.25,46.5775130667313
2843.5,46.8572748267897
2843.75,47.137036586848
2844,47.4167983469064
2844.25,47.6965601069648
2844.5,47.9763218670231
2844.75,48.2560836270815
2845,48.5358453871398
2845.25,48.8156071471982
2845.5,49.0953689072565
2845.75,49.3751306673149
2846,49.6548924273732
2846.25,49.9346541874316
2846.5,49.9540537255379
2846.75,49.8941047769539
2847,49.83415582837
2847.25,49.7742068797861
2847.5,49.7142579312021
2847.75,49.6543089826182
2848,49.5943600340343
2848.25,49.5344110854503
2848.5,49.4744621368665
2848.75,49.4145131882825
2849,49.3545642396986
2849.25,49.2946152911147
2849.5,49.2346663425307
2849.75,49.1747173939468
2850,49.1147684453629
2850.25,49.0548194967789
2850.5,48.994870548195
2850.75,48.9349215996111
2851,48.8749726510271
2851.25,48.8150237024432
2851.5,48.7737936064179
2851.75,48.7388233864106
2852,48.7038531664033
2852.25,48.668882946396
2852.5,48.6339127263887
2852.75,48.5989425063814
2853,48.5639722863741
2853.25,48.5290020663668
2853.5,48.4940318463595
2853.75,48.4590616263523
2854,48.424091406345
2854.25,48.3891211863377
2854.5,48.3541509663304
2854.75,48.3191807463231
2855,48.2842105263158
2855.25,48.2492403063085
2855.5,48.2142700863012
2855.75,48.1792998662939
2856,48.1443296462866
2856.25,48.1093594262793
2856.5,48.0158502491796
2856.75,47.9009480977271
2857,47.7860459462745
2857.25,47.671143794822
2857.5,47.5562416433694
2857.75,47.4413394919169
2858,47.3264373404644
2858.25,47.2115351890118
2858.5,47.0966330375593
2858.75,46.9817308861067
2859,46.8668287346542
2859.25,46.7519265832017
2859.5,46.6370244317491
2859.75,46.5221222802966
2860,46.4072201288441
2860.25,46.2923179773915
2860.5,46.177415825939
2860.75,46.0625136744864
2861,45.9476115230339
2861.25,45.8327093715815
2861.5,45.7928528017503
2861.75,45.7828613103197
2862,45.772869818889
2862.25,45.7628783274584
2862.5,45.7528868360277
2862.75,45.7428953445971
2863,45.7329038531664
2863.25,45.7229123617358
2863.5,45.7129208703051
2863.75,45.7029293788744
2864,45.6929378874438
2864.25,45.6829463960131
2864.5,45.6729549045825
2864.75,45.6629634131518
2865,45.6529719217212
2865.25,45.6429804302905
2865.5,45.6329889388599
2865.75,45.6229974474292
2866,45.6130059559985
2866.25,45.6030144645679
2866.5,45.7220979700985
2866.75,45.8969490701349
2867,46.0718001701714
2867.25,46.2466512702079
2867.5,46.4215023702443
2867.75,46.5963534702807
2868,46.7712045703171
2868.25,46.9460556703536
2868.5,47.1209067703901
2868.75,47.2957578704265
2869,47.470608970463
2869.25,47.6454600704995
2869.5,47.820311170536
2869.75,47.9951622705724
2870,48.1700133706089
2870.25,48.3448644706454
2870.5,48.5197155706818
2870.75,48.6945666707183
2871,48.8694177707548
2871.25,49.0442688707913
2871.5,49.0421417284551
2871.75,48.9572140512945
2872,48.872286374134
2872.25,48.7873586969734
2872.5,48.7024310198128
2872.75,48.6175033426522
2873,48.5325756654917
2873.25,48.4476479883311
2873.5,48.3627203111705
2873.75,48.27779263401
2874,48.1928649568495
2874.25,48.1079372796889
2874.5,48.0230096025283
2874.75,47.9380819253677
2875,47.8531542482072
2875.25,47.7682265710466
2875.5,47.683298893886
2875.75,47.5983712167255
2876,47.5134435395649
2876.25,47.4285158624043
2876.5,47.3469065272882
2876.75,47.266974595843
2877,47.1870426643977
2877.25,47.1071107329525
2877.5,47.0271788015072
2877.75,46.947246870062
2878,46.8673149386168
2878.25,46.7873830071715
2878.5,46.7074510757263
2878.75,46.627519144281
2879,46.5475872128358
2879.25,46.4676552813905
2879.5,46.3877233499453
2879.75,46.3077914185001
2880,46.2278594870548
2880.25,46.1479275556096
2880.5,46.0679956241644
2880.75,45.9880636927192
2881,45.9081317612739
2881.25,45.8281998298287
2881.5,45.6642032332565
2881.75,45.4543819132127
2882,45.2445605931689
2882.25,45.0347392731252
2882.5,44.8249179530814
2882.75,44.6150966330376
2883,44.4052753129939
2883.25,44.1954539929501
2883.5,43.9856326729063
2883.75,43.7758113528626
2884,43.5659900328188
2884.25,43.3561687127751
2884.5,43.1463473927313
2884.75,42.9365260726875
2885,42.7267047526438
2885.25,42.5168834326
2885.5,42.3070621125562
2885.75,42.0972407925125
2886,41.8874194724687
2886.25,41.6775981524249
2886.5,41.6251853652607
2886.75,41.6651513309834
2887,41.7051172967059
2887.25,41.7450832624286
2887.5,41.7850492281512
2887.75,41.8250151938738
2888,41.8649811595964
2888.25,41.904947125319
2888.5,41.9449130910417
2888.75,41.9848790567643
2889,42.0248450224869
2889.25,42.0648109882095
2889.5,42.1047769539322
2889.75,42.1447429196548
2890,42.1847088853774
2890.25,42.2246748511
2890.5,42.2646408168226
2890.75,42.3046067825453
2891,42.3445727482679
2891.25,42.3845387139905
2891.5,42.4888294639601
2891.75,42.6337060897046
2892,42.7785827154491
2892.25,42.9234593411936
2892.5,43.0683359669381
2892.75,43.2132125926826
2893,43.3580892184271
2893.25,43.5029658441715
2893.5,43.647842469916
2893.75,43.7927190956605
2894,43.937595721405
2894.25,44.0824723471495
2894.5,44.227348972894
2894.75,44.3722255986386
2895,44.5171022243831
2895.25,44.6619788501276
2895.5,44.8068554758721
2895.75,44.9517321016166
2896,45.0966087273611
2896.25,45.2414853531056
2896.5,45.3446699890604
2896.75,45.4196061747903
2897,45.4945423605202
2897.25,45.5694785462501
2897.5,45.64441473198
2897.75,45.71935091771
2898,45.7942871034399
2898.25,45.8692232891698
2898.5,45.9441594748997
2898.75,46.0190956606296
2899,46.0940318463595
2899.25,46.1689680320895
2899.5,46.2439042178194
2899.75,46.3188404035492
2900,46.3937765892791
2900.25,46.4687127750091
2900.5,46.543648960739
2900.75,46.6185851464689
2901,46.6935213321988
2901.25,46.7684575179287
2901.5,46.8810015801628
2901.75,47.020882460192
2902,47.1607633402212
2902.25,47.3006442202503
2902.5,47.4405251002795
2902.75,47.5804059803087
2903,47.7202868603379
2903.25,47.860167740367
2903.5,48.0000486203962
2903.75,48.1399295004254
2904,48.2798103804546
2904.25,48.4196912604838
2904.5,48.5595721405129
2904.75,48.6994530205421
2905,48.8393339005713
2905.25,48.9792147806005
2905.5,49.1190956606296
2905.75,49.2589765406588
2906,49.3988574206879
2906.25,49.5387383007171
2906.5,49.5887686884648
2906.75,49.5687857056035
2907,49.5488027227422
2907.25,49.5288197398809
2907.5,49.5088367570196
2907.75,49.4888537741583
2908,49.468870791297
2908.25,49.4488878084357
2908.5,49.4289048255743
2908.75,49.408921842713
2909,49.3889388598517
2909.25,49.3689558769904
2909.5,49.3489728941291
2909.75,49.3289899112678
2910,49.3090069284065
2910.25,49.2890239455452
2910.5,49.2690409626839
2910.75,49.2490579798225
2911,49.2290749969612
2911.25,49.2090920140999
2911.5,49.1509906405737
2911.75,49.0610672176978
2912,48.9711437948219
2912.25,48.881220371946
2912.5,48.7912969490702
2912.75,48.7013735261943
2913,48.6114501033184
2913.25,48.5215266804425
2913.5,48.4316032575666
2913.75,48.3416798346907
2914,48.2517564118148
2914.25,48.1618329889389
2914.5,48.071909566063
2914.75,47.9819861431871
2915,47.8920627203112
2915.25,47.8021392974353
2915.5,47.7122158745594
2915.75,47.6222924516835
2916,47.5323690288076
2916.25,47.4424456059317
2916.5,47.3155949920992
2916.75,47.1557311292087
2917,46.9958672663182
2917.25,46.8360034034277
2917.5,46.6761395405373
2917.75,46.5162756776468
2918,46.3564118147563
2918.25,46.1965479518658
2918.5,46.0366840889753
2918.75,45.876820226085
2919,45.7169563631945
2919.25,45.557092500304
2919.5,45.3972286374135
2919.75,45.237364774523
2920,45.0775009116325
2920.25,44.917637048742
2920.5,44.7577731858515
2920.75,44.5979093229611
2921,44.4380454600706
2921.25,44.2781815971801
2921.5,44.177026862769
2921.75,44.132065151331
2922,44.087103439893
2922.25,44.0421417284551
2922.5,43.9971800170172
2922.75,43.9522183055792
2923,43.9072565941413
2923.25,43.8622948827033
2923.5,43.8173331712654
2923.75,43.7723714598274
2924,43.7274097483894
2924.25,43.6824480369515
2924.5,43.6374863255135
2924.75,43.5925246140756
2925,43.5475629026377
2925.25,43.5026011911997
2925.5,43.4576394797618
2925.75,43.4126777683238
2926,43.3677160568859
2926.25,43.3227543454479
2926.5,43.27039017868
2926.75,43.2104412300961
2927,43.1504922815121
2927.25,43.0905433329282
2927.5,43.0305943843443
2927.75,42.9706454357603
2928,42.9106964871764
2928.25,42.8507475385925
2928.5,42.7907985900085
2928.75,42.7308496414246
2929,42.6709006928407
2929.25,42.6109517442567
2929.5,42.5510027956728
2929.75,42.4910538470889
2930,42.4311048985049
2930.25,42.371155949921
2930.5,42.3112070013371
2930.75,42.2512580527531
2931,42.1913091041692
2931.25,42.1313601555853
2931.5,42.0904704023338
2931.75,42.0704874194725
2932,42.0505044366112
2932.25,42.0305214537499
2932.5,42.0105384708886
2932.75,41.9905554880272
2933,41.9705725051659
2933.25,41.9505895223046
2933.5,41.9306065394433
2933.75,41.910623556582
2934,41.8906405737207
2934.25,41.8706575908594
2934.5,41.8506746079981
2934.75,41.8306916251368
2935,41.8107086422754
2935.25,41.7907256594141
2935.5,41.7707426765528
2935.75,41.7507596936915
2936,41.7307767108302
2936.25,41.7107937279689
2936.5,41.6770268627689
2936.75,41.6270694056157
2937,41.5771119484624
2937.25,41.5271544913091
2937.5,41.4771970341558
2937.75,41.4272395770026
2938,41.3772821198493
2938.25,41.327324662696
2938.5,41.2773672055428
2938.75,41.2274097483895
2939,41.1774522912362
2939.25,41.1274948340829
2939.5,41.0775373769297
2939.75,41.0275799197764
2940,40.9776224626231
2940.25,40.9276650054698
2940.5,40.8777075483165
2940.75,40.8277500911633
2941,40.77779263401
2941.25,40.7278351768567
2941.5,40.7287589643855
2941.75,40.7937036586848
2942,40.8586483529841
2942.25,40.9235930472833
2942.5,40.9885377415826
2942.75,41.0534824358818
2943,41.1184271301811
2943.25,41.1833718244804
2943.5,41.2483165187796
2943.75,41.3132612130789
2944,41.3782059073782
2944.25,41.4431506016774
2944.5,41.5080952959766
2944.75,41.5730399902759
2945,41.6379846845751
2945.25,41.7029293788744
2945.5,41.7678740731737
2945.75,41.8328187674729
2946,41.8977634617722
2946.25,41.9627081560714
2946.5,42.0042542846724
2946.75,42.0142457761031
2947,42.0242372675337
2947.25,42.0342287589644
2947.5,42.044220250395
2947.75,42.0542117418257
2948,42.0642032332564
2948.25,42.074194724687
2948.5,42.0841862161177
2948.75,42.0941777075483
2949,42.104169198979
2949.25,42.1141606904096
2949.5,42.1241521818403
2949.75,42.1341436732709
2950,42.1441351647016
2950.25,42.1541266561322
2950.5,42.1641181475629
2950.75,42.1741096389936
2951,42.1841011304242
2951.25,42.1940926218549
2951.5,42.2612616992828
2951.75,42.4111340707426
2952,42.5610064422024
2952.25,42.7108788136622
2952.5,42.8607511851221
2952.75,43.0106235565819
2953,43.1604959280417
2953.25,43.3103682995016
2953.5,43.4602406709614
2953.75,43.6101130424212
2954,43.7599854138811
2954.25,43.9098577853409
2954.5,44.0597301568007
2954.75,44.2096025282606
2955,44.3594748997204
2955.25,44.5093472711802
2955.5,44.6592196426401
2955.75,44.8090920140999
2956,44.9589643855597
2956.25,45.1088367570196
2956.5,45.1158502491795
2956.75,44.9010331834204
2957,44.6862161176613
2957.25,44.4713990519024
2957.5,44.2565819861433
2957.75,44.0417649203843
2958,43.8269478546252
2958.25,43.6121307888661
2958.5,43.397313723107
2958.75,43.1824966573479
2959,42.9676795915888
2959.25,42.7528625258297
2959.5,42.5380454600706
2959.75,42.3232283943115
2960,42.1084113285524
2960.25,41.8935942627933
2960.5,41.6787771970342
2960.75,41.4639601312751
2961,41.249143065516
2961.25,41.0343259997569
2961.5,40.9056156557676
2961.75,40.9206028929136
2962,40.9355901300596
2962.25,40.9505773672055
2962.5,40.9655646043515
2962.75,40.9805518414975
2963,40.9955390786435
2963.25,41.0105263157895
2963.5,41.0255135529355
2963.75,41.0405007900814
2964,41.0554880272274
2964.25,41.0704752643734
2964.5,41.0854625015194
2964.75,41.1004497386654
2965,41.1154369758113
2965.25,41.1304242129573
2965.5,41.1454114501033
2965.75,41.1603986872493
2966,41.1753859243953
2966.25,41.1903731615413
2966.5,41.1731980065638
2966.75,41.0982618208339
2967,41.023325635104
2967.25,40.948389449374
2967.5,40.8734532636441
2967.75,40.7985170779142
2968,40.7235808921843
2968.25,40.6486447064544
2968.5,40.5737085207245
2968.75,40.4987723349945
2969,40.4238361492646
2969.25,40.3488999635347
2969.5,40.2739637778048
2969.75,40.1990275920749
2970,40.124091406345
2970.25,40.0491552206151
2970.5,39.9742190348852
2970.75,39.8992828491553
2971,39.8243466634254
