2011,731.866074377535
2011.25,731.782331318046
2011.5,730.47734312351
2011.75,728.749676186099
2012,727.435389344275
2012.25,726.866303504224
2012.5,726.874371057637
2012.75,727.256447068172
2013,727.597177105674
2013.25,727.314098534687
2013.5,725.93458294713
2013.75,724.237757119736
2014,723.77493908775
2014.25,725.812924334639
2014.5,729.25061717296
2014.75,731.850387671812
2015,731.820165644212
2015.25,729.97559692862
2015.5,728.064044811752
2015.75,727.521389512346
2016,728.336803735688
2016.25,730.08129094149
2016.5,732.127410014029
2016.75,733.142739258903
2017,731.639558035811
2017.25,727.121741898323
2017.5,721.87612314148
2017.75,718.668323915118
2018,718.894125966967
2018.25,720.82016999165
2018.5,722.295550688917
2018.75,722.357841532856
2019,721.976102159237
2019.25,722.269399301335
2019.5,723.45902860978
2019.75,724.681802262821
2020,725.068477462173
2020.25,724.878835831851
2020.5,725.390519360372
2020.75,727.821491709789
2021,732.15570187181
2021.25,737.521830973997
2021.5,742.995793897449
2021.75,747.328477949349
2022,749.096770590953
2022.25,747.235622801209
2022.5,743.517765331733
2022.75,741.061535838099
2023,742.447407349213
2023.25,746.004910532871
2023.5,748.070383262154
2023.75,745.671984279738
2024,740.715930661044
2024.25,737.175739233513
2024.5,738.303607079803
2024.75,742.423583433708
2025,745.818188960086
2025.25,745.446093816989
2025.5,742.192258126641
2025.75,738.342499963496
2026,735.855039727276
2026.25,734.884899718121
2026.5,734.973094422382
2026.75,735.627283910613
2027,736.199707565147
2027.25,735.996670919349
2027.5,734.709559528196
2027.75,733.551437418805
2028,734.111042861082
2028.25,737.23918471639
2028.5,741.320274153488
2028.75,744.225195628313
2029,744.676321867781
2029.25,743.754388518892
2029.5,742.943803369305
2029.75,743.14790535771
2030,743.768377428811
2030.25,743.96877406168
2030.5,743.26863118318
2030.75,742.036804684354
2031,740.765157609999
2031.25,739.742077186352
2031.5,738.802274700503
2031.75,737.720529920061
2032,736.4674748023
2032.25,735.408767155123
2032.5,734.955013910747
2032.75,735.291893620607
2033,736.207286234032
2033.25,737.442983687672
2033.5,738.441100847468
2033.75,738.192696196339
2034,735.693887202302
2034.25,731.62211195006
2034.5,728.859813326312
2034.75,730.339914304828
2035,736.054778511924
2035.25,742.632290824693
2035.5,746.650609023125
2035.75,747.357400444024
2036,746.453103188894
2036.25,745.673640514683
2036.5,745.743398588169
2036.75,746.504755950277
2037,747.744503838442
2037.25,748.80689615089
2037.5,748.666175122973
2037.75,746.394377295148
2038,742.829856329518
2038.25,740.241944240084
2038.5,740.774475866158
2038.75,743.96114219039
2039,747.265165029724
2039.25,748.267084588466
2039.5,746.88035939077
2039.75,744.68369662424
2040,743.190873664032
2040.25,742.605735883751
2040.5,742.216780218571
2040.75,741.336491592019
2041,739.785054278781
2041.25,737.715460992642
2041.5,735.321317093008
2041.75,733.165036895895
2042,732.030915680169
2042.25,732.569967949128
2042.5,734.225776294797
2042.75,735.811233302925
2043,736.322495530526
2043.25,736.077835769586
2043.5,735.960743863287
2043.75,736.680733945048
2044,737.912044780319
2044.25,738.951835256819
2044.5,739.22865991649
2044.75,738.824776187995
2045,738.024523110642
2045.25,737.180717557682
2045.5,736.943034673133
2045.75,738.041638266065
2046,740.674131335983
2046.25,743.03751624886
2046.5,742.859421135829
2046.75,739.034263075084
2047,734.25496077946
2047.25,731.985043048172
2047.5,734.144492287553
2047.75,738.026538084743
2048,740.066226386686
2048.25,738.353657054328
2048.5,735.00865905157
2048.75,732.746587031942
2049,733.125921244875
2049.25,735.188756816036
2049.5,737.650414464948
2049.75,739.59180732409
2050,740.753175453697
2050.25,740.951569196561
2050.5,740.4793774896
2050.75,740.37404590035
2051,741.71366719153
2051.25,744.398151350113
2051.5,746.649575209927
2051.75,746.600561336894
2052,743.882379785155
2052.25,740.066852663137
2052.5,736.835741975601
2052.75,735.182434544219
2053,735.236714450861
2053.25,737.04352481889
2053.5,739.811198327582
2053.75,741.822524098151
2054,741.395332353582
2054.25,738.609453806492
2054.5,735.228845458535
2054.75,733.014199503111
2055,732.423564005107
2055.25,732.769835939553
2055.5,733.350637654782
2055.75,733.800522829236
2056,734.004421778183
2056.25,733.870189577309
2056.5,733.492892949102
2056.75,733.083700378976
2057,732.838714799902
2057.25,732.805576863011
2057.5,732.954527871314
2057.75,733.292413955993
2058,734.089921206413
2058.25,735.731585276621
2058.5,738.439923866641
2058.75,741.507590944071
2059,743.896989394876
2059.25,744.779621238649
2059.5,744.337991482659
2059.75,743.05918938581
2060,741.428088074562
2060.25,739.919335357765
2060.5,739.004711175671
2060.75,738.954061821977
2061,739.20400075028
2061.25,738.976268512964
2061.5,737.780999714882
2061.75,736.17119142436
2062,734.935386073008
2062.25,734.590062683734
2062.5,734.788567198231
2062.75,735.013743658946
2063,734.899671435726
2063.25,734.483153838535
2063.5,733.866990989139
2063.75,733.087693917903
2064,732.032950308502
2064.25,730.573266662704
2064.5,728.913726122822
2064.75,727.888508171559
2065,728.38699871907
2065.25,730.469867548949
2065.5,732.928666859712
2065.75,734.476843160855
2066,734.809812110894
2066.25,734.814779914064
2066.5,735.433634702464
2066.75,737.196604357922
2067,740.211286557229
2067.25,744.514036606455
2067.5,749.185404756187
2067.75,752.466995616007
2068,752.697508574322
2068.25,750.235621186847
2068.5,747.070349507668
2068.75,745.121228164874
2069,744.347765863815
2069.25,743.07711221367
2069.5,739.731390244624
2069.75,735.023101338292
2070,731.493680404446
2070.25,731.538625866519
2070.5,734.807816526665
2070.75,738.93598015855
2071,741.680154983789
2071.25,742.575921053266
2071.5,742.224836339703
2071.75,741.259384770563
2072,740.463375784924
2072.25,740.701988151863
2072.5,742.660161413369
2072.75,745.529623609635
2073,747.76682002117
2073.25,748.174351683081
2073.5,748.132586696322
2073.75,750.170036177609
2074,756.232196000342
2074.25,764.057385399789
2074.5,769.551887550801
2074.75,769.281816691217
2075,764.647008312657
2075.25,759.175773004607
2075.5,756.107883119056
2075.75,755.87605288533
2076,757.371078416712
2076.25,759.487403725058
2076.5,761.325570931837
2076.75,762.109565361221
2077,761.151080543107
2077.25,758.777610085053
2077.5,755.979483727864
2077.75,753.717951387939
2078,752.382084063848
2078.25,751.936942500643
2078.5,752.325885249357
2078.75,753.31325209801
2079,754.523560897435
2079.25,755.591175794552
2079.5,756.364617098289
2079.75,756.863207710164
2080,757.112297743764
2080.25,757.159108278258
2080.5,757.069241237002
2080.75,756.916560068002
2081,756.923444080685
2081.25,757.446558261698
2081.5,758.834531641485
2081.75,761.154228063592
2082,764.198452198794
2082.25,767.730666687584
2082.5,771.055390512631
2082.75,772.991928563388
2083,772.37351490187
2083.25,769.361446007594
2083.5,765.776832253662
2083.75,763.529056485589
2084,763.469582693736
2084.25,764.762962604333
2084.5,766.423883218242
2084.75,767.559662236756
2085,767.449444903523
2085.25,765.394094276337
2085.5,761.320164802261
2085.75,756.539261030766
2086,752.5476295516
2086.25,750.250477052204
2086.5,748.984118229093
2086.75,747.828158281217
2087,746.348257614902
2087.25,745.445629493915
2087.5,746.247676268239
2087.75,749.177213069827
2088,752.765460993968
2088.25,755.231112129161
2088.5,755.506060463369
2088.75,754.350681335911
2089,752.814034780139
2089.25,751.797764957173
2089.5,751.803237097021
2089.75,753.263990908072
2090,756.170766705064
2090.25,759.269574007576
2090.5,761.089835588338
2090.75,760.734057667365
2091,758.972808680111
2091.25,756.878418167991
2091.5,755.257596991728
2091.75,754.037133322152
2092,752.961854990586
2092.25,751.893697801406
2092.5,751.116231575218
2092.75,751.007881061403
2093,751.773910786956
2093.25,752.973423569353
2093.5,754.01483233511
2093.75,754.411211722723
2094,754.070855668941
2094.25,752.995330324399
2094.5,751.247485078113
2094.75,749.132931384356
2095,747.017384213204
2095.25,745.291407225256
2095.5,744.447594856079
2095.75,745.004725613348
2096,747.250746051958
2096.25,750.559400089016
2096.5,754.078141003019
2096.75,757.056486462324
2097,759.124613248774
2097.25,760.001423889733
2097.5,759.53344905955
2097.75,758.066551522487
2098,756.068692889928
2098.25,754.022229997017
2098.5,752.473016991027
2098.75,751.984410334405
2099,752.934155552373
2099.25,754.820015049809
2099.5,756.879230398213
2099.75,758.374051534893
2100,758.688372412329
2100.25,757.242961442743
2100.5,753.83379364585
2100.75,750.240192008089
2101,748.894406241956
2101.25,751.57802590389
2101.5,756.323699129239
2101.75,759.824943854721
2102,759.475518223915
2102.25,756.661146172928
2102.5,754.176874513031
2102.75,754.351178560072
2103,756.499023910769
2103.25,758.741606899059
2103.5,759.470239205432
2103.75,758.92446975565
2104,758.110053302476
2104.25,757.933299455616
2104.5,758.526946240567
2104.75,759.6688717095
2105,761.14296269805
2105.25,762.799378734553
2105.5,764.521500311561
2105.75,766.189722870859
2106,767.653267258942
2106.25,768.74392160041
2106.5,769.289693852585
2106.75,769.075810618918
2107,767.859388153291
2107.25,765.456912411461
2107.5,762.640479566871
2107.75,760.949710193486
2108,761.863359139498
2108.25,765.096148502192
2108.5,768.670379613667
2108.75,770.606289280041
2109,770.66659368197
2109.25,770.488945231756
2109.5,771.766299647596
2109.75,774.666928542416
2110,777.336095914473
2110.25,777.798786157741
2110.5,775.478941991593
2110.75,772.12130484391
2111,769.685648701247
2111.25,769.340221773338
2111.5,770.467498949348
2111.75,772.205576668914
2112,773.996239436887
2112.25,776.142321252579
2112.5,779.098205586975
2112.75,783.023747654896
2113,786.995865044698
2113.25,789.842641083196
2113.5,790.676334222394
2113.75,790.090443002266
2114,789.159528533108
2114.25,788.783556593272
2114.5,788.351667000393
2114.75,786.479727494606
2115,781.924083710183
2115.25,775.669860057864
2115.5,770.435062151116
2115.75,768.894203062356
2116,771.181874463098
2116.25,774.58551809096
2116.5,776.282212617873
2116.75,775.219391274664
2117,772.766884820713
2117.25,770.463559016608
2117.5,769.29884702827
2117.75,769.269179138802
2118,770.265397019372
2118.25,771.897417317448
2118.5,773.134789993059
2118.75,772.859040222984
2119,770.691613169188
2119.25,768.374367116893
2119.5,768.026595732332
2119.75,770.843974197589
2120,774.547297091009
2120.25,776.040310719594
2120.5,773.072018960876
2120.75,767.338602948237
2121,761.687501599448
2121.25,758.553818840163
2121.5,757.72497748171
2121.75,757.942174418507
2122,758.058939564992
2122.25,757.776556148993
2122.5,757.17569258097
2122.75,756.305926204296
2123,754.947826198665
2123.25,752.750366940224
2123.5,749.504753104272
2123.75,746.287705280682
2124,744.855095643261
2124.25,746.660384475421
2124.5,750.310144907691
2124.75,752.873817636968
2125,751.813976262975
2125.25,748.113721065763
2125.5,744.555509388025
2125.75,743.620844831242
2126,744.959168456714
2126.25,746.724149396768
2126.5,747.269239562606
2126.75,746.715816314797
2127,746.059287207124
2127.25,746.178003836018
2127.5,746.968243331203
2127.75,747.856678130439
2128,748.329377897666
2128.25,748.343762162548
2128.5,748.072793624442
2128.75,747.703700043389
2129,747.520649387049
2129.25,747.851153254036
2129.5,748.922310127937
2129.75,750.238497658991
2130,750.988165098096
2130.25,750.514913918877
2130.5,749.257943985829
2130.75,748.124655870932
2131,747.908478273731
2131.25,748.582250075709
2131.5,749.764189084127
2131.75,751.101788921843
2132,752.454629815162
2132.25,753.7718896745
2132.5,754.979743033829
2132.75,755.843191304843
2133,756.059153868231
2133.25,755.441778603061
2133.5,754.659372313224
2133.75,754.757661154847
2134,756.616590623193
2134.25,759.800664854049
2134.5,763.252879851478
2134.75,765.985490603568
2135,767.622555430937
2135.25,768.093625507329
2135.5,767.364235921248
2135.75,765.741893447222
2136,763.733044365143
2136.25,761.85652236971
2136.5,760.761725596497
2136.75,761.190122564228
2137,763.781378721532
2137.25,767.501699826797
2137.5,769.964040109509
2137.75,768.87550576441
2138,764.570930154458
2138.25,759.794204306605
2138.5,757.311495541133
2138.75,757.95454376357
2139,760.370052241682
2139.25,763.106405583414
2139.5,765.360364439103
2139.75,767.12498156636
2140,768.438387446143
2140.25,769.166882809717
2140.5,768.937333473611
2140.75,767.369543435951
2141,764.90029763264
2141.25,763.345853340834
2141.5,764.646187324776
2141.75,769.358375107696
2142,775.197301096837
2142.25,779.531753003831
2142.5,780.766576209895
2142.75,779.79743428363
2143,777.886638851661
2143.25,776.124365526513
2143.5,775.02108153355
2143.75,774.965347774463
2144,776.146272477727
2144.25,777.813421635507
2144.5,778.939965459291
2144.75,778.67387408276
2145,777.281517360366
2145.25,775.469793826556
2145.5,773.899607861399
2145.75,772.793259635313
2146,772.13429093844
2146.25,771.911992243504
2146.5,772.224228777204
2146.75,773.246147755875
2147,775.126310977364
2147.25,777.475283523954
2147.5,779.421155470295
2147.75,780.10213173804
2148,779.475903024329
2148.25,778.44429363651
2148.5,777.952773154513
2148.75,778.398439092838
2149,779.311133261101
2149.25,780.146280407997
2149.5,780.760439711812
2149.75,781.871186214728
2150,784.30714668182
2150.25,788.328182298174
2150.5,792.473567692494
2150.75,794.958476890637
2151,794.530055866336
2151.25,792.349985277897
2151.5,790.264639136285
2151.75,789.889757093447
2152,791.010154088214
2152.25,792.537958104914
2152.5,793.41775192788
2152.75,793.121554274808
2153,791.508600846792
2153.25,788.470137127952
2153.5,784.591465965122
2153.75,781.256972271724
2154,779.881950998556
2154.25,780.72615717127
2154.5,782.015422828218
2154.75,781.772419389541
2155,779.258987281071
2155.25,776.77943604403
2155.5,777.096479793108
2155.75,781.828692152858
2156,788.51215837562
2156.25,793.772780381801
2156.5,795.08083609037
2156.75,794.073580789492
2157,793.671450087546
2157.25,796.355881166808
2157.5,800.837607344486
2157.75,803.908220931662
2158,802.55876816947
2158.25,797.286055728649
2158.5,791.444273934579
2158.75,788.424798192266
2159,789.352634971881
2159.25,792.10043547661
2159.5,794.29431814491
2159.75,794.51251044689
2160,793.420213001653
2160.25,791.95930889018
2160.5,790.849675865767
2160.75,790.000417011597
2161,789.135600147511
2161.25,788.04592140999
2161.5,786.926602887341
2161.75,786.124713156478
2162,785.958198407491
2162.25,786.448301451674
2162.5,787.444244987123
2162.75,788.782689137523
2163,790.118037675201
2163.25,790.949877691311
2163.5,790.792676940009
2163.75,789.884887390626
2164,789.379796607954
2164.25,790.482554448855
2164.5,793.551113266876
2164.75,797.282384345401
2165,800.180459581045
2165.25,801.197337581909
2165.5,800.669317991064
2165.75,799.199303039445
2166,797.299967109695
2166.25,794.975587025173
2166.5,792.052531420313
2166.75,788.432024923911
2167,784.815860950658
2167.25,782.390150375205
2167.5,782.281048079773
2167.75,784.257161483039
2168,786.820922030082
2168.25,788.442076707438
2168.5,788.205721479118
2168.75,785.998963838801
2169,781.768831070573
2169.25,776.218646558663
2169.5,771.533633151711
2169.75,770.069784520953
2170,772.97376971998
2170.25,777.950946213881
2170.5,782.098657587875
2170.75,783.329532037117
2171,782.493996001313
2171.25,781.103962737595
2171.5,780.50728652896
2171.75,781.182904693798
2172,783.323169287891
2172.25,786.985010624794
2172.5,791.169148479401
2172.75,794.379783619268
2173,795.254706455739
2173.25,794.137238044795
2173.5,792.530338782863
2173.75,791.912573762105
2174,792.505194130309
2174.25,793.159071223152
2174.5,792.66525605805
2174.75,790.548988765203
2175,787.583242405983
2175.25,784.661982717124
2175.5,782.48764814543
2175.75,781.23670509498
2176,780.996125546089
2176.25,781.734153919992
2176.5,782.925403615241
2176.75,783.91621705223
2177,784.121236467468
2177.25,783.368822325899
2177.5,781.642298491505
2177.75,779.009980388579
2178,776.336477541885
2178.25,774.922798599537
2178.5,775.988291872653
2178.75,779.47980838891
2179,784.3729075478
2179.25,789.608976280391
2179.5,793.910563929144
2179.75,795.783236358143
2180,793.764278630224
2180.25,788.503121204189
2180.5,783.737000061396
2180.75,783.440565992565
2181,789.332232847436
2181.25,797.734103950472
2181.5,804.178548296847
2181.75,805.540329213286
2182,803.409893363183
2182.25,800.412620355271
2182.5,798.835409317036
2182.75,798.672568241427
2183,798.967296090859
2183.25,798.841251261938
2183.5,798.512657078036
2183.75,798.984909996469
2184,801.237798580445
2184.25,804.928632168425
2184.5,808.133054585207
2184.75,808.841869166459
2185,806.246017299944
2185.25,801.98905784195
2185.5,798.014112782786
2185.75,795.907097162572
2186,795.80595527035
2186.25,797.48178902652
2186.5,800.573022537904
2186.75,803.748769023417
2187,805.248061305214
2187.25,803.463446187162
2187.5,799.009540128593
2187.75,794.159867049444
2188,791.187213530729
2188.25,790.708400797134
2188.5,791.141431086487
2188.75,790.75836224783
2189,788.773376672166
2189.25,786.36811819582
2189.5,784.970666819918
2189.75,785.463656670118
2190,786.904786897499
2190.25,787.970536275884
2190.5,787.609238882202
2190.75,786.153720009908
2191,784.376432656077
2191.25,782.9590992748
2191.5,781.837541378385
2191.75,780.581934933484
2192,778.801789278442
2192.25,776.660072752636
2192.5,774.711443741538
2192.75,773.496590920341
2193,773.072052010538
2193.25,773.025014747376
2193.5,772.935383128469
2193.75,772.80848835789
2194,773.179638505912
2194.25,774.607163226138
2194.5,776.99364298459
2194.75,779.199485229595
2195,779.996651824222
2195.25,778.809183420363
2195.5,776.40674602511
2195.75,773.725168137052
2196,771.594234990433
2196.25,770.535961842975
2196.5,771.016843915571
2196.75,773.148071928617
2197,775.67021276808
2197.25,776.993378745839
2197.5,775.900785194537
2197.75,773.028400207141
2198,769.586211868273
2198.25,766.706286216638
2198.5,764.979460340093
2198.75,764.767375263183
2199,766.323295959485
2199.25,768.946027770178
2199.5,771.435041236918
2199.75,772.698154059973
2200,772.873368409544
2200.25,772.855890746562
2200.5,773.528150654133
2200.75,775.410299371045
2201,778.7408539886
2201.25,783.702438912118
2201.5,789.384689511639
2201.75,793.79645580851
2202,794.941496763989
2202.25,792.617471848692
2202.5,789.076322006366
2202.75,786.742139027804
2203,786.992151931091
2203.25,788.870379389344
2203.5,791.105559387307
2203.75,792.702761432154
2204,793.611977640623
2204.25,793.985006868754
2204.5,793.966684988167
2204.75,793.662833070451
2205,793.165691716412
2205.25,792.575993242508
2205.5,792.078546965321
2205.75,791.90611606901
2206,792.263800033242
2206.25,792.816232977401
2206.5,792.741832946823
2206.75,791.222816981018
2207,788.413596660428
2207.25,785.8262831503
2207.5,785.069006184948
2207.75,786.765057517343
2208,789.368573511354
2208.25,791.044652036904
2208.5,790.62333127492
2208.75,789.127353213415
2209,788.030792719594
2209.25,788.526370554595
2209.5,790.288172862482
2209.75,792.48020975414
2210,794.334572079405
2210.25,795.681748577021
2210.5,796.661427544607
2210.75,797.396017919503
2211,797.681458519024
2211.25,797.0465484918
2211.5,795.030730421348
2211.75,791.942439837017
2212,789.118992262216
2212.25,787.965215073639
2212.5,789.018928337297
2212.75,790.909526849802
2213,792.012229111348
2213.25,791.22914837217
2213.5,789.261716264519
2213.75,787.195123010659
2214,785.981203923774
2214.25,785.816405442455
2214.5,786.631503485987
2214.75,788.320540480867
2215,790.446189828036
2215.25,792.394290400989
2215.5,793.571384584345
2215.75,793.733653615324
2216,792.914343979457
2216.25,791.173022204004
2216.5,789.228859664929
2216.75,788.620410398551
2217,790.926044339161
2217.25,796.339971005654
2217.5,802.361155879903
2217.75,806.178495956136
2218,806.032338839956
2218.25,803.388849834035
2218.5,800.330751638383
2218.75,798.606694556091
2219,797.954088255654
2219.25,797.36129120477
2219.5,795.907189405748
2219.75,793.743594289803
2220,791.717304854935
2220.25,790.6576899807
2220.5,790.646347292166
2220.75,790.97128058035
2221,790.886355924264
2221.25,789.936429378049
2221.5,788.142330026778
2221.75,785.569442725605
2222,782.532690301393
2222.25,779.98982745656
2222.5,779.000712969094
2222.75,780.242314086735
2223,782.88426734884
2223.25,785.725339898773
2223.5,787.727651410204
2223.75,788.766092428219
2224,789.032443130061
2224.25,788.735405990286
2224.5,788.230476479271
2224.75,787.949694795982
2225,788.291158855125
2225.25,789.11287071547
2225.5,789.845348607347
2225.75,789.928527009802
2226,789.466882547681
2226.25,789.347330016881
2226.5,790.493245013268
2226.75,793.039554527713
2227,795.700756520545
2227.25,797.043390019411
2227.5,796.286986752814
2227.75,794.494604105896
2228,793.052318503183
2228.25,793.007869008741
2228.5,793.736273399956
2228.75,794.096535796079
2229,793.110629403918
2229.25,791.184736720316
2229.5,789.422985666864
2229.75,788.870235004863
2230,789.530679865473
2230.25,790.567849476947
2230.5,791.142656117652
2230.75,791.135063286012
2231,791.298169994056
2231.25,792.432168918564
2231.5,794.741996935248
2231.75,797.313081408853
2232,799.107400465823
2232.25,799.427041059374
2232.5,798.603306619762
2232.75,797.161437815641
2233,795.59112323296
2233.25,794.188464565179
2233.5,793.183992781628
2233.75,792.785509575255
2234,792.974592305344
2234.25,793.602860748867
2234.5,794.524191156692
2234.75,795.666179390077
2235,797.023201884035
2235.25,798.587453878712
2235.5,800.124682587165
2235.75,801.075347536202
2236,800.855921433385
2236.25,799.266987337187
2236.5,797.04195002381
2236.75,795.053085464222
2237,793.989723204813
2237.25,793.730752314835
2237.5,793.930719492525
2237.75,794.268340599368
2238,794.609253803229
2238.25,794.906212197853
2238.5,795.141409433223
2238.75,795.713445557795
2239,797.333083385955
2239.25,800.683980664074
2239.5,805.314156969642
2239.75,809.408500137995
2240,811.07979436182
2240.25,809.656693815483
2240.5,806.934696762283
2240.75,805.008018641867
2241,805.384775319211
2241.25,807.158601461074
2241.5,808.801470112975
2241.75,808.961485693761
2242,807.720557888407
2242.25,805.85881817559
2242.5,804.14974663723
2242.75,803.143851727691
2243,803.187738920771
2243.25,804.612316901694
2243.5,807.182222961195
2243.75,809.738462480731
2244,811.037331192627
2244.25,810.337952349112
2244.5,808.400834478058
2244.75,806.265483035749
2245,804.854001977785
2245.25,804.357711558238
2245.5,804.687209313816
2245.75,805.742822172895
2246,807.296020506655
2246.25,809.026729793159
2246.5,810.622052837891
2246.75,812.103042753046
2247,813.912810635086
2247.25,816.519854305582
2247.5,819.859573527413
2247.75,822.574684384179
2248,823.115781378379
2248.25,820.389484795739
2248.5,815.720367734267
2248.75,811.231339938914
2249,808.910334108898
2249.25,808.83062774735
2249.5,809.647083278592
2249.75,809.995229450939
2250,809.150277622272
2250.25,807.275974538687
2250.5,804.601852159217
2250.75,801.498357611274
2251,798.714551952558
2251.25,797.062429512648
2251.5,797.057523560108
2251.75,797.68196638229
2252,797.423593731306
2252.25,795.001505024129
2252.5,791.314237840392
2252.75,788.456272394614
2253,788.425062153861
2253.25,791.107977106541
2253.5,794.485292357406
2253.75,796.506538054
2254,796.714940623937
2254.25,796.797288397611
2254.5,798.585246830626
2254.75,802.683455566727
2255,806.980525074684
2255.25,809.000898900878
2255.5,807.042424872703
2255.75,802.397336391845
2256,797.082446118698
2256.25,792.952265988583
2256.5,790.56022472296
2256.75,789.834337471516
2257,790.681121405169
2257.25,792.735304744803
2257.5,795.417351019427
2257.75,798.146689594252
2258,800.498487337481
2258.25,802.234417510142
2258.5,803.127756809155
2258.75,803.030994906251
2259,801.953446573499
2259.25,799.922873037732
2259.5,797.150701429688
2259.75,794.517730729271
2260,793.057207182234
2260.25,793.622185308601
2260.5,795.859340860687
2260.75,798.920076700784
2261,801.982632289556
2261.25,804.563980468063
2261.5,806.404068736654
2261.75,807.254675443204
2262,807.089787260585
2262.25,806.130585386966
2262.5,804.61152736239
2262.75,802.818701597396
2263,801.143802206605
2263.25,799.991435324833
2263.5,799.719500070901
2263.75,800.505265689817
2264,802.482342431037
2264.25,805.656720764331
2264.5,809.124644924296
2264.75,811.587336777221
2265,811.84315610996
2265.25,810.171931278524
2265.5,807.995958554066
2265.75,806.748119329848
2266,806.860548163584
2266.25,807.286976524821
2266.5,806.862855412209
2266.75,804.990266343447
2267,802.644025488171
2267.25,801.06959901249
2267.5,801.270810762775
2267.75,802.926159924938
2268,805.262124997578
2268.25,807.538966779013
2268.5,809.38039614438
2268.75,810.629520703883
2269,811.149446619211
2269.25,811.260089497823
2269.5,811.778586442814
2269.75,813.542870438191
2270,816.708116626012
2270.25,820.003040506443
2270.5,821.977519746405
2270.75,821.628293421543
2271,819.898636964118
2271.25,818.261709858255
2271.5,818.019737596371
2271.75,818.605246710085
2272,818.298069856445
2272.25,815.413066608252
2272.5,810.152775221536
2272.75,805.097814047932
2273,802.978108849987
2273.25,805.330933717197
2273.5,810.571672093512
2273.75,816.611170776878
2274,821.623138559257
2274.25,825.07236497533
2274.5,826.819374360985
2274.75,826.768727742377
2275,825.341089352164
2275.25,823.292664761966
2275.5,821.380517346899
2275.75,820.112732421875
2276,819.633914708599
2276.25,820.059841013253
2276.5,821.337015626348
2276.75,822.859054463919
2277,823.906873326634
2277.25,823.906282103249
2277.5,823.396545820026
2277.75,823.433153247784
2278,825.016986436322
2278.25,827.776601658491
2278.5,829.939073154463
2278.75,829.672952338064
2279,826.205611353304
2279.25,821.153585129745
2279.5,816.460871728176
2279.75,813.758566626934
2280,812.856253628731
2280.25,812.906152123941
2280.5,813.088557619698
2280.75,812.997100307919
2281,812.533648770164
2281.25,811.60948429229
2281.5,810.237531021663
2281.75,808.577427414009
2282,806.800314023373
2282.25,805.143201436692
2282.5,804.032011401404
2282.75,803.92631991178
2283,805.145960117438
2283.25,807.21741560739
2283.5,809.387555441746
2283.75,810.951012228511
2284,811.758199879582
2284.25,812.01662400482
2284.5,811.942511572136
2284.75,811.845942686763
2285,812.150200523693
2285.25,813.283354789948
2285.5,815.130829931224
2285.75,816.298252618393
2286,815.206845423671
2286.25,810.923821360245
2286.5,805.722253593956
2286.75,802.867851433673
2287,805.237083052993
2287.25,811.205838631314
2287.5,816.259558835644
2287.75,815.985671302235
2288,810.233500897566
2288.25,803.627909559284
2288.5,801.036102379088
2288.75,804.764116084338
2289,811.215035965938
2289.25,815.963160037583
2289.5,815.709695517682
2289.75,811.878350855204
2290,807.129711838409
2290.25,803.903791083026
2290.5,802.51957848191
2290.75,802.112386518892
2291,801.828626425395
2291.25,801.3750777945
2291.5,801.02394408063
2291.75,801.070019402221
2292,801.604709258552
2292.25,802.363867889985
2292.5,803.047545086404
2292.75,803.417693810821
2293,803.428690726941
2293.25,803.072192501826
2293.5,802.397784525454
2293.75,801.79577287932
2294,801.780624168534
2294.25,802.787176008948
2294.5,804.302138417273
2294.75,805.190723054455
2295,804.345867729624
2295.25,801.779426065165
2295.5,798.76905596148
2295.75,796.655916018116
2296,796.123422915213
2296.25,796.515499578092
2296.5,797.013155528949
2296.75,797.004252392654
2297,796.600166492921
2297.25,796.070369866139
2297.5,795.648331420066
2297.75,795.345139418902
2298,795.087065218927
2298.25,794.814742624074
2298.5,794.633956170661
2298.75,794.755278860476
2299,795.386149679835
2299.25,796.619784579839
2299.5,798.433052146673
2299.75,800.795293371062
2300,803.515263403879
2300.25,806.138857325429
2300.5,808.187746276945
2300.75,809.279512452545
2301,809.306103779067
2301.25,808.208214852565
2301.5,806.036725460038
2301.75,803.474089749974
2302,801.427388459846
2302.25,800.721403641289
2302.5,801.157125178483
2302.75,801.843357267921
2303,801.907634646503
2303.25,801.437770402044
2303.5,801.629781743068
2303.75,803.733308520995
2304,807.904008376635
2304.25,812.096431774766
2304.5,814.001244663282
2304.75,812.151847589951
2305,808.207280824592
2305.25,804.551072163509
2305.5,803.23390030659
2305.75,803.588157259435
2306,803.618915501341
2306.25,801.461483134759
2306.5,797.774777944168
2306.75,795.413607338409
2307,797.260808046882
2307.25,803.633986464103
2307.5,810.958443174389
2307.75,815.338657312523
2308,814.609883599727
2308.25,810.964180068455
2308.5,807.268386346079
2308.75,805.930955294674
2309,806.861217969679
2309.25,809.120999717565
2309.5,811.773088383124
2309.75,813.899235178044
2310,814.593335684525
2310.25,812.984415536383
2310.5,809.349861395846
2310.75,805.347760130677
2311,802.715558830995
2311.25,802.416756500102
2311.5,803.554161299033
2311.75,804.956664231756
2312,805.716138262486
2312.25,806.105127394515
2312.5,806.72737329192
2312.75,808.085313382028
2313,809.774315368293
2313.25,810.911800423032
2313.5,810.649233644102
2313.75,808.965759492199
2314,806.639302130857
2314.25,804.478055674669
2314.5,803.061462003472
2314.75,802.547962072079
2315,803.050698823775
2315.25,804.452184587558
2315.5,805.839882295409
2315.75,806.1300608562
2316,804.475631405733
2316.25,801.581086355883
2316.5,798.775986202654
2316.75,797.308094109762
2317,797.241231585636
2317.25,797.760303602422
2317.5,798.044339286094
2317.75,797.784549916873
2318,797.300438202877
2318.25,796.948033111977
2318.5,796.79489770125
2318.75,796.316345166053
2319,794.914975625278
2319.25,792.349166791494
2319.5,789.632649882023
2319.75,788.055897165007
2320,788.582796503356
2320.25,790.191482025223
2320.5,791.113671930417
2320.75,789.82523655081
2321,787.250062468296
2321.25,785.717865030688
2321.5,787.449131737076
2321.75,792.308658023749
2322,798.072091422917
2322.25,802.482795533751
2322.5,804.825606692577
2322.75,806.377075492038
2323,808.54248299616
2323.25,812.008567186852
2323.5,815.85023290535
2323.75,818.922943572041
2324,820.308903423039
2324.25,820.094393160512
2324.5,818.643535406507
2324.75,816.340534036348
2325,813.784101820087
2325.25,811.702901410278
2325.5,810.818365769846
2325.75,811.535310555285
2326,813.86645192454
2326.25,817.798329471814
2326.5,822.76839724403
2326.75,826.896724673433
2327,828.109887667586
2327.25,824.983089865527
2327.5,819.533394161941
2327.75,814.915119120295
2328,814.083115052468
2328.25,816.928296760128
2328.5,820.947389884135
2328.75,823.602271476506
2329,824.0236629954
2329.25,823.894603442233
2329.5,825.113652823016
2329.75,828.864948206596
2330,833.845382224406
2330.25,838.210910765603
2330.5,840.324698285711
2330.75,840.375057105961
2331,839.499320109314
2331.25,838.823517257824
2331.5,838.674117097453
2331.75,838.312520829592
2332,836.926241739737
2332.25,834.03534541061
2332.5,830.35946043921
2332.75,826.8885959324
2333,824.536253566341
2333.25,823.387763303192
2333.5,823.021856417389
2333.75,823.013121253251
2334,823.071715990549
2334.25,823.092180104818
2334.5,822.982230124638
2334.75,822.625001421653
2335,821.828553926828
2335.25,820.386664972978
2335.5,818.159620687959
2335.75,815.5013655148
2336,812.987934029152
2336.25,811.19801223711
2336.5,810.743747922153
2336.75,812.26915721346
2337,816.408711093313
2337.25,822.722171698961
2337.5,828.797185549642
2337.75,832.010098475289
2338,830.69330482512
2338.25,826.881733020945
2338.5,823.50649158039
2338.75,823.252955821219
2339,826.11101869387
2339.25,830.405142098541
2339.5,834.456903323148
2339.75,837.480780621046
2340,839.879428998836
2340.25,842.137762506166
2340.5,844.407456625758
2340.75,845.722409166064
2341,844.88241504614
2341.25,840.845420101751
2341.5,834.254906642867
2341.75,826.773312861698
2342,820.069123919759
2342.25,815.253293620507
2342.5,812.529057294102
2342.75,812.016241522113
2343,813.587623910277
2343.25,816.204653394507
2343.5,818.618690196574
2343.75,819.776432775019
2344,820.169455559221
2344.25,821.023435335022
2344.5,823.518679728509
2344.75,827.705987360263
2345,832.515722813476
2345.25,836.832160597878
2345.5,839.877895514864
2345.75,841.599109850759
2346,842.035225057222
2346.25,841.277158799327
2346.5,839.720120436276
2346.75,837.870687199141
2347,836.224629536598
2347.25,835.029096375181
2347.5,834.284688858714
2347.75,833.981062938397
2348,833.950116899723
2348.25,833.624237673895
2348.5,832.373527297175
2348.75,829.724432040185
2349,826.289906890292
2349.25,823.144145284539
2349.5,821.320443896868
2349.75,820.831835931863
2350,820.647750267044
2350.25,819.693361960608
2350.5,817.501264098571
2350.75,814.946552484381
2351,813.084016095846
2351.25,812.731081447492
2351.5,813.509532535656
2351.75,814.665522942538
2352,815.546790459152
2352.25,816.663288500304
2352.5,819.265270381975
2352.75,824.56833389892
2353,832.094599136594
2353.25,839.231719807064
2353.5,843.232649047423
2353.75,842.513424808673
2354,838.717185606019
2354.25,834.042208089533
2354.5,830.530369292585
2354.75,828.869366329461
2355,829.052625776569
2355.25,831.053464597054
2355.5,834.343069293189
2355.75,837.773082641948
2356,840.157134127096
2356.25,840.650932543068
2356.5,839.427694325732
2356.75,836.848963027886
2357,833.28806460874
2357.25,829.224483568639
2357.5,825.193932777183
2357.75,821.727674902791
2358,819.159036428175
2358.25,817.561305583008
2358.5,816.990045286426
2358.75,817.440286630857
2359,818.729165717523
2359.25,820.64130413916
2359.5,822.928107808758
2359.75,825.121869516798
2360,826.666121599838
2360.25,827.036068356076
2360.5,826.289154712049
2360.75,824.991368283256
2361,823.724526517848
2361.25,822.907053574804
2361.5,822.634651679413
2361.75,822.965181189983
2362,823.832389680525
2362.25,824.589471599102
2362.5,824.420013284134
2362.75,822.594158276265
2363,819.428669924729
2363.25,815.935118684119
2363.5,813.131632890872
2363.75,811.740133695461
2364,812.054871848152
2364.25,814.336319557902
2364.5,818.326909801056
2364.75,822.247838751837
2365,824.042492069995
2365.25,822.109295039554
2365.5,817.735291521568
2365.75,813.337385005682
2366,811.228318698228
2366.25,811.775664566705
2366.5,813.649246169973
2366.75,815.469949807682
2367,816.462387445433
2367.25,816.863144277869
2367.5,817.005408668171
2367.75,817.135810214909
2368,817.197644285219
2368.25,817.067797539137
2368.5,816.618547842653
2368.75,815.685385607731
2369,814.086182606603
2369.25,811.661275815511
2369.5,808.750631796368
2369.75,806.183189266835
2370,804.804804227085
2370.25,805.060131895019
2370.5,806.627993609875
2370.75,809.101062465575
2371,812.191806407503
2371.25,816.042446011354
2371.5,820.891534450801
2371.75,826.89062801675
2372,833.549105719933
2372.25,840.088827331083
2372.5,845.769123793408
2372.75,850.692215178256
2373,855.776339668934
2373.25,861.97234501719
2373.5,869.787291251319
2373.75,878.555673804628
2374,887.420565329635
2374.25,895.481292161775
2374.5,901.379987016925
2374.75,903.486505238284
2375,900.169553148429
2375.25,891.212741648099
2375.5,880.180512978216
2375.75,871.262075133529
2376,868.461073607088
2376.25,872.101617826313
2376.5,879.128217677952
2376.75,886.360059449806
2377,891.366971612823
2377.25,894.253691321633
2377.5,895.659506244587
2377.75,896.228237655709
2378,896.702029599276
2378.25,897.918152629505
2378.5,900.717771435363
2378.75,905.680534431512
2379,912.08976640989
2379.25,918.827863945869
2379.5,924.780980415391
2379.75,929.082811975387
2380,931.259651903723
2380.25,930.872628042258
2380.5,927.549915440492
2380.75,921.803319851224
2381,914.768461688351
2381.25,907.59406246971
2381.5,901.303238741884
2381.75,896.265792074646
2382,892.639782938284
2382.25,890.580200295207
2382.5,889.982113476604
2382.75,890.281623587122
2383,890.86797874176
2383.25,891.182399792434
2383.5,891.165169019097
2383.75,891.034771727737
2384,891.012558719484
2384.25,891.26068200749
2384.5,891.792110463423
2384.75,892.596679501193
2385,893.635383462057
2385.25,894.425492789705
2385.5,894.136361893444
2385.75,891.928024636452
2386,887.286365765237
2386.25,880.920938714012
2386.5,873.828485759164
2386.75,867.009773771607
2387,861.582221811754
2387.25,858.795095051845
2387.5,859.904736330771
2387.75,865.450953370032
2388,872.866759427724
2388.25,878.743338524961
2388.5,879.841288397084
2388.75,876.272052553105
2389,871.220020415834
2389.25,867.98329777261
2389.5,869.038350542607
2389.75,873.702840307398
2390,880.535434177999
2390.25,888.09578052672
2390.5,894.962259290027
2390.75,899.730069634404
2391,900.9950082162
2391.25,897.941522068857
2391.5,892.071507229429
2391.75,885.457079952406
2392,880.136421904122
2392.25,876.838926092851
2392.5,874.599825574556
2392.75,872.34173166132
2393,869.313738829612
2393.25,866.680995940391
2393.5,866.305429555424
2393.75,870.000011156049
2394,877.457677916715
2394.25,885.509574727111
2394.5,890.784346592337
2394.75,890.776656217988
2395,887.477037496589
2395.25,884.330459326464
2395.5,884.743070322075
2395.75,890.00223809313
2396,898.24980769213
2396.25,907.372615252937
2396.5,915.386198080263
2396.75,921.216948709984
2397,924.184244846684
2397.25,923.610955129275
2397.5,919.378279080471
2397.75,912.694276502345
2398,904.959830197573
2398.25,897.549163306635
2398.5,891.167040932761
2398.75,885.815921713273
2399,881.465030211695
2399.25,878.090040267537
2399.5,875.703977443599
2399.75,874.333282334289
2400,874.008508405336
2400.25,874.973386594771
2400.5,877.784604526098
2400.75,883.023827852232
2401,890.892193919439
2401.25,899.247023464814
2401.5,905.054016929141
2401.75,905.32949132152
2402,904.304215490566
2402.25,903.278939659612
2402.5,902.253663828658
2402.75,901.228387997704
2403,900.20311216675
2403.25,899.177836335796
2403.5,898.152560504842
2403.75,897.127284673888
2404,896.102008842934
2404.25,895.07673301198
2404.5,894.051457181026
2404.75,893.026181350072
2405,892.000905519118
2405.25,890.975629688164
2405.5,889.95035385721
2405.75,888.925078026256
2406,887.899802195302
2406.25,886.874526364348
2406.5,885.849250533394
2406.75,884.823974702441
2407,883.798698871487
2407.25,882.773423040533
2407.5,881.748147209579
2407.75,880.722871378625
2408,879.697595547671
2408.25,878.672319716717
2408.5,877.647043885763
2408.75,876.621768054809
2409,875.596492223855
2409.25,874.571216392901
2409.5,873.545940561947
2409.75,872.520664730993
2410,867.234923841453
2410.25,860.417411866798
2410.5,853.408976185524
2410.75,847.434236136599
2411,843.158012221687
2411.25,841.07680282164
2411.5,841.635638781482
2411.75,844.230626841666
2412,847.278430629096
2412.25,849.160610385041
2412.5,849.13570614933
2412.75,848.63887286423
2413,849.437189385456
2413.25,853.020886494616
2413.5,858.597638158181
2413.75,864.251605241276
2414,868.085851638666
2414.25,869.483892705167
2414.5,869.646921948349
2414.75,869.914479146965
2415,871.296096319252
2415.25,873.007782409561
2415.5,873.659161977729
2415.75,871.895077523329
2416,867.607779563754
2416.25,862.233190269554
2416.5,857.303024075588
2416.75,854.21712359817
2417,853.717282709129
2417.25,856.340445538735
2417.5,862.55214874594
2417.75,871.165856689802
2418,879.336707305975
2418.25,884.147465694331
2418.5,883.754718761333
2418.75,879.877661376359
2419,874.973346784086
2419.25,871.421611302515
2419.5,870.030152307955
2419.75,870.140073665199
2420,871.036408097178
2420.25,872.129973934439
2420.5,873.285085432147
2420.75,874.468222215265
2421,875.635092167368
2421.25,876.543999382147
2421.5,876.780324624018
2421.75,875.923616089053
2422,873.696708232458
2422.25,870.314829861804
2422.5,866.098896983804
2422.75,861.426541957059
2423,857.732415116365
2423.25,857.386631449092
2423.5,862.790713243089
2423.75,874.81797331692
2424,889.677267248917
2424.25,902.690655805586
2424.5,909.488785250718
2424.75,909.61789005014
2425,905.315547231507
2425.25,898.872228932992
2425.5,892.506642800086
2425.75,888.166275331756
2426,887.734550806475
2426.25,893.017036248776
2426.5,903.166142988926
2426.75,914.089496799503
2427,921.49703515275
2427.25,921.873641368091
2427.5,916.400382623218
2427.75,908.018058387464
2428,899.667615237092
2428.25,893.408822759127
2428.5,889.192218282138
2428.75,886.659344563298
2429,885.442625683939
2429.25,885.021109351808
2429.5,884.746465497116
2429.75,883.966509636365
2430,882.476131466859
2430.25,881.718808786511
2430.5,883.517928630014
2430.75,889.615273829869
2431,899.795646558535
2431.25,911.841315345345
2431.5,923.443832408636
2431.75,932.65463851995
2432,939.212127477283
2432.25,943.348554836876
2432.5,945.297383499695
2432.75,945.42890909628
2433,944.378255079125
2433.25,942.810843686623
2433.5,941.372353681234
2433.75,940.186795267256
2434,938.815958520893
2434.25,936.793765477579
2434.5,933.71094025968
2434.75,929.737780926414
2435,925.383420718835
2435.25,921.161254287965
2435.5,917.563162054872
2435.75,914.983809154451
2436,913.790414831665
2436.25,914.347160431679
2436.5,916.728912701585
2436.75,920.486394770813
2437,925.115062946551
2437.25,930.094285201327
2437.5,934.680342224005
2437.75,937.966379754355
2438,939.041815082396
2438.25,937.352383305481
2438.5,934.204551675799
2438.75,931.510184509599
2439,931.178685166546
2439.25,933.988584511141
2439.5,937.857201373061
2439.75,940.256235528666
2440,938.728191560111
2440.25,933.116068118278
2440.5,926.013276635968
2440.75,920.174918098325
2441,918.174837169825
2441.25,920.517527219591
2441.5,926.390127126552
2441.75,934.958602026773
2442,945.166212753097
2442.25,955.053854877822
2442.5,962.433908319026
2442.75,965.132444288431
2443,962.541472807108
2443.25,957.046682743506
2443.5,951.371165207794
2443.75,948.193494322026
2444,948.417880878424
2444.25,950.617931441941
2444.5,953.208887827486
2444.75,954.67076409129
2445,954.453366908271
2445.25,952.753362299263
2445.5,949.786646077287
2445.75,945.76472753008
2446,940.864965398758
2446.25,935.248707288309
2446.5,929.077208885037
2446.75,922.588963874681
2447,916.342809307661
2447.25,910.980620139286
2447.5,907.138883580511
2447.75,904.924495996889
2448,903.47581005628
2448.25,901.827839365689
2448.5,899.119427803324
2448.75,895.821095132677
2449,893.325655744524
2449.25,893.044378779237
2449.5,895.908124805404
2449.75,901.122891454794
2450,907.507708286475
2450.25,913.888782016347
2450.5,919.288942517887
2450.75,922.946952154517
2451,924.112622939643
2451.25,922.230293083276
2451.5,918.092485132826
2451.75,913.062659840383
2452,908.505965498238
2452.25,905.519099292075
2452.5,904.455352277586
2452.75,905.540394602346
2453,908.966249151317
2453.25,914.106557359171
2453.5,919.491069227531
2453.75,923.610783991847
2454,925.240939118082
2454.25,924.893909872042
2454.5,923.738145960184
2454.75,922.942677181595
2455,923.452225555851
2455.25,925.657978216317
2455.5,929.867242714406
2455.75,936.347941439396
2456,944.332794059269
2456.25,951.941913204844
2456.5,957.240520243607
2456.75,958.517945535476
2457,956.077790740627
2457.25,951.288425188301
2457.5,945.527876836652
2457.75,940.042286227782
2458,935.382588166828
2458.25,931.871475998062
2458.5,929.831195200343
2458.75,929.373301373672
2459,930.033129625637
2459.25,931.248400058653
2459.5,932.447262292884
2459.75,932.703926674536
2460,930.643036580448
2460.25,924.86019578984
2460.5,914.270733724217
2460.75,901.325114551723
2461,890.671130347972
2461.25,886.989624137183
2461.5,893.394471781141
2461.75,906.591564455818
2462,921.648988639664
2462.25,933.725920281921
2462.5,940.740793967991
2462.75,943.800132625364
2463,944.187876691139
2463.25,943.088024871035
2463.5,940.750077845242
2463.75,936.913524652625
2464,931.312698019876
2464.25,923.921068449831
2464.5,915.814492896476
2464.75,908.386276483384
2465,903.02497289595
2465.25,900.397749142067
2465.5,899.686395951718
2465.75,899.889652988199
2466,900.065824955093
2466.25,900.120663790121
2466.5,900.590577348038
2466.75,902.026989849463
2467,904.811651381061
2467.25,908.673356914433
2467.5,913.183855715718
2467.75,917.918064019024
2468,922.570499466572
2468.25,926.98904301751
2468.5,931.031626115762
2468.75,934.496556176015
2469,936.647269168241
2469.25,936.464901340487
2469.5,932.928043298135
2469.75,925.630212430769
2470,916.530417763573
2470.25,908.156382848957
2470.5,903.019879297423
2470.75,902.186043398376
2471,904.138928935379
2471.25,907.095622506884
2471.5,909.329838496863
2471.75,909.77732570721
2472,907.802732832118
2472.25,902.777959578649
2472.5,894.748025973901
2472.75,886.195837939263
2473,880.156039894317
2473.25,879.582580153494
2473.5,884.652164570394
2473.75,892.129129169001
2474,898.568397066866
2474.25,901.246218023616
2474.5,901.278544468138
2474.75,901.053893781283
2475,902.936860185779
2475.25,907.513307930487
2475.5,912.428459986089
2475.75,915.05183321488
2476,913.064885461652
2476.25,907.354594277254
2476.5,900.692291093851
2476.75,895.87335170972
2477,894.879144084439
2477.25,896.814326787082
2477.5,900.148389440774
2477.75,903.370384285377
2478,905.523904883955
2478.25,906.272291833515
2478.5,905.311540035039
2478.75,902.621153398781
2479,899.972646788527
2479.25,899.835704320135
2479.5,904.668797884357
2479.75,915.014761142371
2480,927.47951767937
2480.25,938.184916180975
2480.5,943.486750774
2480.75,943.009300047764
2481,938.779297357619
2481.25,932.879053937253
2481.5,927.177820593275
2481.75,922.215344802222
2482,918.019495831247
2482.25,914.617094017063
2482.5,912.053895384607
2482.75,910.427876195239
2483,909.845937880851
2483.25,910.395994409592
2483.5,911.649877509549
2483.75,912.614964699926
2484,912.269947292403
2484.25,909.876354234897
2484.5,906.62174293539
2484.75,904.496570570846
2485,905.490231281742
2485.25,910.52410424184
2485.5,917.982592241561
2485.75,925.881602214591
2486,932.312217798649
2486.25,936.702339285335
2486.5,939.629417797471
2486.75,941.708360377613
2487,943.382158056209
2487.25,943.981009536503
2487.5,942.392031447348
2487.75,937.50144503799
2488,928.945608932799
2488.25,918.76776211054
2488.5,909.492899377993
2488.75,903.621916523601
2489,902.083550788866
2489.25,903.294206999554
2489.5,905.44510538018
2489.75,906.818362684617
2490,906.628029837146
2490.25,904.635029417514
2490.5,900.607435101213
2490.75,894.827512020273
2491,889.207351464225
2491.25,885.981210090464
2491.5,887.303907525494
2491.75,893.259807879281
2492,901.717825838614
2492.25,910.438398623484
2492.5,917.418325375982
2492.75,921.821121684959
2493,923.169665161407
2493.25,920.995018064962
2493.5,915.53001305418
2493.75,908.242449302447
2494,900.725649132444
2494.25,894.516755464504
2494.5,890.306236524168
2494.75,888.129673074782
2495,888.005618889542
2495.25,889.693833821563
2495.5,891.938068562786
2495.75,893.232774753319
2496,892.125452364998
2496.25,888.69185507066
2496.5,884.729739724831
2496.75,882.128834559418
2497,882.555359264077
2497.25,886.399363458062
2497.5,893.598675895991
2497.75,904.071450530509
2498,916.743558667339
2498.25,929.086588009646
2498.5,938.456328128583
2498.75,942.538804813092
2499,941.85252778355
2499.25,938.356906543439
2499.5,934.022745579494
2499.75,930.371515602836
2500,927.097138635166
2500.25,923.428969587657
2500.5,918.603391781712
2500.75,912.639803540331
2501,907.043351596589
2501.25,903.485102604514
2501.5,903.529540666711
2501.75,907.00244283837
2502,912.313476646085
2502.25,917.831099632356
2502.5,922.215100845764
2502.75,925.413595863827
2503,927.730709866267
2503.25,929.470473297508
2503.5,930.928283176807
2503.75,932.384688012658
2504,934.118770749015
2504.25,936.381938130708
2504.5,938.974348920166
2504.75,941.328763464609
2505,942.867258294018
2505.25,943.056834054031
2505.5,941.658150379243
2505.75,938.549844050103
2506,933.610974909841
2506.25,927.142776707282
2506.5,920.829966485796
2506.75,916.64021938834
2507,916.512500067169
2507.25,920.631232467563
2507.5,926.442793011164
2507.75,931.155850459692
2508,932.196273644418
2508.25,929.513312047869
2508.5,924.683457408082
2508.75,919.310288704227
2509,914.871336263826
2509.25,912.238232650443
2509.5,912.100781292084
2509.75,915.140020032091
2510,921.104326067265
2510.25,927.993734255575
2510.5,933.615930981446
2510.75,935.894569991892
2511,934.441516466793
2511.25,930.144595876543
2511.5,923.923119585841
2511.75,916.789150159586
2512,910.309901898435
2512.25,906.25822454809
2512.5,906.403598935714
2512.75,911.410200570921
2513,919.296518526745
2513.25,927.693463912323
2513.5,934.294718106438
2513.75,937.942410773304
2514,938.483690751698
2514.25,935.799631196014
2514.5,929.987184542129
2514.75,922.606729081027
2515,915.82622396295
2515.25,911.815261546326
2515.5,912.09133993955
2515.75,916.160131158906
2516,923.140552149258
2516.25,932.136589040746
2516.5,941.786666749679
2516.75,950.18358159842
2517,955.389059091595
2517.25,955.676203463871
2517.5,951.304315748028
2517.75,943.62094730054
2518,933.984795901157
2518.25,923.7766564409
2518.5,914.495637659822
2518.75,907.680280948078
2519,904.865831699487
2519.25,906.539497409106
2519.5,910.653471060797
2519.75,914.784226735052
2520,916.613778340652
2520.25,915.752560924126
2520.5,913.497232635611
2520.75,911.201278167583
2521,910.0821696086
2521.25,910.592932652706
2521.5,912.919722910454
2521.75,917.24615033803
2522,923.462799617213
2522.25,930.880884368814
2522.5,938.743595769631
2522.75,946.281229278484
2523,952.514573433833
2523.25,956.294231564494
2523.5,956.465882301411
2523.75,952.194410687147
2524,944.918034591849
2524.25,937.061254203711
2524.5,931.052563962569
2524.75,928.685452840809
2525,929.117332530466
2525.25,930.821680348984
2525.5,932.27733942778
2525.75,932.532493703597
2526,931.700424696077
2526.25,930.011298611104
2526.5,927.704856183619
2526.75,925.208091583585
2527,923.118587729546
2527.25,922.0401600523
2527.5,922.527101475217
2527.75,924.790062916971
2528,928.894008225437
2528.25,934.902568212063
2528.5,942.371836138329
2528.75,949.483025411672
2529,954.186802114675
2529.25,954.478946791825
2529.5,950.152863544968
2529.75,943.362792135587
2530,936.423358742403
2530.25,931.546763153696
2530.5,929.256135667498
2530.75,928.689377463616
2531,928.943481558165
2531.25,929.196609286153
2531.5,929.155456100285
2531.75,928.738310662319
2532,927.864182810996
2532.25,926.570260935508
2532.5,925.221196755995
2532.75,924.237893996614
2533,924.028588308059
2533.25,924.542310803335
2533.5,925.15013172992
2533.75,925.18630739938
2534,924.112151420267
2534.25,922.629542122953
2534.5,922.141091631291
2534.75,924.057330164147
2535,929.107021578192
2535.25,935.420516946704
2535.5,940.509223704107
2535.75,941.910618508253
2536,938.88564473197
2536.25,933.462488941081
2536.5,927.918948796249
2536.75,924.467982962973
2537,924.141823700469
2537.25,926.94240943356
2537.5,932.837101393287
2537.75,941.482589579939
2538,950.564476263933
2538.25,956.99777323382
2538.5,957.697517782433
2538.75,951.325299116575
2539,941.549452715996
2539.25,932.929835718229
2539.5,929.996427448013
2539.75,934.552380961405
2540,943.52599571166
2540.25,953.340089162617
2540.5,960.569104308418
2540.75,964.454512854115
2541,966.515763322551
2541.25,968.345512452596
2541.5,971.305542631515
2541.75,974.62586242879
2542,976.38474644197
2542.25,974.649212225678
2542.5,968.023199890993
2542.75,958.431084207876
2543,949.065088558519
2543.25,943.119963270962
2543.5,942.839778529578
2543.75,946.187233950862
2544,949.920335482557
2544.25,950.803904330767
2544.5,947.298595004252
2544.75,941.772287241565
2545,937.141235464093
2545.25,936.273317632293
2545.5,939.972753608209
2545.75,946.252031978727
2546,952.925469266141
2546.25,957.900043793811
2546.5,960.26835651924
2546.75,959.942773447709
2547,956.852013147621
2547.25,951.039883224998
2547.5,943.346441188758
2547.75,934.948422558971
2548,927.023763060015
2548.25,920.529817343451
2548.5,915.53294826481
2548.75,911.874582610566
2549,909.394833334505
2549.25,907.822292706325
2549.5,906.690699925219
2549.75,905.51416901166
2550,903.865242994852
2550.25,902.04163085395
2550.5,900.831665044231
2550.75,901.03293661729
2551,903.200712412415
2551.25,907.001311280085
2551.5,911.897262453618
2551.75,917.35048285713
2552,922.8022481521
2552.25,927.668718453888
2552.5,931.364535900347
2552.75,933.398890348923
2553,934.064074037469
2553.25,934.039318423204
2553.5,934.006583018017
2553.75,934.325486298763
2554,934.201556204207
2554.25,932.582134606655
2554.5,928.428049885029
2554.75,921.734811483751
2555,914.246843884941
2555.25,907.877361768397
2555.5,904.420794111656
2555.75,903.753927202045
2556,904.202149754262
2556.25,904.04634676922
2556.5,902.09242165246
2556.75,899.534885151195
2557,898.247176442976
2557.25,900.074059989217
2557.5,905.230428522797
2557.75,911.457185820919
2558,916.288418217106
2558.25,917.553744345826
2558.5,915.696456483761
2558.75,912.523384378344
2559,909.852911385575
2559.25,908.80881209733
2559.5,908.308263454873
2559.75,906.83126940776
2560,902.906989061723
2560.25,896.613231278264
2560.5,889.851968164579
2560.75,884.629893199644
2561,882.653889693113
2561.25,883.534441315684
2561.5,885.987182999579
2561.75,888.727454514696
2562,890.746471077075
2562.25,891.527231214183
2562.5,890.603543165963
2562.75,887.664800411161
2563,883.851653913959
2563.25,881.095251274306
2563.5,881.331310860669
2563.75,885.40176689749
2564,891.488640751036
2564.25,897.377366449686
2564.5,900.976292434565
2564.75,901.738159668392
2565,900.169833592577
2565.25,896.798544749118
2565.5,892.246401961668
2565.75,887.462724306203
2566,883.467317445804
2566.25,881.265243102476
2566.5,881.45248015423
2566.75,884.172804042105
2567,889.546594987485
2567.25,897.294036393882
2567.5,905.180929769787
2567.75,910.377385384499
2568,910.10650188538
2568.25,904.018228333815
2568.5,895.141673926583
2568.75,886.756108720918
2569,881.829777753366
2569.25,880.432685557538
2569.5,881.057445478606
2569.75,882.182749351001
2570,882.743223926817
2570.25,882.720407910977
2570.5,882.242207993701
2570.75,881.420275358747
2571,880.173922264442
2571.25,878.296752810212
2571.5,875.580397425506
2571.75,871.9344734147
2572,867.586330037724
2572.25,862.816259056633
2572.5,857.942875049816
2572.75,853.795445935562
2573,851.566524527172
2573.25,852.451930762867
2573.5,856.496169052853
2573.75,861.071389757192
2574,863.171532386191
2574.25,860.28482245481
2574.5,853.822412728329
2574.75,847.065160738271
2575,843.277873549001
2575.25,843.982494768717
2575.5,847.946164836039
2575.75,853.692703104092
2576,859.883773691415
2576.25,865.82168067022
2576.5,870.994701735641
2576.75,874.894734437397
2577,877.084582937667
2577.25,877.191921304241
2577.5,874.846838141731
2577.75,870.058164159695
2578,864.170119056854
2578.25,858.821086385564
2578.5,855.5716420315
2578.75,854.503000762697
2579,854.371237336556
2579.25,853.886045027585
2579.5,852.186649590436
2579.75,849.636692883725
2580,846.816554096526
2580.25,844.266307992271
2580.5,842.107401615733
2580.75,840.213153308658
2581,838.453967824096
2581.25,836.723662467823
2581.5,834.954241707602
2581.75,833.081227196535
2582,831.108045816374
2582.25,829.345942609093
2582.5,828.193340819143
2582.75,827.982860335586
2583,828.158399586791
2583.25,827.525704217947
2583.5,824.892111970128
2583.75,820.139350492525
2584,814.90097903607
2584.25,810.97183894979
2584.5,809.703745637256
2584.75,810.731144185799
2585,813.272400399767
2585.25,816.535509322431
2585.5,819.643003502471
2585.75,821.675366901717
2586,821.762701425581
2586.25,820.12820504367
2586.5,818.058535684412
2586.75,816.88161377212
2587,817.485455874922
2587.25,819.836504615268
2587.5,823.785293601146
2587.75,829.118268251498
2588,835.328080978952
2588.25,841.823247968845
2588.5,847.99307225021
2588.75,852.996963545756
2589,855.842807928598
2589.25,855.544274077359
2589.5,851.871136294754
2589.75,845.936264988237
2590,838.990675809426
2590.25,832.272380219675
2590.5,826.939532321527
2590.75,824.119991809475
2591,824.865270272125
2591.25,828.52677523543
2591.5,832.785585753759
2591.75,835.25772576247
2592,834.538395101145
2592.25,831.342389800307
2592.5,826.661479462913
2592.75,821.524794438721
2593,817.182447715296
2593.25,814.965504500608
2593.5,816.104775540342
2593.75,820.11300002608
2594,825.060270705112
2594.25,828.984117994166
2594.5,830.815256128475
2594.75,830.970397199582
2595,830.006735611204
2595.25,828.431147223479
2595.5,826.546172621433
2595.75,824.60249169323
2596,822.85934978499
2596.25,821.672610834436
2596.5,821.459098333822
2596.75,822.62148977498
2597,824.895607851129
2597.25,827.101810328271
2597.5,827.994347929033
2597.75,826.819856470424
2598,824.326765398436
2598.25,821.548808335382
2598.5,819.445760890388
2598.75,818.39262206057
2599,818.486569006311
2599.25,819.816630514595
2599.5,822.319747097832
2599.75,825.778840201921
2600,829.968774421046
2600.25,834.461510160122
2600.5,838.399933261484
2600.75,840.872367255473
2601,841.09674774866
2601.25,838.985154708891
2601.5,834.681071855968
2601.75,828.383460422876
2602,821.356404514476
2602.25,815.825324925895
2602.5,814.041613305121
2602.75,816.685758064427
2603,821.042584560961
2603.25,823.953928129965
2603.5,822.981543303526
2603.75,818.980030527198
2604,813.744897208221
2604.25,809.001929327481
2604.5,805.64376930495
2604.75,804.015022417448
2605,804.441151622932
2605.25,806.901232498659
2605.5,810.937698981967
2605.75,816.064789999276
2606,821.725595991374
2606.25,827.202437654037
2606.5,831.755564657031
2606.75,834.747127247992
2607,836.03410532961
2607.25,835.62346743486
2607.5,833.569066560621
2607.75,830.605236076948
2608,827.979828869237
2608.25,826.945564419529
2608.5,827.961292454905
2608.75,830.016541536458
2609,831.941720274385
2609.25,832.781299674915
2609.5,832.546344793294
2609.75,831.520620151784
2610,829.991010824045
2610.25,828.285493033488
2610.5,826.76113855129
2610.75,825.777561178769
2611,825.834537916249
2611.25,827.664546290876
2611.5,832.022002148006
2611.75,839.104463395602
2612,846.906977101262
2612.25,852.880123301461
2612.5,854.685373611328
2612.75,852.356387559014
2613,847.420378786643
2613.25,841.427424589278
2613.5,835.881096125167
2613.75,832.197044218984
2614,831.781145491694
2614.25,835.530742604579
2614.5,841.488676694273
2614.75,846.702490068871
2615,848.364272731267
2615.25,846.231735962321
2615.5,842.25664824319
2615.75,838.459597567553
2616,836.240082219631
2616.25,835.480651527432
2616.5,835.83659298786
2616.75,837.007103087415
2617,839.003685330632
2617.25,841.973181917793
2617.5,846.055808596223
2617.75,851.199159727531
2618,857.141449213394
2618.25,863.610158453571
2618.5,869.996717431454
2618.75,874.670541198308
2619,875.807467037765
2619.25,871.805986107087
2619.5,863.91926119071
2619.75,855.377070265747
2620,849.446375680199
2620.25,848.118873359661
2620.5,850.013802052097
2620.75,853.199317088953
2621,855.839304152311
2621.25,856.958692245882
2621.5,856.037838073223
2621.75,852.575678959031
2622,846.997211100821
2622.25,841.198187240494
2622.5,837.205102431946
2622.75,836.598864869256
2623,838.610307075788
2623.25,841.698302859747
2623.5,844.367354645903
2623.75,845.932854224743
2624,846.402915808366
2624.25,845.80790326231
2624.5,844.173089051181
2624.75,841.512008064894
2625,837.836546740104
2625.25,833.258131613816
2625.5,828.613564895665
2625.75,825.060781824284
2626,823.717905951491
2626.25,824.528070277641
2626.5,826.117906785059
2626.75,827.045475504896
2627,826.275946399015
2627.25,823.790214777694
2627.5,819.724963612467
2627.75,814.362812349763
2628,808.900065160884
2628.25,804.885889432602
2628.5,803.794706451678
2628.75,805.859217119683
2629,810.295519649855
2629.25,816.287160959475
2629.5,822.886496801475
2629.75,828.956763988804
2630,833.346847586069
2630.25,835.328205595472
2630.5,835.4110453414
2630.75,834.331386718739
2631,832.786360539604
2631.25,831.159047988737
2631.5,829.680629503934
2631.75,828.586722505284
2632,828.284491879967
2632.25,829.383486850704
2632.5,832.50392837751
2632.75,837.489455338083
2633,842.011562905225
2633.25,843.364876462322
2633.5,839.363732858914
2633.75,831.753725901126
2634,824.078401549628
2634.25,819.827376802976
2634.5,820.310329966026
2634.75,824.155864996889
2635,829.828197620341
2635.25,836.016642545308
2635.5,842.01145638298
2635.75,847.20210021305
2636,851.007503516755
2636.25,853.050341803474
2636.5,853.039390348972
2636.75,850.707841235254
2637,846.583816392383
2637.25,842.152523352543
2637.5,838.956059147939
2637.75,838.169205990077
2638,839.587076925947
2638.25,842.680915209124
2638.5,846.860711831629
2638.75,850.820133685563
2639,852.788669054706
2639.25,851.006485641646
2639.5,845.281061925127
2639.75,838.156289120113
2640,832.451400421447
2640.25,830.523561223499
2640.5,832.08181967749
2640.75,835.893533917389
2641,840.755591431628
2641.25,846.021054003282
2641.5,851.527105781027
2641.75,857.126474158977
2642,862.541547206145
2642.25,867.204870138384
2642.5,870.50991910125
2642.75,871.874066784546
2643,870.90480924284
2643.25,867.30044707997
2643.5,860.773692776652
2643.75,852.169570273584
2644,844.287691812948
2644.25,840.121499811329
2644.5,841.961501284844
2644.75,847.540533898784
2645,852.773919971781
2645.25,853.696836424069
2645.5,849.477144070498
2645.75,842.57163446234
2646,835.592813869793
2646.25,830.589640432687
2646.5,827.756809993569
2646.75,826.908204894364
2647,827.823124232844
2647.25,829.94935215435
2647.5,832.550119015929
2647.75,834.909029582729
2648,837.113786599028
2648.25,840.260327819481
2648.5,845.50811068256
2648.75,853.132351207112
2649,860.601250858643
2649.25,864.827289287897
2649.5,863.046266725768
2649.75,855.860667593762
2650,845.872343887604
2650.25,835.705002214894
2650.5,827.36384987835
2650.75,821.611105199293
2651,819.060167240491
2651.25,819.940286967138
2651.5,822.309509304875
2651.75,823.463862675389
2652,820.894977006104
2652.25,814.924043969615
2652.5,807.995730274568
2652.75,802.593044741562
2653,800.309210319811
2653.25,801.299345744509
2653.5,805.587379429791
2653.75,812.781848322574
2654,821.263275653216
2654.25,829.18634630465
2654.5,834.918480382638
2654.75,838.043759444203
2655,838.578071148359
2655.25,836.578447917832
2655.5,832.812314364849
2655.75,828.651580465316
2656,825.484622211312
2656.25,824.172335053999
2656.5,824.430742567904
2656.75,825.82580175342
2657,827.857016760684
2657.25,829.670866147921
2657.5,830.297053990289
2657.75,828.848731737525
2658,825.679258059247
2658.25,822.091856189198
2658.5,819.407494768522
2658.75,818.37041283151
2659,818.698385466065
2659.25,820.003349009015
2659.5,821.944449371713
2659.75,824.368533689361
2660,827.169091844194
2660.25,830.191021092261
2660.5,832.814409754458
2660.75,834.161029026041
2661,833.3772316697
2661.25,830.611970818784
2661.5,827.282513534991
2661.75,824.887405605661
2662,824.500711286412
2662.25,825.835496218489
2662.5,828.3326138688
2662.75,831.353789644666
2663,833.624887764043
2663.25,833.565496709202
2663.5,829.668399057582
2663.75,822.548137009299
2664,815.18553536535
2664.25,810.683598970534
2664.5,810.804102293876
2664.75,813.659168023865
2665,816.745977811518
2665.25,818.127468953408
2665.5,819.057730632444
2665.75,821.908673491714
2666,828.812122015783
2666.25,838.539198941873
2666.5,847.39593731211
2666.75,851.665878370387
2667,849.860090069801
2667.25,844.045115640358
2667.5,836.605685482142
2667.75,829.68830190685
2668,824.221123581772
2668.25,820.743857137065
2668.5,819.752243484969
2668.75,821.015443050809
2669,823.704470241956
2669.25,826.971279320955
2669.5,829.86637331326
2669.75,831.265707530636
2670,830.02800121172
2670.25,825.588581746358
2670.5,819.755729615831
2670.75,814.948070534077
2671,813.390710267472
2671.25,815.090587299682
2671.5,818.638384962264
2671.75,822.621204743907
2672,826.317884552107
2672.25,829.872024594993
2672.5,833.481091025274
2672.75,836.92622962875
2673,838.857006640035
2673.25,837.73255503859
2673.5,832.431988761674
2673.75,824.951542550202
2674,818.689735507086
2674.25,816.945030809487
2674.5,819.882347845129
2674.75,824.102851489842
2675,826.020241912202
2675.25,823.598858359726
2675.5,818.434707776021
2675.75,812.642995436922
2676,808.133445786089
2676.25,805.629790588691
2676.5,805.43118166444
2676.75,807.781299544081
2677,812.194458426949
2677.25,817.66738209012
2677.5,823.195067124943
2677.75,828.11910174866
2678,832.223244178485
2678.25,835.319944414225
2678.5,837.174870430484
2678.75,837.423658430538
2679,835.679533929161
2679.25,831.729405433102
2679.5,826.716475229594
2679.75,822.42148764922
2680,820.587403798024
2680.25,821.689347039634
2680.5,824.731104692576
2680.75,828.633948585258
2681,832.300179723406
2681.25,834.584572562271
2681.5,834.334579148365
2681.75,830.756129651534
2682,825.337922954312
2682.25,820.464108871769
2682.5,818.448306813912
2682.75,820.017444533619
2683,824.357081858206
2683.25,830.588372004395
2683.5,837.714968329551
2683.75,844.502792603562
2684,849.689074068307
2684.25,852.262755662952
2684.5,852.497041615378
2684.75,851.073662510075
2685,848.665579607883
2685.25,845.757565372332
2685.5,842.65541081599
2685.75,839.657932610782
2686,837.165209300131
2686.25,835.861771143012
2686.5,836.481725727506
2686.75,839.574830561096
2687,844.135182297396
2687.25,848.376130024413
2687.5,850.53434549997
2687.75,849.908897621925
2688,847.138387964409
2688.25,842.946975141654
2688.5,838.168604766836
2688.75,834.061623912488
2689,831.986916367386
2689.25,833.147754001301
2689.5,836.721464982919
2689.75,840.480041786601
2690,842.187061973892
2690.25,841.008284418698
2690.5,838.413989806863
2690.75,836.0888586753
2691,835.270889359443
2691.25,835.080700443459
2691.5,834.012154485989
2691.75,830.658945423107
2692,825.11266563042
2692.25,818.619370265791
2692.5,812.448987670978
2692.75,807.267525154332
2693,802.623209041043
2693.25,797.943212790583
2693.5,792.806020905231
2693.75,787.374622619628
2694,781.953124970352
2694.25,776.828782550988
2694.5,772.171872606898
2694.75,768.10306604322
2695,764.7509197065
2695.25,762.328519707932
2695.5,761.09940149551
2695.75,761.279537800617
2696,762.436829082528
2696.25,763.675487348423
2696.5,764.11908686917
2696.75,763.361041071011
2697,761.372204124689
2697.25,758.163584442444
2697.5,754.343464834617
2697.75,751.075600359708
2698,749.50519475876
2698.25,749.810851851393
2698.5,751.173430066945
2698.75,752.729104540146
2699,753.643638362169
2699.25,753.113333122382
2699.5,750.393189153449
2699.75,746.189102248912
2700,742.735920940166
2700.25,742.249771221554
2700.5,744.533101730091
2700.75,746.791403316235
2701,746.242269422978
2701.25,743.274247402508
2701.5,741.414039521274
2701.75,744.145543614802
2702,751.17858191557
2702.25,758.603395561532
2702.5,762.514716101616
2702.75,761.792942997715
2703,757.775718750373
2703.25,751.883819011528
2703.5,745.512330517337
2703.75,740.030923873591
2704,736.749776376658
2704.25,735.529967042846
2704.5,734.722212591215
2704.75,732.667055637371
2705,728.906829741251
2705.25,724.08891148135
2705.5,718.898818709925
2705.75,713.977088835502
2706,709.929285190254
2706.25,707.288693519029
2706.5,705.872753253331
2706.75,705.085881182132
2707,704.367055829206
2707.25,703.388174235861
2707.5,701.906140761356
2707.75,699.929180668888
2708,698.32479193885
2708.25,698.136466849968
2708.5,699.436143176458
2708.75,700.379220757119
2709,698.96374566277
2709.25,695.138198290754
2709.5,691.059744981405
2709.75,688.839345805085
2710,688.565238995395
2710.25,688.970087957618
2710.5,688.955260624227
2710.75,688.494226676952
2711,687.929158795252
2711.25,687.500903040168
2711.5,687.178578527454
2711.75,686.88672759643
2712,686.564225284948
2712.25,686.169341640885
2712.5,685.686166774406
2712.75,685.416419363022
2713,685.883847065375
2713.25,687.480608290367
2713.5,689.845579923807
2713.75,692.359000770001
2714,694.6053035004
2714.25,696.696590066028
2714.5,698.817993600763
2714.75,700.675424248691
2715,701.319649350608
2715.25,699.852010565568
2715.5,696.905033916383
2715.75,694.325621263781
2716,693.734779427685
2716.25,694.740331201828
2716.5,696.008355441399
2716.75,696.402466876288
2717,695.576878916118
2717.25,693.380737551661
2717.5,690.040364351863
2717.75,686.567467473253
2718,684.040968734071
2718.25,682.62489849598
2718.5,681.437533642859
2718.75,679.615012271948
2719,677.044764945839
2719.25,674.047002162575
2719.5,670.979321014227
2719.75,668.334041255706
2720,666.632990843889
2720.25,665.9114141588
2720.5,665.354615932099
2720.75,664.108207653518
2721,661.950493344223
2721.25,659.120690975623
2721.5,655.957619466879
2721.75,653.201106419846
2722,651.692901732624
2722.25,651.588111108207
2722.5,651.953499255373
2722.75,651.817275644786
2723,650.771452003806
2723.25,648.725931018239
2723.5,645.847428549397
2723.75,643.035541246196
2724,641.276830510284
2724.25,640.587226890838
2724.5,640.04458147775
2724.75,638.872724301513
2725,637.164931606683
2725.25,635.266466761156
2725.5,633.3460401623
2725.75,631.333804839396
2726,629.149939934325
2726.25,626.759547112384
2726.5,624.146503729435
2726.75,621.352495614064
2727,618.512692030004
2727.25,615.776813080304
2727.5,613.336751541089
2727.75,611.397017408087
2728,609.864879201992
2728.25,608.201196585908
2728.5,606.006082364213
2728.75,603.839611654578
2729,602.550778885475
2729.25,601.988765609073
2729.5,600.907993165888
2729.75,598.52071923016
2730,595.790517023771
2730.25,593.966125517221
2730.5,593.208529410057
2730.75,592.944751103625
2731,592.680344543157
2731.25,592.090960854436
2731.5,591.018263972529
2731.75,590.109121648324
2732,590.255738140553
2732.25,591.793619938388
2732.5,594.541138423899
2732.75,597.837589887513
2733,599.904546012715
2733.25,599.141172317805
2733.5,596.544471226324
2733.75,594.267778426802
2734,593.283882067361
2734.25,592.997672882104
2734.5,592.859219675252
2734.75,592.904906285721
2735,593.284346515144
2735.25,593.79650326416
2735.5,594.000829956367
2735.75,593.686089716658
2736,593.071940678387
2736.25,592.425942563638
2736.5,592.024247280913
2736.75,592.117230862738
2737,592.357357731402
2737.25,591.833625669154
2737.5,590.269034959651
2737.75,589.055569660278
2738,589.546022894005
2738.25,590.766551257065
2738.5,590.706210225332
2738.75,588.92721386911
2739,586.889010395996
2739.25,585.820459935986
2739.5,585.823236276763
2739.75,586.710925544517
2740,587.745081796626
2740.25,587.895514401405
2740.5,586.977000368268
2740.75,585.985155729088
2741,585.719824535415
2741.25,585.920204680389
2741.5,586.104743325981
2741.75,586.099594198675
2742,585.928928927129
2742.25,585.941056512894
2742.5,586.981322711169
2742.75,589.517115479909
2743,592.28187936839
2743.25,593.676477463064
2743.5,593.555188666495
2743.75,592.772361666979
2744,592.072132385955
2744.25,591.95959044631
2744.5,592.736275252508
2744.75,593.735875441232
2745,594.008745852293
2745.25,593.492501509223
2745.5,592.94459337839
2745.75,592.859002404586
2746,592.981924506224
2746.25,592.991584923918
2746.5,592.95012433053
2746.75,593.090792063673
2747,593.289915535346
2747.25,592.971055186612
2747.5,591.796223912374
2747.75,590.381842038513
2748,589.493325248628
2748.25,589.153631880162
2748.5,588.908928952323
2748.75,588.503222658307
2749,588.023645261577
2749.25,587.570903606991
2749.5,587.157723324338
2749.75,586.752757229404
2750,586.045233493074
2750.25,584.512872423815
2750.5,582.177648354729
2750.75,580.128516063824
2751,579.294073488377
2751.25,579.120722013025
2751.5,578.62550895681
2751.75,577.673529870127
2752,576.797031928581
2752.25,576.294791343629
2752.5,576.008306617422
2752.75,575.729699088186
2753,575.246711008552
2753.25,574.383880186923
2753.5,573.414380064839
2753.75,572.898830803632
2754,573.144380572048
2754.25,574.087373976584
2754.5,575.511693188954
2754.75,576.799937989871
2755,577.377161656068
2755.25,577.66041984294
2755.5,578.52131821569
2755.75,580.218243013378
2756,582.337061811647
2756.25,584.399664785609
2756.5,585.851983171101
2756.75,586.258197094147
2757,586.06597723157
2757.25,586.077158121301
2757.5,586.765357054489
2757.75,588.259317112403
2758,590.559403066371
2758.25,593.368157165892
2758.5,596.283240545754
2758.75,598.470367748848
2759,598.937488288693
2759.25,598.2677059484
2759.5,599.034771734759
2759.75,602.912291722428
2760,607.641496405012
2760.25,610.221090966068
2760.5,610.402286888819
2760.75,609.951491076216
2761,610.33545723882
2761.25,612.210877477803
2761.5,615.95039853952
2761.75,620.426726694602
2762,623.738715460295
2762.25,625.125209907311
2762.5,625.817761468437
2762.75,627.134833318478
2763,629.561707911442
2763.25,633.200649810694
2763.5,637.471603368592
2763.75,640.625094436001
2764,641.099404248742
2764.25,639.826297718435
2764.5,638.958791313216
2764.75,639.846330499288
2765,642.041677630915
2765.25,644.8490759342
2765.5,647.475967250959
2765.75,649.064187150431
2766,649.342451346405
2766.25,649.920034948504
2766.5,652.697202116062
2766.75,657.436286272163
2767,661.64181456779
2767.25,663.148959833907
2767.5,662.353956264149
2767.75,660.579519460754
2768,659.120601602535
2768.25,659.212088817788
2768.5,661.952784821318
2768.75,666.382375729524
2769,669.883820178639
2769.25,670.52495907033
2769.5,669.845831158707
2769.75,670.40135763791
2770,673.276933757661
2770.25,676.805331247335
2770.5,679.09329889056
2770.75,679.471424615179
2771,678.254729545803
2771.25,675.815409045834
2771.5,672.698606174244
2771.75,669.51247412923
2772,666.765560314831
2772.25,664.716861332192
2772.5,663.561294309834
2772.75,662.842027052045
2773,661.414444424488
2773.25,658.331304054733
2773.5,654.22478843122
2773.75,650.388117388042
2774,647.643940238049
2774.25,645.697047007945
2774.5,644.090049340778
2774.75,642.354450765454
2775,640.012634719226
2775.25,636.885846028151
2775.5,634.008123906837
2775.75,632.679455307792
2776,632.883808652146
2776.25,633.047781734955
2776.5,631.869269473755
2776.75,629.979638741565
2777,628.639212450028
2777.25,628.414425344564
2777.5,628.89955109984
2777.75,629.615168601095
2778,630.074739392308
2778.25,629.795811900486
2778.5,628.686616916274
2778.75,627.250831740473
2779,626.040025452281
2779.25,625.590742437161
2779.5,626.422753990701
2779.75,628.322275375135
2780,629.870722229108
2780.25,629.794388284897
2780.5,628.671534134637
2780.75,627.885975749378
2781,628.254607349451
2781.25,629.594971996909
2781.5,631.59552501988
2781.75,633.72026875619
2782,635.32803931192
2782.25,636.058072640046
2782.5,636.08684215299
2782.75,635.730745953036
2783,636.081907178832
2783.25,638.667248855313
2783.5,643.885452675021
2783.75,649.398236521102
2784,652.684848936822
2784.25,654.304878466006
2784.5,657.067877219311
2784.75,663.001325474194
2785,670.954962660605
2785.25,679.019449574973
2785.5,685.211764623893
2785.75,687.450091039646
2786,683.988993667277
2786.25,676.832809150195
2786.5,670.295297648566
2786.75,667.750546989007
2787,667.852796198958
2787.25,667.837225698624
2787.5,666.003376953847
2787.75,662.684363737991
2788,658.46173805237
2788.25,654.22792311872
2788.5,651.124857489196
2788.75,649.967692525061
2789,649.973011191934
2789.25,649.888793975757
2789.5,649.012061357632
2789.75,647.48455846708
2790,645.555581580988
2790.25,643.799258863752
2790.5,642.962584477512
2790.75,643.411156997858
2791,644.520871985433
2791.25,645.543467570462
2791.5,646.283210153672
2791.75,646.9970652621
2792,647.918128855276
2792.25,649.128986953544
2792.5,650.664696167434
2792.75,652.209235486779
2793,653.000393653933
2793.25,652.352403893567
2793.5,650.337130757165
2793.75,647.35956666366
2794,644.143398446462
2794.25,642.127448883265
2794.5,642.70325076002
2794.75,645.127533412369
2795,647.032669373956
2795.25,646.717690086474
2795.5,645.018432394608
2795.75,643.332546752493
2796,642.8600966286
2796.25,644.575110049625
2796.5,648.983978264147
2796.75,653.914020512561
2797,656.241168753355
2797.25,654.924792098209
2797.5,652.530200258433
2797.75,651.810693367882
2798,653.551105590965
2798.25,657.272674984514
2798.5,662.185675788856
2798.75,666.531904404667
2799,668.409875484036
2799.25,667.80875908389
2799.5,666.972162858894
2799.75,667.991214776737
2800,670.567364683164
2800.25,673.207393522109
2800.5,674.703198761924
2800.75,674.73909809189
2801,673.188841912579
2801.25,670.728313326851
2801.5,669.073406886153
2801.75,669.820044214267
2802,672.642271659029
2802.25,676.094805340823
2802.5,678.81478501657
2802.75,679.792852716535
2803,678.123428203007
2803.25,674.35143510672
2803.5,671.32184202428
2803.75,671.862130509668
2804,675.598728232489
2804.25,679.750669670499
2804.5,681.891649454937
2804.75,681.668405496028
2805,679.380638721591
2805.25,676.229033335561
2805.5,675.396507221354
2805.75,680.144266019247
2806,689.14440310302
2806.25,696.296126884249
2806.5,696.209306990191
2806.75,690.923849927763
2807,686.030680993462
2807.25,685.850666085288
2807.5,689.362984575711
2807.75,694.169479978946
2808,698.230862715236
2808.25,700.214374224569
2808.5,698.933065249331
2808.75,694.857442594787
2809,690.236075824041
2809.25,687.252536852287
2809.5,686.359107073626
2809.75,686.910191321173
2810,688.112116618022
2810.25,688.500644250962
2810.5,686.400756030771
2810.75,681.381588770951
2811,676.040645810374
2811.25,673.363200452576
2811.5,674.126134888583
2811.75,676.393022418259
2812,678.169631844282
2812.25,678.490186845786
2812.5,676.955537850207
2812.75,673.725801196347
2813,671.062764733313
2813.25,671.696839662854
2813.5,676.184710781671
2813.75,681.489679719912
2814,684.459425188215
2814.25,684.94140442218
2814.5,684.943029259614
2814.75,686.190215451482
2815,688.592548060049
2815.25,691.436073307784
2815.5,693.879002579514
2815.75,694.755523912663
2816,692.893568135793
2816.25,688.966185147565
2816.5,686.110919754114
2816.75,687.394588066094
2817,692.443383964581
2817.25,698.327238074025
2817.5,702.352371507549
2817.75,703.588616298717
2818,701.754609957208
2818.25,697.250828701843
2818.5,692.664530378344
2818.75,691.001090867598
2819,693.176364325689
2819.25,696.217412434081
2819.5,696.842872901385
2819.75,694.410516789503
2820,690.906248912789
2820.25,688.284368749559
2820.5,687.071344630774
2820.75,686.981790060976
2821,687.587606298537
2821.25,687.847682766914
2821.5,686.549096149953
2821.75,683.315286803141
2822,679.606226022036
2822.25,677.107092918881
2822.5,676.971820948533
2822.75,679.76113494192
2823,685.766532849444
2823.25,693.178363308201
2823.5,699.09246523473
2823.75,701.454982079504
2824,701.4334381683
2824.25,700.946527625072
2824.5,701.416120819832
2824.75,703.232626871321
2825,706.62463826801
2825.25,710.673517945076
2825.5,713.05350778375
2825.75,711.567888998112
2826,707.215276192304
2826.25,703.441815060547
2826.5,703.294875764956
2826.75,705.808207616104
2827,707.948573643975
2827.25,707.319524519525
2827.5,704.676464080221
2827.75,701.722732817135
2828,699.580352189615
2828.25,697.673494317991
2828.5,695.125204796431
2828.75,691.615250576712
2829,687.772110702639
2829.25,684.312394904789
2829.5,681.857865170072
2829.75,680.938852449038
2830,681.872526781827
2830.25,683.270384361837
2830.5,682.913092441411
2830.75,679.414113514068
2831,674.307922044645
2831.25,669.752143883936
2831.5,667.031205285917
2831.75,666.004754671122
2832,666.355210167104
2832.25,667.153569702813
2832.5,667.036201193205
2832.75,665.182127846585
2833,663.213726489761
2833.25,663.408325560247
2833.5,666.40002689774
2833.75,670.0243611985
2834,672.000277729401
2834.25,672.003236094683
2834.5,671.041379828966
2834.75,670.112632727666
2835,670.054473231092
2835.25,671.650439564977
2835.5,674.84490243319
2835.75,678.073910086094
2836,679.747369082251
2836.25,680.284614587932
2836.5,681.674869811922
2836.75,685.571086291703
2837,691.441866144436
2837.25,697.973016851731
2837.5,703.876279920438
2837.75,707.932555989399
2838,708.961782592488
2838.25,707.163364917432
2838.5,704.715331138681
2838.75,703.863088655663
2839,705.111284541869
2839.25,707.340157306175
2839.5,709.405278699666
2839.75,710.53521650577
2840,710.172402781504
2840.25,708.02951638693
2840.5,705.365450746497
2840.75,703.992959085356
2841,705.218608676106
2841.25,708.542833674839
2841.5,713.062525184554
2841.75,717.641884975442
2842,720.657740839468
2842.25,720.466434674455
2842.5,717.276058094336
2842.75,713.866308827275
2843,713.090947687136
2843.25,715.025529029802
2843.5,716.899282547655
2843.75,716.032982240806
2844,712.592313998048
2844.25,708.719948447183
2844.5,706.39544079202
2844.75,705.948450378964
2845,706.90643497867
2845.25,708.601553040043
2845.5,709.452674020674
2845.75,707.605728426123
2846,702.401180965465
2846.25,696.618352017402
2846.5,693.62752001795
2846.75,694.572479018272
2847,696.600915880778
2847.25,696.565238012956
2847.5,694.066545035678
2847.75,691.433798923894
2848,690.905442486513
2848.25,692.686050599638
2848.5,695.827870022522
2848.75,699.341521835201
2849,702.10565941224
2849.25,702.96379834239
2849.5,701.793278817961
2849.75,701.003185658943
2850,703.336157252554
2850.25,709.117406281862
2850.5,715.135686500648
2850.75,718.076682307094
2851,717.935675347311
2851.25,717.634798104825
2851.5,720.003640672161
2851.75,725.721812644328
2852,734.1272801944
2852.25,744.489217482749
2852.5,755.727285260547
2852.75,766.607604363624
2853,775.881647004375
2853.25,782.216159907462
2853.5,784.246157852536
2853.75,781.070950341527
2854,775.320106935941
2854.25,771.244820016215
2854.5,772.649028385109
2854.75,777.812636373306
2855,781.341554389025
2855.25,778.118266958574
2855.5,768.788939655852
2855.75,758.783936083658
2856,753.535172913008
2856.25,754.192186599027
2856.5,756.990870345498
2856.75,757.968714811188
2857,755.556553211674
2857.25,751.078689384339
2857.5,746.027957168864
2857.75,741.7137329508
2858,739.204174063876
2858.25,739.511301276176
2858.5,742.133922201339
2858.75,744.622826223354
2859,744.480658510739
2859.25,741.606239304357
2859.5,738.646760750663
2859.75,738.302676777937
2860,740.638770984017
2860.25,742.850942759413
2860.5,742.11450851089
2860.75,738.259741423769
2861,733.666362301214
2861.25,730.729358045831
2861.5,730.187128648526
2861.75,731.299596503575
2862,733.248893692376
2862.25,734.852633033119
2862.5,734.659129880538
2862.75,731.441275926397
2863,726.461424497918
2863.25,722.500243782614
2863.5,721.975565311387
2863.75,723.977589721533
2864,725.891046180297
2864.25,725.559465204525
2864.5,723.684442366137
2864.75,722.036351144161
2865,721.900761798801
2865.25,722.36652974907
2865.5,721.903147428336
2865.75,719.521287234177
2866,715.978971953213
2866.25,712.385127922532
2866.5,709.566501017911
2866.75,707.690937658917
2867,706.828183964048
2867.25,706.792145785907
2867.5,706.998606166402
2867.75,706.854162229637
2868,706.335592238948
2868.25,705.984102544971
2868.5,706.26486521504
2868.75,706.517292815627
2869,705.37225667921
2869.25,701.882904268092
2869.5,697.81998396965
2869.75,696.005419993406
2870,698.208371121728
2870.25,702.363571131712
2870.5,705.546737650074
2870.75,706.292964029176
2871,705.987123498204
2871.25,706.31194111368
2871.5,707.898659859632
2871.75,710.109603073889
2872,712.260117659662
2872.25,714.088557861735
2872.5,715.655425015463
2872.75,717.074253257711
2873,718.836829362134
2873.25,721.624350208127
2873.5,725.764850794448
2873.75,729.645900935692
2874,730.99463167173
2874.25,728.554063279042
2874.5,725.034315737088
2874.75,724.112424963592
2875,727.786129271131
2875.25,732.826842711715
2875.5,735.00073052808
2875.75,732.19059205757
2876,727.16014979195
2876.25,723.346823606679
2876.5,722.711553753881
2876.75,724.33425947319
2877,726.966234532797
2877.25,729.583370079269
2877.5,731.49250482838
2877.75,732.055294610308
2878,731.4731400223
2878.25,730.908379482974
2878.5,731.511070673811
2878.75,733.071887160243
2879,734.092566900081
2879.25,733.153056908657
2879.5,730.791530210485
2879.75,729.067823704821
2880,729.903321653791
2880.25,733.097836847872
2880.5,737.059588205867
2880.75,740.332721013919
2881,742.881306223968
2881.25,745.411640120442
2881.5,748.493827137392
2881.75,751.617941765902
2882,753.779766503531
2882.25,754.19549116361
2882.5,753.684561902558
2882.75,753.767918709242
2883,755.74907636418
2883.25,759.263545241947
2883.5,763.183599954365
2883.75,766.428270114958
2884,768.320748911658
2884.25,768.377572474301
2884.5,766.233825938045
2884.75,762.652319948447
2885,759.024941207791
2885.25,756.613059815075
2885.5,754.972686481609
2885.75,752.5056932862
2886,747.787795509351
2886.25,742.136499713355
2886.5,738.888807044043
2886.75,741.105823982667
2887,747.254410091712
2887.25,752.381904694067
2887.5,751.905593285106
2887.75,746.682301366621
2888,741.171615669472
2888.25,739.544119743956
2888.5,741.51925609221
2888.75,743.773024113382
2889,743.263370963297
2889.25,740.660960526078
2889.5,738.91765756574
2889.75,740.712573685703
2890,745.66287162139
2890.25,751.622379134848
2890.5,756.569345792068
2890.75,759.736822236845
2891,760.998709640664
2891.25,760.420059447195
2891.5,759.734437590706
2891.75,761.555984637739
2892,768.063930093195
2892.25,776.817899948858
2892.5,782.630318848971
2892.75,780.800201574561
2893,773.208280696635
2893.25,766.232954025691
2893.5,766.066927456157
2893.75,772.998400751895
2894,781.609560234762
2894.25,786.386795181062
2894.5,785.794875448247
2894.75,782.794561430466
2895,780.568632482214
2895.25,780.955602091735
2895.5,783.594802403579
2895.75,787.92195487003
2896,793.311628397297
2896.25,798.997755791002
2896.5,804.194603670688
2896.75,808.609536919817
2897,813.693102125555
2897.25,821.280861974862
2897.5,832.548662504389
2897.75,844.173974473083
2898,850.956819605009
2898.25,848.004313550606
2898.5,836.616590407292
2898.75,823.770885315886
2899,816.649860461076
2899.25,819.462557627791
2899.5,828.305920935326
2899.75,837.906360668718
2900,843.742010237876
2900.25,845.869068466594
2900.5,846.067119765938
2900.75,846.073444869707
2901,846.606609224874
2901.25,847.380847141554
2901.5,848.067666827331
2901.75,848.206337519193
2902,846.967049399176
2902.25,843.456103929329
2902.5,837.050762254559
2902.75,829.654869337491
2903,824.548120853332
2903.25,824.959440644955
2903.5,830.927536902802
2903.75,837.904240058247
2904,840.986345389525
2904.25,837.298406316098
2904.5,830.632517474167
2904.75,826.149165507428
2905,828.396104038461
2905.25,835.631843007255
2905.5,842.421062701575
2905.75,843.40749804749
2906,838.207047754518
2906.25,832.934024439357
2906.5,834.141003678574
2906.75,846.011780288265
2907,863.852671242772
2907.25,880.890722890933
2907.5,890.909775560404
2907.75,893.737442010268
2908,892.906072074071
2908.25,891.999304872633
2908.5,893.503939259207
2908.75,897.05296228565
2909,901.82115412437
2909.25,906.993163088091
2909.5,911.915066206139
2909.75,916.064651939145
2910,918.92355620559
2910.25,920.123925557916
2910.5,919.97292261835
2910.75,918.966865829551
2911,917.602114198926
2911.25,916.377740560494
2911.5,915.797596149224
2911.75,916.366018223315
2912,918.475421219962
2912.25,920.932868088647
2912.5,921.369155106006
2912.75,917.387264189042
2913,907.38679685391
2913.25,893.514932867798
2913.5,879.01987654609
2913.75,867.130749091696
2914,859.286334984968
2914.25,853.705002300465
2914.5,848.268586850432
2914.75,841.180106788851
2915,833.030768382801
2915.25,825.487851422743
2915.5,820.179258221257
2915.75,817.099570984035
2916,814.177507390238
2916.25,809.210785508333
2916.5,801.218590807578
2916.75,792.622321186241
2917,786.431042739008
2917.25,784.932756609035
2917.5,786.2973044141
2917.75,787.234862219121
2918,784.897609875497
2918.25,780.454715831308
2918.5,777.211259118824
2918.75,778.252816376522
2919,782.943517229467
2919.25,787.708739247783
2919.5,789.016955637777
2919.75,786.417060288454
2920,782.683615117844
2920.25,780.711749274209
2920.5,781.402587532362
2920.75,782.508530911393
2921,781.511640286022
2921.25,777.418469064883
2921.5,772.613984105425
2921.75,769.936356651573
2922,771.070402614676
2922.25,774.006480649459
2922.5,775.996741184603
2922.75,775.206295343766
2923,773.512988477603
2923.25,773.738325325652
2923.5,777.932966299478
2923.75,783.855712892551
2924,787.780423633867
2924.25,786.625900088135
2924.5,782.172373764615
2924.75,778.412418567345
2925,779.038656561091
2925.25,783.791731495931
2925.5,789.693891362182
2925.75,793.813420770488
2926,795.209985100381
2926.25,794.781635389709
2926.5,793.497417564424
2926.75,792.42889503773
2927,792.794600456016
2927.25,795.819947282138
2927.5,801.602271586103
2927.75,807.62620946878
2928,811.007539852708
2928.25,809.809663927789
2928.5,805.81050904913
2928.75,801.698022454289
2929,799.823690801913
2929.25,799.732205127613
2929.5,799.573050457924
2929.75,797.587485305608
2930,793.820802723532
2930.25,789.865448693438
2930.5,787.338180945672
2930.75,786.590832987866
2931,786.162751933984
2931.25,784.458958704844
2931.5,780.898170450192
2931.75,777.092888192574
2932,774.941984330213
2932.25,775.605100392654
2932.5,777.849223903285
2932.75,779.958140510619
2933,780.502781941164
2933.25,779.307218324281
2933.5,776.537279212274
2933.75,772.469163243532
2934,768.073258696456
2934.25,764.589203803713
2934.5,763.078897493734
2934.75,763.036710725725
2935,763.143336841418
2935.25,762.186039689403
2935.5,760.161041146541
2935.75,757.795123016933
2936,755.777377177683
2936.25,754.181421150256
2936.5,752.653588431216
2936.75,750.872652553906
2937,749.105280354695
2937.25,748.05759607675
2937.5,748.393590453332
2937.75,749.998495479401
2938,752.16306765222
2938.25,754.171785183358
2938.5,755.434071398383
2938.75,755.452730116326
2939,753.800385195811
2939.25,751.063732730087
2939.5,748.611619677604
2939.75,747.773176186612
2940,748.903035552211
2940.25,751.563736654049
2940.5,755.302530792626
2940.75,759.787306084198
2941,764.781960977347
2941.25,770.060483974724
2941.5,775.519680657164
2941.75,781.15721905175
2942,786.94782482578
2942.25,792.290079552225
2942.5,796.017444906919
2942.75,796.964666106806
2943,795.125201031826
2943.25,792.115501574819
2943.5,789.671279434599
2943.75,789.020068956203
2944,790.201658390218
2944.25,793.086417302791
2944.5,797.281365335242
2944.75,801.411838955761
2945,803.874477849554
2945.25,803.495421847251
2945.5,801.797847978569
2945.75,801.349379236851
2946,804.463761097776
2946.25,810.114329682543
2946.5,814.933610825876
2946.75,815.602415800042
2947,812.008133029396
2947.25,807.912105602684
2947.5,807.302104016312
2947.75,812.35141208389
2948,820.747321513979
2948.25,829.495952452794
2948.5,836.345431543166
2948.75,842.644956172303
2949,850.834621226457
2949.25,863.095584790071
2949.5,877.962878546987
2949.75,891.278825530572
2950,898.83123666799
2950.25,898.304331476808
2950.5,891.663760357131
2950.75,881.462354851196
2951,870.224167997736
2951.25,860.049107645253
2951.5,852.713849825179
2951.75,849.986136276634
2952,852.43217395991
2952.25,857.004551931119
2952.5,859.97929439203
2952.75,858.066230737444
2953,852.518248353786
2953.25,847.298091317169
2953.5,846.381902427612
2953.75,851.143852544689
2954,857.986563874161
2954.25,862.752721646731
2954.5,862.10064655811
2954.75,857.496034807817
2955,852.159853439408
2955.25,849.245227692474
2955.5,849.465839658384
2955.75,850.52892212346
2956,849.956337160502
2956.25,846.241614016563
2956.5,841.537888888754
2956.75,838.859713929947
2957,841.008650229588
2957.25,847.839988321381
2957.5,857.058104607849
2957.75,866.322868260821
2958,873.765067180922
2958.25,878.395301628983
2958.5,879.32056585759
2958.75,875.895780105284
2959,869.260729670786
2959.25,861.336979496995
2959.5,854.03968097375
2959.75,848.481849584264
2960,844.388012867576
2960.25,841.344515278636
2960.5,838.989214554881
2960.75,837.267092274899
2961,836.236478007599
2961.25,835.963556598016
2961.5,836.687519068036
2961.75,838.818624709126
2962,842.773593042177
2962.25,848.65889036852
2962.5,855.806661011284
2962.75,863.430244772591
2963,870.734062995193
2963.25,876.854990952544
2963.5,880.898978519829
2963.75,881.990973652447
2964,880.412872481183
2964.25,878.244132171442
2964.5,877.719341446545
2964.75,880.613713927236
2965,885.35581328154
2965.25,888.892964039838
2965.5,888.193847833028
2965.75,882.526618237371
2966,875.136728376046
2966.25,869.665064027807
2966.5,869.267960140598
2966.75,872.689860912346
2967,876.318385576557
2967.25,876.540432851344
2967.5,872.084672713021
2967.75,866.097542403972
2968,862.215328016215
2968.25,863.564463121259
2968.5,868.872745119284
2968.75,874.619554487673
2969,877.296607359786
2969.25,875.663374103451
2969.5,872.27505334761
2969.75,870.048524041876
2970,871.426322991131
2970.25,875.308249681688
2970.5,878.991622739681
2970.75,879.795025313354
2971,877.013692082606
