2709,1055.50549612452
2709.25,1058.62621191682
2709.5,1062.04062221809
2709.75,1064.54029428902
2710,1064.99903099731
2710.25,1063.434861462
2710.5,1060.70450871253
2710.75,1057.68397049399
2711,1055.24223424188
2711.25,1053.89525813666
2711.5,1053.64748913379
2711.75,1054.46329483608
2712,1056.30679002171
2712.25,1058.99206783309
2712.5,1061.93024639004
2712.75,1064.46548019613
2713,1065.94192375493
2713.25,1065.88062661082
2713.5,1064.72845198225
2713.75,1063.23412583089
2714,1062.14654027271
2714.25,1062.15944297001
2714.5,1063.27718719862
2714.75,1065.03527101146
2715,1066.96022123793
2715.25,1068.58328314441
2715.5,1069.62028641935
2715.75,1070.0275128854
2716,1069.77738180436
2716.25,1068.84249475304
2716.5,1067.32210733004
2716.75,1065.66336152013
2717,1064.37260491994
2717.25,1063.95618512611
2717.5,1064.80530877427
2717.75,1066.58707728407
2718,1068.68779197266
2718.25,1070.49313726058
2718.5,1071.4189572644
2718.75,1071.34116669397
2719,1070.49439481488
2719.25,1069.12276504327
2719.5,1067.4700400416
2719.75,1065.75444476871
2720,1064.15220379695
2720.25,1062.83563072258
2720.5,1061.97703732926
2720.75,1061.7151774968
2721,1062.06947211618
2721.25,1063.03282817896
2721.5,1064.59815267672
2721.75,1066.71500940153
2722,1069.00358135157
2722.25,1070.93280593217
2722.5,1071.97082611238
2722.75,1071.61755876535
2723,1070.00622105786
2723.25,1067.85347855388
2723.5,1065.89777932736
2723.75,1064.87418713343
2724,1065.08052927689
2724.25,1065.95011368258
2724.5,1066.814745437
2724.75,1067.00622962664
2725,1066.07225060103
2725.25,1064.46767935781
2725.5,1062.88564745747
2725.75,1062.01928746902
2726,1062.47095515634
2726.25,1063.95532489974
2726.5,1065.68506071881
2726.75,1066.86713045996
2727,1066.73891031918
2727.25,1065.35589303111
2727.5,1063.663645123
2727.75,1062.65256499023
2728,1063.30998642801
2728.25,1065.97158805043
2728.5,1069.51815600418
2728.75,1072.63347050885
2729,1074.00131178407
2729.25,1072.66797485519
2729.5,1069.37589346611
2729.75,1065.36315098006
2730,1061.86789120249
2730.25,1060.03259857011
2730.5,1059.82594842504
2730.75,1060.42891883924
2731,1061.00792360551
2731.25,1060.74477487643
2731.5,1059.39264322714
2731.75,1057.43152180674
2732,1055.38846058558
2732.25,1053.78999391924
2732.5,1052.98047472714
2732.75,1052.85431623626
2733,1053.23768977425
2733.25,1053.95676666874
2733.5,1054.84093873607
2733.75,1055.73465342359
2734,1056.48675418692
2734.25,1056.94608500972
2734.5,1056.97524732258
2734.75,1056.56397973151
2735,1055.77075631114
2735.25,1054.65472450649
2735.5,1053.27702804116
2735.75,1051.74382325598
2736,1050.20578374227
2736.25,1048.8154802928
2736.5,1047.72476198483
2736.75,1047.02397030397
2737,1046.69583989667
2737.25,1046.71224964868
2737.5,1047.04502837837
2737.75,1047.59249808608
2738,1048.03223566274
2738.25,1048.00055219873
2738.5,1047.13375878441
2738.75,1045.19687091845
2739,1042.63335051545
2739.25,1040.10940474356
2739.5,1038.2913725195
2739.75,1037.76761265929
2740,1038.37662834074
2740.25,1039.53844383497
2740.5,1040.66853198608
2740.75,1041.20035905667
2741,1040.87321605644
2741.25,1039.68205876542
2741.5,1037.62970335267
2741.75,1034.72801919433
2742,1031.33134665689
2742.25,1028.23350436218
2742.5,1026.25714467913
2742.75,1026.21925212032
2743,1028.31859865895
2743.25,1031.58803780244
2743.5,1034.93119111438
2743.75,1037.25278607213
2744,1037.89735653222
2744.25,1037.31836344619
2744.5,1036.14132805541
2744.75,1034.9917715126
2745,1034.36377748992
2745.25,1034.23944718928
2745.5,1034.4762383934
2745.75,1034.93160888497
2746,1035.4446823137
2746.25,1035.7454876869
2746.5,1035.52386494849
2746.75,1034.46959108966
2747,1032.35452249817
2747.25,1029.71730847773
2747.5,1027.51478401282
2747.75,1026.70800198454
2748,1028.16647321871
2748.25,1031.35152153285
2748.5,1034.62043939047
2748.75,1036.3009396825
2749,1034.79250591215
2749.25,1030.26673686979
2749.5,1024.73753065488
2749.75,1020.30459942201
2750,1019.03938995138
2750.25,1021.40941741539
2750.5,1025.44760271429
2750.75,1028.98334487787
2751,1029.85951214826
2751.25,1027.32702541809
2751.5,1023.25963916586
2751.75,1019.81741463166
2752,1019.15824051829
2752.25,1022.38493686824
2752.5,1027.85125249134
2752.75,1033.46885952821
2753,1037.14962065529
2753.25,1037.50243663815
2753.5,1035.40274043128
2753.75,1032.18586266581
2754,1029.18713397281
2754.25,1027.50600103262
2754.5,1027.0466213628
2754.75,1027.33545013614
2755,1027.89879636099
2755.25,1028.32247817484
2755.5,1028.62442534027
2755.75,1029.0132695483
2756,1029.69848014605
2756.25,1030.85765872651
2756.5,1032.33191471781
2756.75,1033.76037827593
2757,1034.7794314191
2757.25,1035.05441388197
2757.5,1034.7326387641
2757.75,1034.35903170511
2758,1034.49040784389
2758.25,1035.66679266216
2758.5,1037.88887172916
2758.75,1040.51602977494
2759,1042.87027783675
2759.25,1044.27915841998
2759.5,1044.52055371532
2759.75,1044.14864349407
2760,1043.79445356386
2760.25,1044.08867218713
2760.5,1045.37522377188
2760.75,1047.18915273295
2761,1048.92390453904
2761.25,1049.97292465887
2761.5,1049.88081552949
2761.75,1048.91215906352
2762,1047.54566835592
2762.25,1046.26009195859
2762.5,1045.48424672737
2762.75,1045.20052910745
2763,1045.15636382278
2763.25,1045.09707581145
2763.5,1044.78863692688
2763.75,1044.36378396331
2764,1044.27043617134
2764.25,1044.96676886765
2764.5,1046.89853477314
2764.75,1049.95972178808
2765,1053.28497699965
2765.25,1055.95367809134
2765.5,1057.04756294431
2765.75,1056.18789397572
2766,1054.21950972235
2766.25,1052.15592343107
2766.5,1051.01064834879
2766.75,1051.5089978462
2767,1053.10055824532
2767.25,1054.88204433849
2767.5,1055.95015863443
2767.75,1055.54080597836
2768,1054.05294172929
2768.25,1052.46440424543
2768.5,1051.75725121409
2768.75,1052.85694275085
2769,1055.59489727333
2769.25,1058.81277566559
2769.5,1061.3165637046
2769.75,1061.92628421936
2770,1060.32192644112
2770.25,1057.52673126635
2770.5,1054.68070084046
2770.75,1052.92364274615
2771,1052.95691424518
2771.25,1054.11045757208
2771.5,1055.4468079687
2771.75,1056.02850067692
2772,1055.10515237029
2772.25,1053.0338372673
2772.5,1050.57763242668
2772.75,1048.50022940273
2773,1047.51455184964
2773.25,1047.69833622348
2773.5,1048.69708341258
2773.75,1050.1480117676
2774,1051.69331363044
2774.25,1053.11814164604
2774.5,1054.3685431268
2774.75,1055.39914196141
2775,1056.16483554539
2775.25,1056.65335744346
2775.5,1056.91607556198
2775.75,1057.0116497108
2776,1056.99874070377
2776.25,1056.99210923062
2776.5,1057.31355705673
2776.75,1058.33263751056
2777,1060.41890392059
2777.25,1063.82039249018
2777.5,1067.88395187791
2777.75,1071.55129956395
2778,1073.76221582246
2778.25,1073.51900319993
2778.5,1070.94903657794
2778.75,1067.1542747659
2779,1063.26890649403
2779.25,1060.42281211786
2779.5,1059.26852994296
2779.75,1059.55428547677
2780,1060.92751150232
2780.25,1063.03564062282
2780.5,1065.47182351727
2780.75,1067.62171764834
2781,1068.82140983117
2781.25,1068.40698688089
2781.5,1065.86504454836
2781.75,1061.936024896
2782,1057.98292039631
2782.25,1055.3732190496
2782.5,1055.41639250336
2782.75,1058.03120476833
2783,1061.71367781334
2783.25,1064.89540933168
2783.5,1066.01789177025
2783.75,1064.50082045524
2784,1061.55598939804
2784.25,1058.58681616453
2784.5,1056.99671814566
2784.75,1057.74895538069
2785,1060.08484780711
2785.25,1062.8246910418
2785.5,1064.78878070168
2785.75,1064.96418700254
2786,1063.65514295488
2786.25,1061.79104496251
2786.5,1060.3050659813
2786.75,1060.09244230157
2787,1061.25101238411
2787.25,1063.12085653837
2787.5,1065.01205280592
2787.75,1066.23811897751
2788,1066.42849486065
2788.25,1065.77851701501
2788.5,1064.54234649099
2788.75,1062.97414441378
2789,1061.34840727063
2789.25,1060.01723618084
2789.5,1059.35124175625
2789.75,1059.72103460871
2790,1061.42196287645
2790.25,1064.12351663111
2790.5,1067.18490909464
2790.75,1069.96312584596
2791,1071.83628345088
2791.25,1072.61818434923
2791.5,1072.53206614965
2791.75,1071.81704095011
2792,1070.71218889383
2792.25,1069.45230565668
2792.5,1068.26363100409
2792.75,1067.37138809456
2793,1067.00080008659
2793.25,1067.32310503963
2793.5,1068.26306020773
2793.75,1069.67511767092
2794,1071.4137242292
2794.25,1073.3188976477
2794.5,1075.07528234524
2794.75,1076.27285673651
2795,1076.50025403209
2795.25,1075.35826357995
2795.5,1072.91998394447
2795.75,1069.87190933456
2796,1066.94151306364
2796.25,1064.85609213106
2796.5,1064.08249759813
2796.75,1064.30495441314
2797,1065.06128865635
2797.25,1065.88932640801
2797.5,1066.38332798416
2797.75,1066.50932723958
2798,1066.38377441181
2798.25,1066.12354363101
2798.5,1065.83925841529
2798.75,1065.53692905117
2799,1065.13595916127
2799.25,1064.55314339856
2799.5,1063.70711784857
2799.75,1062.64980146767
2800,1061.65399986098
2800.25,1061.01329496815
2800.5,1061.02124853654
2800.75,1061.80825248244
2801,1062.94677046053
2801.25,1063.89011720428
2801.5,1064.09160744715
2801.75,1063.09526637231
2802,1061.09751520179
2802.25,1058.58027903245
2802.5,1056.02668820921
2802.75,1053.90903249121
2803,1052.5025066054
2803.25,1051.91048885801
2803.5,1052.23060256959
2803.75,1053.55500994366
2804,1055.64656953379
2804.25,1057.75677594276
2804.5,1059.09302504215
2804.75,1058.86325832915
2805,1056.70989640159
2805.25,1053.49074306139
2805.5,1050.27449490381
2805.75,1048.12984852415
2806,1047.90152524523
2806.25,1049.16504937286
2806.5,1051.04940510385
2806.75,1052.68308198189
2807,1053.26880190562
2807.25,1052.79512621224
2807.5,1051.72324407781
2807.75,1050.52081242961
2808,1049.64314949788
2808.25,1049.23463404084
2808.5,1049.11282983815
2808.75,1049.07978440284
2809,1048.93917428965
2809.25,1048.6425176928
2809.5,1048.40517191125
2809.75,1048.46979162667
2810,1049.07897741385
2810.25,1050.36319050055
2810.5,1052.10473740588
2810.75,1054.01855855632
2811,1055.81959437838
2811.25,1057.24738280561
2811.5,1058.17900621034
2811.75,1058.53933177641
2812,1058.25327439849
2812.25,1057.26267406894
2812.5,1055.70718717376
2812.75,1053.854599738
2813,1051.97485613674
2813.25,1050.33459554488
2813.5,1049.09401974067
2813.75,1048.28662005055
2814,1047.93848931492
2814.25,1048.07491789486
2814.5,1048.60078244528
2814.75,1049.17337407352
2815,1049.41952401796
2815.25,1048.96607104479
2815.5,1047.60062851048
2815.75,1045.68577391725
2816,1043.7125629317
2816.25,1042.17205122047
2816.5,1041.50242596597
2816.75,1041.79924956576
2817,1043.02151082438
2817.25,1045.12784490935
2817.5,1048.04977497287
2817.75,1051.41136154587
2818,1054.64190494707
2818.25,1057.1676175833
2818.5,1058.43485697367
2818.75,1058.37677807623
2819,1057.42673463786
2819.25,1056.04090640736
2819.5,1054.67402119514
2819.75,1053.61776323159
2820,1052.8537428885
2820.25,1052.32884663031
2820.5,1051.98996207133
2820.75,1051.80790425274
2821,1051.83897138624
2821.25,1052.15854383744
2821.5,1052.84200197196
2821.75,1053.91105275004
2822,1055.0265839533
2822.25,1055.70080184599
2822.5,1055.44544948647
2822.75,1053.83053565009
2823,1051.23908270845
2823.25,1048.65119320076
2823.5,1047.0607544793
2823.75,1047.43894768476
2824,1049.86335606193
2824.25,1053.24440566326
2824.5,1056.41387823463
2824.75,1058.20639205928
2825,1057.98784622237
2825.25,1056.27680813267
2825.5,1053.7428651412
2825.75,1051.05560459902
2826,1048.80464222749
2826.25,1047.23794308807
2826.5,1046.51225338731
2826.75,1046.7843184297
2827,1048.13565989291
2827.25,1050.04324073722
2827.5,1051.69279587942
2827.75,1052.26819185443
2828,1051.02474735488
2828.25,1048.34760668773
2828.5,1045.52377986521
2828.75,1043.86541003945
2829,1044.65827882641
2829.25,1048.01843174627
2829.5,1052.4527815379
2829.75,1056.35118860395
2830,1058.10770775979
2830.25,1056.97971560947
2830.5,1054.13821019808
2830.75,1051.01117910678
2831,1049.02660991673
2831.25,1049.21702020173
2831.5,1050.88609204332
2831.75,1052.86520976899
2832,1053.98574648685
2832.25,1053.26340220849
2832.5,1051.19364080879
2832.75,1048.98408969759
2833,1047.84692803368
2833.25,1048.92442652622
2833.5,1052.11961517059
2833.75,1056.2719479368
2834,1060.18636083131
2834.25,1062.68159022561
2834.5,1063.23602935043
2834.75,1062.26395008839
2835,1060.25079640668
2835.25,1057.68201942765
2835.5,1055.04903476322
2835.75,1052.86004154452
2836,1051.62616944748
2836.25,1051.85854814804
2836.5,1053.90826441601
2836.75,1057.22494319318
2837,1060.94285741341
2837.25,1064.19594655782
2837.5,1066.18341984252
2837.75,1066.83075623437
2838,1066.51701550507
2838.25,1065.62817170226
2838.5,1064.54483843118
2838.75,1063.4607326262
2839,1062.33853467298
2839.25,1061.12661195262
2839.5,1059.77355839436
2839.75,1058.31487999339
2840,1057.00386959282
2840.25,1056.12738302646
2840.5,1055.97227612807
2840.75,1056.74892412191
2841,1058.27729090587
2841.25,1060.25308726933
2841.5,1062.37197166946
2841.75,1064.33651669379
2842,1065.92191478623
2842.25,1066.94677167081
2842.5,1067.23027673473
2842.75,1066.60012609305
2843,1065.14377981801
2843.25,1063.25002854222
2843.5,1061.32454040737
2843.75,1059.77250665805
2844,1058.85713990171
2844.25,1058.50196773108
2844.5,1058.58078172435
2844.75,1058.96737345968
2845,1059.53427708765
2845.25,1060.14791654754
2845.5,1060.67286247122
2845.75,1060.97368507413
2846,1060.92034764433
2846.25,1060.43861460235
2846.5,1059.48722706817
2846.75,1058.0253545958
2847,1056.02373180652
2847.25,1053.78428664382
2847.5,1051.98100400522
2847.75,1051.30764127669
2848,1052.45419156594
2848.25,1055.53438053607
2848.5,1059.4710496209
2848.75,1063.039649259
2849,1065.01563265881
2849.25,1064.56656249649
2849.5,1062.33907881509
2849.75,1059.32850995198
2850,1056.53018424455
2850.25,1054.84179753221
2850.5,1054.33804455835
2850.75,1054.68094487613
2851,1055.5294247549
2851.25,1056.54422672922
2851.5,1057.42161751151
2851.75,1057.89022794092
2852,1057.67987139151
2852.25,1056.52488668575
2852.5,1054.47859643021
2852.75,1052.11815793868
2853,1050.06941132304
2853.25,1048.95807988519
2853.5,1049.15795558395
2853.75,1050.25786973645
2854,1051.69420721611
2854.25,1052.90335289636
2854.5,1053.42623272216
2854.75,1053.39052346093
2855,1053.12846886069
2855.25,1052.97252303367
2855.5,1053.21921259433
2855.75,1053.761200665
2856,1054.23699693238
2856.25,1054.28115381844
2856.5,1053.54242270005
2856.75,1052.05867342463
2857,1050.29518035024
2857.25,1048.73909514485
2857.5,1047.87515188229
2857.75,1047.88998711206
2858,1048.38826811682
2858.25,1048.90737427589
2858.5,1048.98470528772
2858.75,1048.29263208437
2859,1046.9599338811
2859.25,1045.21176650104
2859.5,1043.2732857673
2859.75,1041.35947499074
2860,1039.62314082414
2860.25,1038.19360494092
2860.5,1037.20014539312
2860.75,1036.75162790304
2861,1036.73733759821
2861.25,1036.91287566929
2861.5,1037.03194784383
2861.75,1036.8530285484
2862,1036.22597418908
2862.25,1035.08288354385
2862.5,1033.3587898028
2862.75,1030.99704097074
2863,1028.27913794577
2863.25,1025.93468264622
2863.5,1024.72412919693
2863.75,1025.40247699977
2864,1028.15058469407
2864.25,1032.07768672611
2864.5,1036.1757486045
2864.75,1039.4377256486
2865,1041.20333531649
2865.25,1041.66739677762
2865.5,1041.1542030251
2865.75,1039.98804705853
2866,1038.50355543194
2866.25,1037.07563114723
2866.5,1036.08898860901
2866.75,1035.92834222186
2867,1036.88552013687
2867.25,1038.6638747154
2867.5,1040.73700060354
2867.75,1042.5779662923
2868,1043.70758873701
2868.25,1044.13147560274
2868.5,1044.13757081967
2868.75,1044.01732795576
2869,1044.04919785021
2869.25,1044.25409302752
2869.5,1044.41654040241
2869.75,1044.31230444524
2870,1043.72344011617
2870.25,1042.75250964194
2870.5,1041.9686335137
2870.75,1041.97773003952
2871,1043.3840858722
2871.25,1046.34511657107
2871.5,1049.96636878043
2871.75,1053.202157782
2872,1055.00679911198
2872.25,1054.68797176243
2872.5,1052.92897497915
2872.75,1050.7478065153
2873,1049.16246412409
2873.25,1049.05674907743
2873.5,1050.28724723809
2873.75,1052.23590899819
2874,1054.2821233625
2874.25,1055.82979065483
2874.5,1056.65966499064
2874.75,1056.847852943
2875,1056.47836809864
2875.25,1055.63695238268
2875.5,1054.48851046431
2875.75,1053.30830098521
2876,1052.37976576556
2876.25,1051.98591058987
2876.5,1052.21263839798
2876.75,1052.63815094853
2877,1052.76001851854
2877.25,1052.075811385
2877.5,1050.28117987325
2877.75,1048.01675313067
2878,1046.2046486613
2878.25,1045.76703178667
2878.5,1047.4992604695
2878.75,1051.02988544192
2879,1055.35883059226
2879.25,1059.47993346398
2879.5,1062.42602449842
2879.75,1063.94819655367
2880,1064.42870466554
2880.25,1064.27128541186
2880.5,1063.87787152576
2880.75,1063.5169383758
2881,1063.2341234796
2881.25,1063.05389808832
2881.5,1063.00073230756
2881.75,1063.08828078536
2882,1063.29290936837
2882.25,1063.58295363703
2882.5,1063.92674917177
2882.75,1064.2907607454
2883,1064.62752523024
2883.25,1064.88329704742
2883.5,1065.00430011815
2883.75,1064.93854248189
2884,1064.66801080398
2884.25,1064.20515895649
2884.5,1063.56352002529
2884.75,1062.75686347808
2885,1061.82024783346
2885.25,1060.82663346012
2885.5,1059.85289029933
2885.75,1058.97588826153
2886,1058.27124211871
2886.25,1057.80997682433
2886.5,1057.66206846697
2886.75,1057.89749313521
2887,1058.56390472505
2887.25,1059.54076561474
2887.5,1060.63087693745
2887.75,1061.63664998441
2888,1062.36197889342
2888.25,1062.63665602795
2888.5,1062.31249661626
2888.75,1061.24201727162
2889,1059.28257123034
2889.25,1056.62625450674
2889.5,1054.01139102364
2889.75,1052.22664413898
2890,1052.06053649802
2890.25,1053.87525879407
2890.5,1056.66636342518
2890.75,1059.15612272552
2891,1060.06680902927
2891.25,1058.42266623167
2891.5,1055.05950770695
2891.75,1051.48561471705
2892,1049.21037943444
2892.25,1049.61546446908
2892.5,1052.3573279464
2892.75,1055.85349755138
2893,1058.49438072885
2893.25,1058.71410835271
2893.5,1056.37684320307
2893.75,1053.06189242422
2894,1050.44990053485
2894.25,1050.21744873141
2894.5,1053.11587376606
2894.75,1057.7999117481
2895,1062.63554727573
2895.25,1065.98876494717
2895.5,1066.65421024774
2895.75,1065.16947427069
2896,1062.51507642423
2896.25,1059.67153618741
2896.5,1057.53787485224
2896.75,1056.25596039626
2897,1055.55656546424
2897.25,1055.16637739561
2897.5,1054.81817672261
2897.75,1054.38845147121
2898,1053.89940553213
2898.25,1053.3797376874
2898.5,1052.85860805936
2898.75,1052.40940916509
2899,1052.18581983612
2899.25,1052.35000456124
2899.5,1053.06409979211
2899.75,1054.35455321248
2900,1055.79793746747
2900.25,1056.87771359927
2900.5,1057.07734265003
2900.75,1055.98892026879
2901,1053.88814087832
2901.25,1051.31593780047
2901.5,1048.81382905888
2901.75,1046.90574574526
2902,1045.87497855996
2902.25,1045.83045109062
2902.5,1046.877187342
2902.75,1049.10817602265
2903,1052.22409018534
2903.25,1055.45582316965
2903.5,1058.0065823366
2903.75,1059.08340386237
2904,1058.41097923317
2904.25,1056.75001974408
2904.5,1054.9846618403
2904.75,1053.99904195929
2905,1054.42789600743
2905.25,1055.91775521052
2905.5,1057.87042689608
2905.75,1059.68771839162
2906,1060.81933501221
2906.25,1061.08387038771
2906.5,1060.47126764478
2906.75,1058.97241570989
2907,1056.59792953334
2907.25,1053.72527927969
2907.5,1051.05618659949
2907.75,1049.30353769529
2908,1049.17157323932
2908.25,1050.77176892229
2908.5,1053.25151059504
2908.75,1055.6697208713
2909,1057.0857895633
2909.25,1056.94199091531
2909.5,1055.75565107685
2909.75,1054.23137616394
2910,1053.07377229261
2910.25,1052.83242758031
2910.5,1053.19639107905
2910.75,1053.55781464687
2911,1053.30857064636
2911.25,1051.9122620243
2911.5,1049.62850909355
2911.75,1047.21307200929
2912,1045.42923138214
2912.25,1045.01855136429
2912.5,1046.13814075076
2912.75,1048.30914071386
2913,1051.02065046643
2913.25,1053.76270720485
2913.5,1056.10570214108
2913.75,1057.76083811741
2914,1058.45355362016
2914.25,1057.90937117102
2914.5,1056.09402130633
2914.75,1053.73969304965
2915,1051.73111677015
2915.25,1050.95302283696
2915.5,1052.06485704057
2915.75,1054.27688972465
2916,1056.22564649978
2916.25,1056.54622500467
2916.5,1054.00988242472
2916.75,1049.13495856798
2917,1043.65016718798
2917.25,1039.30848653641
2917.5,1037.82394289714
2917.75,1039.52996430595
2918,1043.04023927494
2918.25,1046.86064854873
2918.5,1049.50436406853
2918.75,1050.25538408959
2919,1049.83829923487
2919.25,1049.13559743108
2919.5,1049.02968113964
2919.75,1050.07360282038
2920,1051.74543877331
2920.25,1053.30430301077
2920.5,1054.00930954513
2920.75,1053.27912462866
2921,1051.47230316297
2921.25,1049.29039592785
2921.5,1047.43545601852
2921.75,1046.56995947073
2922,1046.87844384184
2922.25,1048.22840360184
2922.5,1050.48164439029
2922.75,1053.49277004375
2923,1056.92321892646
2923.25,1060.22460981285
2923.5,1062.83802170789
2923.75,1064.20818080634
2924,1064.17890020451
2924.25,1063.34734759432
2924.5,1062.39428858425
2924.75,1062.00048876636
2925,1062.65748311751
2925.25,1064.10990716694
2925.5,1065.91814424267
2925.75,1067.64257767271
2926,1068.87415407578
2926.25,1069.46413263575
2926.5,1069.39542697073
2926.75,1068.65196972583
2927,1067.22755757159
2927.25,1065.36017087361
2927.5,1063.54199668254
2927.75,1062.27709168939
2928,1062.06772173798
2928.25,1063.09121448215
2928.5,1064.8251082448
2928.75,1066.65604023748
2929,1067.97064767176
2929.25,1068.32840382423
2929.5,1068.05737398755
2929.75,1067.69919355993
2930,1067.79550639419
2930.25,1068.81879567566
2930.5,1070.50924306012
2930.75,1072.16653184298
2931,1073.08431445002
2931.25,1072.57430127151
2931.5,1070.57086595159
2931.75,1067.77412212376
2932,1064.93124104137
2932.25,1062.7890463932
2932.5,1061.86239472888
2932.75,1062.0325113755
2933,1063.07342194979
2933.25,1064.75915206851
2933.5,1066.81938057859
2933.75,1068.72640159292
2934,1069.85988353308
2934.25,1069.59937245481
2934.5,1067.39396929238
2934.75,1063.66631639383
2935,1059.55553971477
2935.25,1056.21738889871
2935.5,1054.7922861459
2935.75,1055.55059712347
2936,1057.44186666171
2936.25,1059.30520504916
2936.5,1059.98032361818
2936.75,1058.78036842724
2937,1056.3409640032
2937.25,1053.52686608207
2937.5,1051.20283039982
2937.75,1050.09763511641
2938,1050.16116291598
2938.25,1051.06644783248
2938.5,1052.48619134819
2938.75,1054.09129115877
2939,1055.53246743627
2939.25,1056.44778883211
2939.5,1056.47512899893
2939.75,1055.27207633682
2940,1053.03278613177
2940.25,1050.53867893385
2940.5,1048.6010556334
2940.75,1048.02741535912
2941,1049.12380834906
2941.25,1051.19927427192
2941.5,1053.44500828289
2941.75,1055.05222667199
2942,1055.41305106118
2942.25,1054.61251438105
2942.5,1052.88492337652
2942.75,1050.46458479253
2943,1047.60433230999
2943.25,1044.68162056748
2943.5,1042.12528372295
2943.75,1040.36431646204
2944,1039.78246295529
2944.25,1040.15999502765
2944.5,1040.84761561335
2944.75,1041.18682250901
2945,1040.54282459754
2945.25,1038.91225782113
2945.5,1036.97506254581
2945.75,1035.44528597839
2946,1035.03264925105
2946.25,1036.12736697543
2946.5,1038.58648020706
2946.75,1042.21642570606
2947,1046.82293774141
2947.25,1051.97063496787
2947.5,1056.63174928233
2947.75,1059.68918283369
2948,1060.02583777083
2948.25,1056.99767431826
2948.5,1051.95824341453
2948.75,1046.78828346775
2949,1043.36853582824
2949.25,1043.32796544841
2949.5,1046.04474493429
2949.75,1049.71245590096
2950,1052.51409734783
2950.25,1052.74051731249
2950.5,1050.50425485798
2950.75,1047.43478954223
2951,1045.20785879521
2951.25,1045.47417806286
2951.5,1048.62002151008
2951.75,1053.1970562868
2952,1057.61291903611
2952.25,1060.27777199492
2952.5,1060.3215012631
2952.75,1058.58141677792
2953,1056.14247201525
2953.25,1054.08962045098
2953.5,1053.30615507588
2953.75,1053.7042539981
2954,1054.90414445354
2954.25,1056.52599628206
2954.5,1058.21067125815
2954.75,1059.79675741937
2955,1061.232640396
2955.25,1062.46788087566
2955.5,1063.45197575602
2955.75,1064.13291557341
2956,1064.4571624025
2956.25,1064.37111010757
2956.5,1063.82210217699
2956.75,1062.88143597263
2957,1061.86617327187
2957.25,1061.12232716105
2957.5,1060.99591072646
2957.75,1061.67661017252
2958,1062.70306195185
2958.25,1063.44444178575
2958.5,1063.26992499975
2958.75,1061.67067089847
2959,1059.22609320943
2959.25,1057.08739426888
2959.5,1056.4108546357
2959.75,1058.29590837488
2960,1062.47554290538
2960.25,1067.28270783107
2960.5,1070.98678678595
2960.75,1071.86808211192
2961,1069.37510344856
2961.25,1065.14725202855
2961.5,1061.06510157665
2961.75,1059.0092258176
2962,1060.2879036724
2962.25,1063.74060147719
2962.5,1067.54120524633
2962.75,1069.86359114063
2963,1069.11977674794
2963.25,1065.87309922144
2963.5,1061.82882387733
2963.75,1058.70272413788
2964,1058.15980479613
2964.25,1060.43738105517
2964.5,1064.18368520553
2964.75,1067.9637861349
2965,1070.34678396607
2965.25,1070.52206624916
2965.5,1068.96251508658
2965.75,1066.30010591683
2966,1063.16681417838
2966.25,1060.14524537668
2966.5,1057.58650357404
2966.75,1055.7738958646
2967,1054.99072074079
2967.25,1055.47103220246
2967.5,1056.93182048223
2967.75,1058.7810386856
2968,1060.42248795577
2968.25,1061.28259093009
2968.5,1061.37394788334
2968.75,1061.33445755345
2969,1061.83247457665
2969.25,1063.53279634337
2969.5,1066.57785446579
2969.75,1070.04192179325
2970,1072.86871240093
2970.25,1074.00194036398
2970.5,1072.70594030185
2970.75,1069.60940774143
2971,1065.70388827857
2971.25,1061.9809305034
2971.5,1059.35769987906
2971.75,1057.93726291145
2972,1057.32053254392
2972.25,1057.10103055431
2972.5,1056.87923469468
2972.75,1056.47219217607
2973,1055.95057854554
2973.25,1055.39949511969
2973.5,1054.90376752227
2973.75,1054.49755727691
2974,1054.10558972863
2974.25,1053.63832543513
2974.5,1053.0062249541
2974.75,1052.17876686313
2975,1051.36749097373
2975.25,1050.84598748574
2975.5,1050.88784663428
2975.75,1051.71649262823
2976,1053.15945734368
2976.25,1054.85649699883
2976.5,1056.44623660606
2976.75,1057.58524383553
2977,1058.22610327904
2977.25,1058.56423633917
2977.5,1058.8022401356
2977.75,1059.13871414504
2978,1059.55568315858
2978.25,1059.71222597652
2978.5,1059.24107906308
2978.75,1057.77528708466
2979,1055.2488812703
2979.25,1052.45964227313
2979.5,1050.35932750408
2979.75,1049.89969437404
2980,1051.73073733869
2980.25,1054.7671146257
2980.5,1057.30438839923
2980.75,1057.63735541245
2981,1054.2672633139
2981.25,1047.98236912521
2981.5,1040.99448494324
2981.75,1035.53692093402
2982,1033.77691856579
2982.25,1035.9570622068
2982.5,1040.13907062537
2982.75,1044.26710117835
2983,1046.3037076308
2983.25,1045.46476188701
2983.5,1043.0000186574
2983.75,1040.34530652979
2984,1038.93548726143
2984.25,1039.60267629725
2984.5,1041.54833986904
2984.75,1043.70089229701
2985,1044.98874790141
2985.25,1044.64985144981
2985.5,1043.25143228305
2985.75,1041.71748498299
2986,1040.97200854452
2986.25,1041.79945066472
2986.5,1043.94085926215
2986.75,1046.66487878682
2987,1049.23782169355
2987.25,1050.97501367856
2987.5,1051.83856034955
2987.75,1052.24757989748
2988,1052.63080943166
2988.25,1053.40671211179
2988.5,1054.66159316534
2988.75,1056.08558289963
2989,1057.34560947438
2989.25,1058.10952659302
2989.5,1058.19827663454
2989.75,1057.75528235195
2990,1056.96478840332
2990.25,1056.01103944669
2990.5,1055.09870553325
2990.75,1054.51698479761
2991,1054.5769382985
2991.25,1055.58962712543
2991.5,1057.78389803748
2991.75,1060.70714199854
2992,1063.56982562175
2992.25,1065.58002160855
2992.5,1065.98749283849
2992.75,1064.83943101055
2993,1062.89990639025
2993.25,1060.95851208369
2993.5,1059.80027061341
2993.75,1059.78016631173
2994,1060.47711063449
2994.25,1061.38858188468
2994.5,1062.01206292601
2994.75,1061.9459215054
2995,1061.1497972786
2995.25,1059.66416714469
2995.5,1057.52950800277
2995.75,1054.83004973715
2996,1051.98504843608
2996.25,1049.56860882825
2996.5,1048.15567236448
2996.75,1048.28697701087
2997,1049.90339100971
2997.25,1052.43434857865
2997.5,1055.29290875337
2997.75,1057.8982902723
2998,1059.95936062823
2998.25,1061.59317377358
2998.5,1062.94752900154
2998.75,1064.17008001644
2999,1065.33221444864
2999.25,1066.3042460776
2999.5,1066.92373943149
2999.75,1067.02825903846
3000,1066.50591938749
3000.25,1065.53084685031
3000.5,1064.37764891773
3000.75,1063.32104308878
3001,1062.61855147774
3001.25,1062.28728153073
3001.5,1062.16753897236
3001.75,1062.09553463903
3002,1061.91000431708
3002.25,1061.57131491093
3002.5,1061.21294136025
3002.75,1060.9815826149
3003,1061.02378355827
3003.25,1061.3541180505
3003.5,1061.61451792698
3003.75,1061.38160989454
3004,1060.23202066003
3004.25,1057.87402704556
3004.5,1054.78813567313
3004.75,1051.73554178207
3005,1049.47783990645
3005.25,1048.71670138768
3005.5,1049.36651181016
3005.75,1050.78706927427
3006,1052.32658668786
3006.25,1053.34670962764
3006.5,1053.63141449982
3006.75,1053.4616454639
3007,1053.1468307673
3007.25,1052.99591109942
3007.5,1053.24173636953
3007.75,1053.95915121022
3008,1055.20333290821
3008.25,1057.02945845754
3008.5,1059.37724359793
3008.75,1061.74331587416
3009,1063.51803104194
3009.25,1064.09174485697
3009.5,1062.97508459665
3009.75,1060.60895956178
3010,1057.86800385392
3010.25,1055.62928365123
3010.5,1054.73435612986
3010.75,1055.3124376913
3011,1056.83397131393
3011.25,1058.74462497417
3011.5,1060.49235964031
3011.75,1061.68896252273
3012,1062.21651714698
3012.25,1061.98238222577
3012.5,1060.89394320165
3012.75,1058.95357848232
3013,1056.47189422995
3013.25,1053.82190247604
3013.5,1051.37661525208
3013.75,1049.49070797983
3014,1048.39416884882
3014.25,1048.26507475757
3014.5,1049.28133178653
3014.75,1051.57357888907
3015,1054.62391586608
3015.25,1057.44361940728
3015.5,1059.03338887787
3015.75,1058.42491905441
3016,1055.71007607529
3016.25,1052.27957628079
3016.5,1049.60348498995
3016.75,1049.14869051279
3017,1051.5752657022
3017.25,1055.67284154506
3017.5,1059.96669458434
3017.75,1062.98210136302
3018,1063.59833049635
3018.25,1062.1518373881
3018.5,1059.3539769645
3018.75,1055.91610447052
3019,1052.52532257341
3019.25,1049.64935178359
3019.5,1047.63933891237
3019.75,1046.84535407648
3020,1047.58797395615
3020.25,1049.56511451998
3020.5,1051.8814822793
3020.75,1053.61818489536
3021,1053.86672431443
3021.25,1052.35452798073
3021.5,1049.80182766264
3021.75,1047.01509524744
3022,1044.80054471039
3022.25,1043.72873298234
3022.5,1043.69940855787
3022.75,1044.49375541125
3023,1045.89295751674
3023.25,1047.66146326458
3023.5,1049.4822711941
3023.75,1051.0136372768
3024,1051.91381179875
3024.25,1051.88476595277
3024.5,1051.00793724433
3024.75,1049.55969638685
3025,1047.8180116845
3025.25,1046.05877552262
3025.5,1044.51853555129
3025.75,1043.39866345078
3026,1042.89929201548
3026.25,1043.21404995771
3026.5,1044.20085647708
3026.75,1045.22642845065
3027,1045.61846092808
3027.25,1044.70627881853
3027.5,1042.25271689633
3027.75,1039.03508622986
3028,1035.97559935116
3028.25,1033.99646878362
3028.5,1033.73069139426
3028.75,1034.66515192077
3029,1036.00286976368
3029.25,1036.94686432354
3029.5,1036.84015682042
3029.75,1035.86330521059
3030,1034.50695397059
3030.25,1033.26225062629
3030.5,1032.57476800284
3030.75,1032.44992554157
3031,1032.64665557077
3031.25,1032.92117977656
3031.5,1033.03991867598
3031.75,1032.92983767084
3032,1032.64568111597
3032.25,1032.24573178066
3032.5,1031.79020519148
3032.75,1031.39467973445
3033,1031.23693531126
3033.25,1031.49805813101
3033.5,1032.35499238647
3033.75,1033.72529051481
3034,1035.11806924802
3034.25,1036.00655484323
3034.5,1035.86563989485
3034.75,1034.52568751499
3035,1032.61124908475
3035.25,1030.85450346727
3035.5,1029.98759060214
3035.75,1030.47614144158
3036,1031.88298344179
3036.25,1033.57996235925
3036.5,1034.93892395046
3036.75,1035.47321647398
3037,1035.3830542621
3037.25,1035.07676827594
3037.5,1034.96273552169
3037.75,1035.38028747948
3038,1036.1513802704
3038.25,1036.86327884924
3038.5,1037.10207974583
3038.75,1036.48830017214
3039,1035.05883246162
3039.25,1033.12711342351
3039.5,1031.01155797221
3039.75,1029.02878727871
3040,1027.45564733886
3040.25,1026.53001471646
3040.5,1026.48813340171
3040.75,1027.55667842256
3041,1029.56231962974
3041.25,1031.7952937385
3041.5,1033.50824415095
3041.75,1033.95873143238
3042,1032.8544900272
3042.25,1030.70883043204
3042.5,1028.11869728371
3042.75,1025.68068188539
3043,1023.81576705671
3043.25,1022.48570512112
3043.5,1021.57810838517
3043.75,1020.98059254939
3044,1020.63994137391
3044.25,1020.7128232478
3044.5,1021.40242370255
3044.75,1022.91192826962
3045,1025.36444854133
3045.25,1028.51774346394
3045.5,1032.02542876885
3045.75,1035.54111247817
3046,1038.70492468678
3046.25,1041.07563020185
3046.5,1042.18161313263
3046.75,1041.55120534701
3047,1038.82405733606
3047.25,1034.71100545627
3047.5,1030.52102357807
3047.75,1027.56960259232
3048,1027.10246953281
3048.25,1029.11730036397
3048.5,1032.53455373248
3048.75,1036.23932342636
3049,1039.13925004379
3049.25,1040.81153539965
3049.5,1041.59941431996
3049.75,1041.88807244958
3050,1042.06025720777
3050.25,1042.30462973952
3050.5,1042.4777462823
3050.75,1042.40359910208
3051,1041.90635711814
3051.25,1040.92894619497
3051.5,1039.73901085357
3051.75,1038.65919170794
3052,1038.01212937208
3052.25,1038.01825424387
3052.5,1038.43786958181
3052.75,1038.90185665952
3053,1039.041089722
3053.25,1038.56900789366
3053.5,1037.7924756074
3053.75,1037.2779049434
3054,1037.59280066553
3054.25,1039.24062118081
3054.5,1041.9414663686
3054.75,1044.89097810781
3055,1047.27515940574
3055.25,1048.31126153998
3055.5,1047.93240655736
3055.75,1046.78601334724
3056,1045.55043428346
3056.25,1044.89979471174
3056.5,1045.20356621512
3056.75,1046.32706116859
3057,1048.08826206636
3057.25,1050.30499988598
3057.5,1052.69409505342
3057.75,1054.69649496578
3058,1055.70648171289
3058.25,1055.11833738456
3058.5,1052.53937760093
3058.75,1048.63184182241
3059,1044.38391326258
3059.25,1040.78387003419
3059.5,1038.73876950732
3059.75,1038.34336564274
3060,1039.22485414024
3060.25,1041.00482427575
3060.5,1043.31161040769
3060.75,1045.89797389888
3061,1048.62611111676
3061.25,1051.36194960934
3061.5,1053.96964650035
3061.75,1056.23624901207
3062,1057.84356075651
3062.25,1058.46581697228
3062.5,1057.77810278428
3062.75,1055.73204136563
3063,1052.95205485184
3063.25,1050.16292813102
3063.5,1048.08944609131
3063.75,1047.32045021423
3064,1047.78835896583
3064.25,1049.22772167253
3064.5,1051.37304714221
3064.75,1053.92781894941
3065,1056.32134953158
3065.25,1057.84000947678
3065.5,1057.76893409175
3065.75,1055.44680071651
3066,1051.25118421819
3066.25,1046.50165278835
3066.5,1042.55187754223
3066.75,1040.74497095545
3067,1041.66707095072
3067.25,1044.65390640611
3067.5,1048.92409942039
3067.75,1053.69664441476
3068,1058.37022469144
3068.25,1062.81125611191
3068.5,1066.96128993521
3068.75,1070.76187742039
3069,1074.23959154327
3069.25,1077.83611273967
3069.5,1082.11961525579
3069.75,1087.65830374464
3070,1094.93856018598
3070.25,1103.43487850903
3070.5,1111.9388932818
3070.75,1119.22942961952
3071,1124.09383411645
3071.25,1126.03624855794
3071.5,1125.80958090583
3071.75,1124.29204456549
3072,1122.36185294228
3072.25,1120.81328308585
3072.5,1119.81613870109
3072.75,1119.25870792052
3073,1119.02791577961
3073.25,1119.01077496519
3073.5,1119.1005615914
3073.75,1119.20088637299
3074,1119.21632647791
3074.25,1119.0514590741
3074.5,1118.62924644905
3074.75,1117.99458905131
3075,1117.24202569939
3075.25,1116.46623993965
3075.5,1115.7600358787
3075.75,1115.1212469722
3076,1114.40991358337
3076.25,1113.47525849994
3076.5,1112.16650450965
3076.75,1110.37909926216
3077,1108.26296227153
3077.25,1106.05511310085
3077.5,1103.99264782292
3077.75,1102.30432127081
3078,1100.96837205392
3078.25,1099.67481356294
3078.5,1098.09772963644
3078.75,1095.91121023771
3079,1092.95633124258
3079.25,1089.67676258806
3079.5,1086.65205564975
3079.75,1084.46176180325
3080,1083.61955176862
3080.25,1083.82630166881
3080.5,1084.23532285982
3080.75,1083.98970025913
3081,1082.24146759882
3081.25,1078.7602450737
3081.5,1074.32241778002
3081.75,1069.79703048391
3082,1066.0531279515
3082.25,1063.75869103143
3082.5,1062.73427785807
3082.75,1062.57722613868
3083,1062.88487245928
3083.25,1063.26368048042
3083.5,1063.40844381317
3083.75,1063.06350190725
3084,1061.97374193027
3084.25,1059.90461691265
3084.5,1057.17762856916
3084.75,1054.72078781064
3085,1053.49278739018
3085.25,1054.4491941307
3085.5,1058.0411979586
3085.75,1063.66395185443
3086,1070.57987727808
3086.25,1078.05139571807
3086.5,1085.43183770948
3086.75,1092.43077495536
3087,1098.84502814131
3087.25,1104.47141795289
3087.5,1109.11361545141
3087.75,1112.64728398201
3088,1114.99114426421
3088.25,1116.06449666028
3088.5,1115.7893043492
3088.75,1114.35161096765
3089,1112.42172374225
3089.25,1110.72179211615
3089.5,1109.9739655325
3089.75,1110.74564143504
3090,1112.48608439786
3090.25,1114.15324637024
3090.5,1114.70296497642
3090.75,1113.11291089654
3091,1109.40081759055
3091.25,1105.05793653534
3091.5,1101.68735495253
3091.75,1100.89216006378
3092,1103.82453227822
3092.25,1109.27963703566
3092.5,1115.28504198484
3092.75,1119.8678975163
3093,1121.14615896691
3093.25,1119.25663510544
3093.5,1116.31702993493
3093.75,1114.5282599078
3094,1116.0912310887
3094.25,1122.33223556746
3094.5,1131.3156271546
3094.75,1140.34545745514
3095,1146.72577807408
3095.25,1147.89862348416
3095.5,1143.74292162227
3095.75,1136.22424501847
3096,1127.37557017001
3096.25,1119.22987357406
3096.5,1113.43634827998
3096.75,1109.95170659237
3097,1108.2662538875
3097.25,1107.87028098591
3097.5,1108.25608119858
3097.75,1108.96388170791
3098,1109.5829098961
3098.25,1109.70460893373
3098.5,1108.92045451388
3098.75,1107.0042230993
3099,1104.339835647
3099.25,1101.4387137481
3099.5,1098.81227899374
3099.75,1096.92918252056
3100,1095.67454732323
3100.25,1094.51151951058
3100.5,1092.89385293838
3100.75,1090.27799791793
3101,1086.51434985638
3101.25,1082.25780948015
3101.5,1078.26145789361
3101.75,1075.27837620112
3102,1073.89975676767
3102.25,1073.75032783205
3102.5,1074.09769025495
3102.75,1074.20887330701
3103,1073.3803003966
3103.25,1071.40936449584
3103.5,1068.51298598354
3103.75,1064.9210300549
3104,1060.86397800436
3104.25,1056.63286245454
3104.5,1052.62945171087
3104.75,1049.26732855163
3105,1046.96007351288
3105.25,1045.94832049656
3105.5,1045.82905335377
3105.75,1046.04955103095
3106,1046.05709247452
3106.25,1045.40256860115
3106.5,1044.31966750889
3106.75,1043.31841538985
3107,1042.9096185197
3107.25,1043.54181157673
3107.5,1044.9002310384
3107.75,1046.15828943141
3108,1046.47995467108
3108.25,1045.06341716575
3108.5,1041.97204823435
3108.75,1038.18012817463
3109,1034.70531299703
3109.25,1032.55895398614
3109.5,1032.24978574409
3109.75,1033.42608139915
3110,1035.65168934968
3110.25,1038.4903182532
3110.5,1041.45657956705
3110.75,1043.9439501536
3111,1045.32755497468
3111.25,1044.98251965162
3111.5,1042.63784009919
3111.75,1039.3860700702
3112,1036.64814471683
3112.25,1035.84499919126
3112.5,1038.14811853206
3112.75,1043.06643176322
3113,1049.42908420755
3113.25,1056.06319059571
3113.5,1061.83287937442
3113.75,1066.00004349556
3114,1068.06855551506
3114.25,1067.54571136931
3114.5,1063.97657519063
3114.75,1057.98093395413
3115,1051.38200953114
3115.25,1046.06663769935
3115.5,1043.91681847495
3115.75,1045.68774957485
3116,1049.56874565524
3116.25,1053.39376184097
3116.5,1054.99675638139
3116.75,1052.90464840757
3117,1048.28002260688
3117.25,1042.91199241697
3117.5,1038.58967127552
3117.75,1036.83950384237
3118,1037.22699285667
3118.25,1038.43099047667
3118.5,1039.12599773734
3118.75,1038.09423493008
3119,1035.47433309884
3119.25,1032.33217547758
3119.5,1029.75162083654
3119.75,1028.77411839469
3120,1029.41340388993
3120.25,1030.62557957595
3120.5,1031.31835260956
3120.75,1030.42020642259
3121,1027.81234083656
3121.25,1024.70469605528
3121.5,1022.40581210927
3121.75,1022.21702089582
3122,1024.55991875282
3122.25,1028.14344800398
3122.5,1031.47920780974
3122.75,1033.08063431582
3123,1032.14047877255
3123.25,1029.54285039142
3123.5,1026.43068115413
3123.75,1023.94689497032
3124,1022.88326975762
3124.25,1022.74494611826
3124.5,1022.74245393392
3124.75,1022.08632308629
3125,1020.23678493164
3125.25,1017.87465081401
3125.5,1016.05310594848
3125.75,1015.82542656033
3126,1018.01586663394
3126.25,1021.98264012548
3126.5,1026.50612613621
3126.75,1030.36530304266
3127,1032.47201271027
3127.25,1032.78066811126
3127.5,1031.73779046972
3127.75,1029.79280678551
3128,1027.38325020286
3128.25,1024.80369993894
3128.5,1022.25423096479
3128.75,1019.9332376993
3129,1018.03747742461
3129.25,1016.73250117229
3129.5,1016.15586413376
3129.75,1016.44412881903
3130,1017.7221650354
3130.25,1019.79702161844
3130.5,1022.12813082814
3130.75,1024.15725809583
3131,1025.33627422245
3131.25,1025.51522622907
3131.5,1025.06451090477
3131.75,1024.38961496966
3132,1023.89455925282
3132.25,1023.86789549522
3132.5,1024.4012774938
3132.75,1025.56713877162
3133,1027.43686090679
3133.25,1029.86400184785
3133.5,1032.21864999597
3133.75,1033.80586650832
3134,1033.93094358637
3134.25,1032.26327574377
3134.5,1029.57357077867
3134.75,1026.83995918882
3135,1025.04057147196
3135.25,1024.90017256022
3135.5,1025.99379549158
3135.75,1027.5705132857
3136,1028.87937759756
3136.25,1029.28795117613
3136.5,1028.89309086912
3136.75,1028.06885474824
3137,1027.18983736575
3137.25,1026.60103022266
3137.5,1026.38288436989
3137.75,1026.47666639777
3138,1026.82240082813
3138.25,1027.35323376569
3138.5,1027.91213518242
3138.75,1028.2786480234
3139,1028.23099515196
3139.25,1027.56527430021
3139.5,1026.44213207556
3139.75,1025.36262631662
3140,1024.84085509858
3140.25,1025.3732835267
3140.5,1026.82552278356
3140.75,1028.27395524577
3141,1028.74515637351
3141.25,1027.27967251976
3141.5,1023.88310066778
3141.75,1020.13472382629
3142,1017.75872316911
3142.25,1018.47396762931
3142.5,1022.90755233291
3142.75,1029.26737164992
3143,1035.43655747523
3143.25,1039.29952722165
3143.5,1039.57093849637
3143.75,1037.22286564805
3144,1033.60742394898
3144.25,1030.07672867151
3144.5,1027.67999490728
3144.75,1026.1588142472
3145,1024.90199426006
3145.25,1023.29833714393
3145.5,1020.94115224584
3145.75,1018.69562804064
3146,1017.91513949622
3146.25,1019.95406748853
3146.5,1025.89977978828
3146.75,1034.61168809875
3147,1043.84152071289
3147.25,1051.33296642201
3147.5,1055.00605824283
3147.75,1054.74323367096
3148,1051.65260731129
3148.25,1046.86098140659
3148.5,1041.48355367169
3148.75,1036.32198522105
3149,1031.83607233408
3149.25,1028.46832782334
3149.5,1026.65700245287
3149.75,1026.48500633298
3150,1027.41796192687
3150.25,1028.85977747966
3150.5,1030.21539200392
3150.75,1031.1641352327
3151,1032.02755804004
3151.25,1033.2189593257
3151.5,1035.15159783415
3151.75,1038.04644847029
3152,1041.48741767443
3152.25,1044.92665062691
3152.5,1047.81629250809
3152.75,1049.68220697124
3153,1050.42191699162
3153.25,1050.04980773815
3153.5,1048.58030696525
3153.75,1046.06478917302
3154,1042.89721124123
3154.25,1039.6572433704
3154.5,1036.92639164535
3154.75,1035.24993185442
3155,1034.47545857351
3155.25,1033.8208213189
3155.5,1032.48127126004
3155.75,1029.68075500396
3156,1025.79022503605
3156.25,1022.6891013982
3156.5,1022.35949679562
3156.75,1026.76604852369
3157,1036.14652332123
3157.25,1047.57542647569
3157.5,1057.78908159883
3157.75,1063.5285374787
3158,1063.02309118247
3158.25,1058.10094509531
3158.5,1051.12355366136
3158.75,1044.45237132476
3159,1040.04769381434
3159.25,1037.82515325268
3159.5,1037.05061114512
3159.75,1036.98966004969
3160,1036.97382788573
3160.25,1036.92096576172
3160.5,1037.05617497501
3160.75,1037.60726034504
3161,1038.77047866197
3161.25,1040.26181650553
3161.5,1041.4232987041
3161.75,1041.58708183818
3162,1040.11473500005
3162.25,1037.2632687548
3162.5,1034.32687457963
3162.75,1032.65769637242
3163,1033.5968876581
3163.25,1037.47776359624
3163.5,1042.82921506627
3163.75,1047.99267870696
3164,1051.3111792477
3164.25,1051.8644402231
3164.5,1050.63774752983
3164.75,1048.92040191187
3165,1048.00170411323
3165.25,1048.94337526052
3165.5,1051.72971235059
3165.75,1056.02648429398
3166,1061.4994122863
3166.25,1067.76598266437
3166.5,1074.02663752734
3166.75,1079.26825730329
3167,1082.47599211804
3167.25,1082.6799747403
3167.5,1079.94464739906
3167.75,1075.36859996124
3168,1070.09537257221
3168.25,1065.26743834257
3168.5,1061.67367445957
3168.75,1059.23977708721
3169,1057.76219803079
3169.25,1057.0373890956
3169.5,1056.89477433032
3169.75,1057.33984848531
3170,1058.43663793932
3170.25,1060.24920828812
3170.5,1062.81567503466
3170.75,1065.88275632107
3171,1069.013937529
3171.25,1071.76985729894
3171.5,1073.71778134791
3171.75,1074.63945475673
3172,1074.5725680913
3172.25,1073.56981352108
3172.5,1071.68407325518
3172.75,1069.06930074246
3173,1066.14653949048
3173.25,1063.38044325736
3173.5,1061.23566580119
3173.75,1060.08858998485
3174,1059.76288456047
3174.25,1059.86873832158
3174.5,1060.01588256383
3174.75,1059.83182952445
3175,1059.20135093844
3175.25,1058.20285293113
3175.5,1056.91947468276
3175.75,1055.43412987668
3176,1053.8190922368
3176.25,1052.13162005628
3176.5,1050.42783835726
3176.75,1048.76409400242
3177,1047.30571800285
3177.25,1046.50252552169
3177.5,1046.85016960623
3177.75,1048.84430330378
3178,1052.68970878929
3178.25,1057.23397874723
3178.5,1060.92918119082
3178.75,1062.22733827158
3179,1059.82500331209
3179.25,1054.52720021584
3179.5,1048.21623134933
3179.75,1042.7830557319
3180,1040.04309507313
3180.25,1040.11359682837
3180.5,1041.43512190761
3180.75,1042.37699167132
3181,1041.33349066891
3181.25,1038.11774411644
3181.5,1034.69784636437
3181.75,1033.2221902084
3182,1035.83466943405
3182.25,1043.2950946402
3182.5,1053.03106940357
3182.75,1061.97889008205
3183,1067.07489104505
3183.25,1066.41278818653
3183.5,1062.2789329169
3183.75,1057.9087448119
3184,1056.53764344728
3184.25,1060.95094583714
3184.5,1070.20831926643
3184.75,1081.52953193741
3185,1092.12133729833
3185.25,1099.28470864574
3185.5,1102.15121252705
3185.75,1101.51356171936
3186,1098.2246991817
3186.25,1093.13759642643
3186.5,1087.11727073551
3186.75,1081.05941607205
3187,1075.86453836046
3187.25,1072.43314352517
3187.5,1071.51582933012
3187.75,1072.67104615096
3188,1074.88808280596
3188.25,1077.15270629845
3188.5,1078.48671719369
3188.75,1078.78332167066
3189,1078.83149635321
3189.25,1079.46112555507
3189.5,1081.50021446821
3189.75,1085.23569167844
3190,1089.66827658685
3190.25,1093.61171569963
3190.5,1095.87975552295
3190.75,1095.50153610548
3191,1092.85030857733
3191.25,1088.81684389048
3191.5,1084.29300047891
3191.75,1080.15229960499
3192,1076.77969463135
3192.25,1074.03129036873
3192.5,1071.73678247195
3192.75,1069.72609473973
3193,1067.94755062714
3193.25,1066.66118357981
3193.5,1066.17771713561
3193.75,1066.80787483241
3194,1068.73271395401
3194.25,1071.34450796157
3194.5,1073.73891035564
3194.75,1075.01103960958
3195,1074.31720301845
3195.25,1071.75196439174
3195.5,1068.14394304339
3195.75,1064.34133413263
3196,1061.18682439381
3196.25,1059.0751567416
3196.5,1057.62919889616
3196.75,1056.39544751116
3197,1054.92041207537
3197.25,1052.90161152941
3197.5,1050.56293172192
3197.75,1048.24287399652
3198,1046.2799396968
3198.25,1044.92589528933
3198.5,1043.84250851832
3198.75,1042.44583336115
3199,1040.15111389928
3199.25,1036.45172309537
3199.5,1031.83522575036
3199.75,1027.47391877797
3200,1024.55362536943
3200.25,1024.20747879403
3200.5,1026.27436348739
3200.75,1029.25142304892
3201,1031.57360888841
3201.25,1031.70806487705
3201.5,1029.44861882463
3201.75,1026.3573212143
3202,1024.11901388301
3202.25,1024.40923059037
3202.5,1027.903499065
3202.75,1033.39964831927
3203,1039.48850403718
3203.25,1044.7619449863
3203.5,1048.17042068815
3203.75,1049.54405984655
3204,1048.84543086861
3204.25,1046.03710216142
3204.5,1041.35432073307
3204.75,1036.15474347083
3205,1032.0847825109
3205.25,1030.79085023372
3205.5,1033.58374935735
3205.75,1039.34518933729
3206,1045.8878969819
3206.25,1051.01996568336
3206.5,1052.74155407481
3206.75,1051.16135223468
3207,1047.69163814365
3207.25,1043.76400302635
3207.5,1040.77476106781
3207.75,1039.20346628781
3208,1038.5502347552
3208.25,1038.26735275296
3208.5,1037.81055600968
3208.75,1036.88850999732
3209,1035.63091802791
3209.25,1034.20731648243
3209.5,1032.78710939515
3209.75,1031.48527482957
3210,1030.27877806699
3210.25,1029.12303668879
3210.5,1027.9734706122
3210.75,1026.99489466847
3211,1027.13423340436
3211.25,1029.52097832414
3211.5,1035.28462093208
3211.75,1045.09711120658
3212,1057.23663313314
3212.25,1069.2011524057
3212.5,1078.48820683817
3212.75,1082.88733196046
3213,1082.5904590425
3213.25,1078.96992796538
3213.5,1073.40626615886
3213.75,1067.26923310576
3214,1061.60648476363
3214.25,1057.0958271635
3214.5,1054.39469187912
3214.75,1054.15926615534
3215,1056.6269177156
3215.25,1061.00969019784
3215.5,1066.36561936299
3215.75,1071.75274097199
3216,1076.38789830167
3216.25,1080.22347682504
3216.5,1083.42466362318
3216.75,1086.1566672303
3217,1088.56123342563
3217.25,1090.5039564409
3217.5,1091.67064180372
3217.75,1091.74402463774
3218,1090.41248432101
3218.25,1087.75146670238
3218.5,1084.46599833802
3218.75,1081.31888047664
3219,1079.07291436691
3219.25,1078.24704305328
3219.5,1078.23145384211
3219.75,1078.0899744114
3220,1076.88639994018
3220.25,1073.75637070379
3220.5,1068.77286552371
3220.75,1062.66591945104
3221,1056.17912870334
3221.25,1050.05094147229
3221.5,1044.70690267473
3221.75,1040.08523041692
3222,1036.08194909306
3222.25,1032.59306484315
3222.5,1029.50094635087
3222.75,1026.65013322955
3223,1023.87865932387
3223.25,1021.0245584785
3223.5,1017.95368623202
3223.75,1014.64599895926
3224,1011.11069945775
3224.25,1007.35699054145
3224.5,1003.4308702773
3224.75,999.572712865416
3225,996.086841235998
3225.25,993.27761694845
3225.5,991.370375569859
3225.75,990.135746269934
3226,989.182051974371
3226.25,988.1174141224
3226.5,986.615084355937
3226.75,984.692238901491
3227,982.479160580106
3227.25,980.106200274115
3227.5,977.737408338174
3227.75,975.690707174044
3228,974.327911761292
3228.25,974.01083073736
3228.5,974.871450604152
3228.75,976.216445091461
3229,977.167295805527
3229.25,976.846403724171
3229.5,974.86831677685
3229.75,972.149412838957
3230,969.818858201862
3230.25,969.000265617368
3230.5,970.008893228909
3230.75,971.510765609191
3231,971.970865141788
3231.25,969.881771415897
3231.5,965.149000738568
3231.75,959.738822614201
3232,955.780479908403
3232.25,955.327971953126
3232.5,958.456450255436
3232.75,963.113611604542
3233,967.142139015456
3233.25,968.547461927312
3233.5,967.329013869616
3233.75,964.822872371554
3234,962.389759815181
3234.25,961.218493242027
3234.5,961.144166562047
3234.75,961.360957959095
3235,961.059213444676
3235.25,959.66374847443
3235.5,957.748612673118
3235.75,956.239395668388
3236,956.061604902425
3236.25,957.822496836952
3236.5,961.151235559987
3236.75,965.489701899559
3237,970.280525142453
3237.25,975.045078395252
3237.5,979.451689228042
3237.75,983.184763940287
3238,985.932585727209
3238.25,987.544801897385
3238.5,988.087055453396
3238.75,987.640084672782
3239,986.28821698227
3239.25,984.222230000591
3239.5,981.754612126382
3239.75,979.204510207549
3240,976.888740620151
3240.25,975.070706508573
3240.5,973.960501811894
3240.75,973.765910802647
3241,974.665770393061
3241.25,976.385986419956
3241.5,978.293388858005
3241.75,979.744949214731
3242,980.152313767218
3242.25,979.505871721805
3242.5,978.144060343093
3242.75,976.410078788754
3243,974.625891545097
3243.25,972.942134056674
3243.5,971.426634840412
3243.75,970.146684071251
3244,969.161315401721
3244.25,968.480446347799
3244.5,968.095905191812
3244.75,967.999491930697
3245,968.096264458756
3245.25,967.932736713665
3245.5,966.962796861913
3245.75,964.640845214099
3246,960.86371954037
3246.25,956.778858599999
3246.5,953.753109772967
3246.75,953.144675389113
3247,955.336565261281
3247.25,958.854783680025
3247.5,962.017046621624
3247.75,963.181358698338
3248,961.922428776915
3248.25,959.218652140002
3248.5,956.126348877764
3248.75,953.65319856642
3249,952.059434862103
3249.25,951.019692990593
3249.5,950.192942617853
3249.75,949.279575030196
3250,948.31371067455
3250.25,947.490573989613
3250.5,947.006431753327
3250.75,946.993646663474
3251,947.307748737615
3251.25,947.729322768884
3251.5,948.039090414385
3251.75,948.053287237231
3252,947.670684162921
3252.25,946.801749569635
3252.5,945.363730013058
3252.75,943.547692731019
3253,941.906495302087
3253.25,941.017796586271
3253.5,941.424970647173
3253.75,943.177427805052
3254,945.953831949622
3254.25,949.423843456667
3254.5,953.174265612511
3254.75,956.261971326639
3255,957.535129968793
3255.25,955.841461068492
3255.5,950.670097764914
3255.75,943.747565979049
3256,937.287942412245
3256.25,933.498456064028
3256.5,933.469093397348
3256.75,935.944228941541
3257,939.372474783023
3257.25,942.236543170383
3257.5,943.858091337815
3257.75,944.42924966822
3258,944.182557029723
3258.25,943.360257009218
3258.5,942.297465007035
3258.75,941.380928434687
3259,940.997949364677
3259.25,941.435002435921
3259.5,942.504168843476
3259.75,943.878135682469
3260,945.229922741923
3260.25,946.327366497673
3260.5,947.160818256251
3260.75,947.752513396316
3261,948.12701225244
3261.25,948.398145392243
3261.5,948.79506908952
3261.75,949.554583037528
3262,950.888685058006
3262.25,952.652799307953
3262.5,954.435108235727
3262.75,955.817325903298
3263,956.448676235878
3263.25,956.461263436751
3263.5,956.197491762358
3263.75,956.000632978016
3264,956.161338193891
3264.25,956.750934507473
3264.5,957.783615604127
3264.75,959.273127528209
3265,961.070771831996
3265.25,962.624718574823
3265.5,963.321669923908
3265.75,962.558014258144
3266,960.341374173932
3266.25,957.644487258518
3266.5,955.525215730031
3266.75,955.0069056003
3267,956.215104778726
3267.25,958.315724732399
3267.5,960.427775850025
3267.75,961.716466796197
3268,961.908417350263
3268.25,961.104359057221
3268.5,959.41181631387
3268.75,956.987414118192
3269,954.338566476538
3269.25,952.125300854425
3269.5,951.00827111773
3269.75,951.433886474727
3270,952.923853786117
3270.25,954.750456496172
3270.5,956.186824022601
3270.75,956.776722232071
3271,956.719742026057
3271.25,956.312873908227
3271.5,955.851569572999
3271.75,955.547296593016
3272,955.485931118914
3272.25,955.743064288231
3272.5,956.38587770627
3272.75,957.307400117711
3273,958.236582684058
3273.25,958.89598433372
3273.5,959.040060577618
3273.75,958.753822167553
3274,958.317867862563
3274.25,958.015346864604
3274.5,958.098733293602
3274.75,958.63458390279
3275,959.619780322637
3275.25,961.05107843724
3275.5,962.818262594956
3275.75,964.4212210774
3276,965.27103603065
3276.25,964.780623097775
3276.5,962.823936410485
3276.75,960.341589836461
3277,958.424606070775
3277.25,958.150858931498
3277.5,959.772993623633
3277.75,962.243232445385
3278,964.399404064043
3278.25,965.123120342149
3278.5,964.326014339351
3278.75,962.962686871903
3279,962.03411138985
3279.25,962.461814513856
3279.5,964.130030366128
3279.75,966.195488306775
3280,967.799883046811
3280.25,968.198516678454
3280.5,967.521322460096
3280.75,966.304373721232
3281,965.085982553849
3281.25,964.342198409974
3281.5,964.2277279482
3281.75,964.793910662799
3282,966.092023154695
3282.25,968.078679180614
3282.5,970.389708233178
3282.75,972.593056039142
3283,974.257314866932
3283.25,975.104174161879
3283.5,975.205133022005
3283.75,974.680324368727
3284,973.650925017377
3284.25,972.321839480507
3284.5,971.041598160748
3284.75,970.172859813126
3285,970.068502440618
3285.25,970.700386034482
3285.5,971.544956459823
3285.75,972.045504085422
3286,971.673163136385
3286.25,970.483881162401
3286.5,969.089105060246
3286.75,968.122257926726
3287,968.167178285169
3287.25,969.151680640743
3287.5,970.539191161739
3287.75,971.78331835891
3288,972.392998859493
3288.25,972.343246615838
3288.5,971.842647721155
3288.75,971.101535343283
3289,970.319518395394
3289.25,969.632978157828
3289.5,969.155203839178
3289.75,968.999450635984
3290,969.236478973051
3290.25,969.760818298129
3290.5,970.421320281936
3290.75,971.066866519342
3291,971.57556478861
3291.25,971.909369050261
3291.5,972.045175460873
3291.75,971.960205105213
3292,971.681099203664
3292.25,971.336460916533
3292.5,971.067488411286
3292.75,971.013581356971
3293,971.211340970855
3293.25,971.540902458715
3293.5,971.869271701183
3293.75,972.066882310266
3294,972.101933163472
3294.25,972.0522260949
3294.5,972.001367907738
3294.75,972.033614833331
3295,972.244275114939
3295.25,972.737903701098
3295.5,973.619340303291
3295.75,974.961545896262
3296,976.484689675851
3296.25,977.689509196242
3296.5,978.073435200095
3296.75,977.229763381941
3297,975.49688928119
3297.25,973.562042954344
3297.5,972.114445130163
3297.75,971.717608650721
3298,972.195190612944
3298.25,973.101077448671
3298.5,973.988762908966
3298.75,974.511229464163
3299,974.738328018447
3299.25,974.849077551421
3299.5,975.022457137913
3299.75,975.362844926404
3300,975.745406868229
3300.25,976.001431989363
3300.5,975.962613851152
3300.75,975.560219794948
3301,974.954879219477
3301.25,974.339403117293
3301.5,973.905093108605
3301.75,973.710615303206
3302,973.580318643925
3302.25,973.314618155564
3302.5,972.718833489783
3302.75,971.802230985497
3303,970.846959943065
3303.25,970.154229040744
3303.5,970.011019150322
3303.75,970.372162271622
3304,970.85759101826
3304.25,971.072460082818
3304.5,970.655263235943
3304.75,969.711422509974
3305,968.690144322382
3305.25,968.048619431744
3305.5,968.180396022248
3305.75,968.892451838265
3306,969.675323803789
3306.25,970.016471252568
3306.5,969.506502491957
3306.75,968.364963631752
3307,967.048423467616
3307.25,966.013884521068
3307.5,965.584684301704
3307.75,965.518283162591
3308,965.42241755818
3308.25,964.90503099391
3308.5,963.753611303266
3308.75,962.263109569835
3309,960.817500162097
3309.25,959.799391586569
3309.5,959.437358080275
3309.75,959.666676508398
3310,960.389729436903
3310.25,961.503771167091
3310.5,962.72562927197
3310.75,963.548151599862
3311,963.450219266063
3311.25,961.962415785708
3311.5,959.476945701329
3311.75,957.097392401481
3312,955.94864698228
3312.25,957.01414231609
3312.5,959.921175172971
3312.75,963.542031748639
3313,966.740850248375
3313.25,968.594482339815
3313.5,969.339255191509
3313.75,969.604622034221
3314,970.020349182012
3314.25,971.038855352855
3314.5,972.463239477687
3314.75,973.948036179851
3315,975.148050399712
3315.25,975.839701861912
3315.5,976.112426559209
3315.75,976.105331081312
3316,975.957142742837
3316.25,975.760535993865
3316.5,975.518657272907
3316.75,975.224354739264
3317,974.870460265605
3317.25,974.448910260859
3317.5,973.950298227234
3317.75,973.365107258875
3318,972.68612329678
3318.25,971.975484704501
3318.5,971.375230248138
3318.75,971.031824401411
3319,971.079915408346
3319.25,971.440470692747
3319.5,971.848796587033
3319.75,972.034021870433
3320,971.755038108657
3320.25,971.112701916415
3320.5,970.426595116872
3320.75,970.019860647848
3321,970.165440007078
3321.25,970.742986859073
3321.5,971.446775246891
3321.75,971.969990888991
3322,972.078524636394
3322.25,971.929092441473
3322.5,971.809163621705
3322.75,972.006300326091
3323,972.682462918473
3323.25,973.517989312093
3323.5,974.077794731553
3323.75,973.927186713046
3324,972.909005956911
3324.25,971.630302503836
3324.5,970.828529255827
3324.75,971.236997474329
3325,972.973569536274
3325.25,974.893789114788
3325.5,975.698353595512
3325.75,974.11080507299
3326,970.105837888161
3326.25,965.531657423991
3326.5,962.390181541904
3326.75,962.618752654803
3327,966.215731093139
3327.25,970.948881741819
3327.5,974.462712245116
3327.75,974.559744247032
3328,971.421908823184
3328.25,967.070540009559
3328.5,963.574736265841
3328.75,962.809037291127
3329,964.628592334505
3329.25,967.692267374827
3329.5,970.643273627378
3329.75,972.294155600595
3330,972.537599324179
3330.25,971.690654093504
3330.5,970.071378322319
3330.75,968.023304678996
3331,966.003976598299
3331.25,964.502820224826
3331.5,964.009138106407
3331.75,964.731559237385
3332,966.001137465352
3332.25,966.97787884828
3332.5,966.825145321289
3332.75,965.224508981753
3333,962.930775549301
3333.25,960.83192175156
3333.5,959.802564826908
3333.75,960.045040051921
3334,960.787879125044
3334.25,961.183342441267
3334.5,960.419811511231
3334.75,958.447341493618
3335,955.941136090831
3335.25,953.605209569517
3335.5,952.098876421576
3335.75,951.577036739631
3336,951.876246424169
3336.25,952.82806503462
3336.5,954.244329051454
3336.75,955.81733417985
3337,957.194575870423
3337.25,958.023491686584
3337.5,958.135884993942
3337.75,957.99662664013
3338,958.206361362452
3338.25,959.363148621106
3338.5,961.629953267432
3338.75,964.249351246695
3339,966.346833257969
3339.25,967.063358614744
3339.5,966.20573780717
3339.75,964.485033242154
3340,962.676860419355
3340.25,961.528639712951
3340.5,961.183362656479
3340.75,961.203100905217
3341,961.126435101223
3341.25,960.54167125711
3341.5,959.613912701909
3341.75,958.879792586137
3342,958.88210943598
3342.25,960.012986799341
3342.5,961.630751831153
3342.75,962.659858362536
3343,962.02327152697
3343.25,959.130600570604
3343.5,955.413076177799
3343.75,952.826813307288
3344,953.325754464586
3344.25,957.686900641369
3344.5,963.568560681918
3344.75,968.118322950559
3345,968.518503336577
3345.25,964.125092234291
3345.5,957.716084208629
3345.75,952.370099604861
3346,951.076397429715
3346.25,954.213619941803
3346.5,959.198035461441
3346.75,963.285846969012
3347,963.944407956591
3347.25,961.273266834556
3347.5,957.158468409507
3347.75,953.520063568415
3348,952.013082209548
3348.25,952.280836437455
3348.5,953.04379645084
3348.75,953.017605671114
3349,951.300074648805
3349.25,948.613390313717
3349.5,946.11123990563
3349.75,944.945400186318
3350,945.630425486425
3350.25,947.123961078625
3350.5,948.150311263778
3350.75,947.461924955912
3351,944.987952557619
3351.25,942.235688466219
3351.5,940.823035048224
3351.75,942.240135276093
3352,946.03443931437
3352.25,950.241875783231
3352.5,952.858554249792
3352.75,952.234893710366
3353,949.086615759238
3353.25,945.097995997022
3353.5,941.956223097157
3353.75,940.882682227032
3354,941.344357398687
3354.25,942.395264404726
3354.5,943.092749108743
3354.75,942.888718488178
3355,941.996910883201
3355.25,940.717974249087
3355.5,939.348430379304
3355.75,938.080451870589
3356,936.996326942961
3356.25,936.173109691472
3356.5,935.680297293683
3356.75,935.514654333406
3357,935.632325897218
3357.25,935.989014273772
3357.5,936.563213977474
3357.75,937.431305792967
3358,938.695943328289
3358.25,940.458558094522
3358.5,942.643122855917
3358.75,944.81180016427
3359,946.482683591261
3359.25,947.190651554549
3359.5,946.911610539311
3359.75,946.095389216622
3360,945.215190600762
3360.25,944.702800366824
3360.5,944.538391310354
3360.75,944.424353914908
3361,944.059022575517
3361.25,943.240980080586
3361.5,942.303554244192
3361.75,941.757654831141
3362,942.113866302687
3362.25,943.585142443776
3362.5,945.570710900559
3362.75,947.331998429747
3363,948.142148124287
3363.25,947.856521061356
3363.5,947.169582049828
3363.75,946.841050544535
3364,947.594287285196
3364.25,949.535084366874
3364.5,952.253167498435
3364.75,955.322409512146
3365,958.337449672372
3365.25,961.056233361934
3365.5,963.313931544818
3365.75,964.946174689585
3366,965.861143131824
3366.25,966.297360808978
3366.5,966.587324199357
3366.75,967.063437490863
3367,967.915066888092
3367.25,968.902710446659
3367.5,969.706826769286
3367.75,970.009164224978
3368,969.685719089687
3368.25,969.012259079936
3368.5,968.313789346576
3368.75,967.910429934767
3369,967.859802756626
3369.25,967.829344494366
3369.5,967.454804802246
3369.75,966.385906765731
3370,964.631138206227
3370.25,962.579833020912
3370.5,960.639719745604
3370.75,959.198436606518
3371,958.35366314949
3371.25,957.9851936058
3371.5,957.967516594094
3371.75,958.175972005547
3372,958.492852052483
3372.25,958.803843802647
3372.5,958.994657307774
3372.75,959.017451415381
3373,959.145331020257
3373.25,959.748171615692
3373.5,961.195659687318
3373.75,963.59028139092
3374,966.243715303588
3374.25,968.322035449359
3374.5,968.9958305655
3374.75,967.943836665103
3375,965.811814659438
3375.25,963.353906303433
3375.5,961.3181714784
3375.75,960.188157833994
3376,960.086613292555
3376.25,961.110362752849
3376.5,963.332867894713
3376.75,966.366271225592
3377,969.400057816523
3377.25,971.608100441749
3377.5,972.261928033739
3377.75,971.693710111758
3378,970.886060907827
3378.25,970.8310116727
3378.5,972.344381670516
3378.75,974.929869826812
3379,977.499220632135
3379.25,978.961302652505
3379.5,978.50604026394
3379.75,976.78128693839
3380,974.906182136362
3380.25,974.000101877302
3380.5,974.834188899187
3380.75,976.777394537263
3381,978.845792343655
3381.25,980.055732623088
3381.5,979.772830387006
3381.75,978.394877928485
3382,976.509423864606
3382.25,974.703456979234
3382.5,973.41267458685
3382.75,972.717600977588
3383,972.647847896626
3383.25,973.231408459816
3383.5,974.350648492374
3383.75,975.628750549055
3384,976.662173349079
3384.25,977.05199597697
3384.5,976.589949293037
3384.75,975.322007624916
3385,973.311815252676
3385.25,970.632102689784
3385.5,967.583249356926
3385.75,964.704163097842
3386,962.545015379503
3386.25,961.618348570967
3386.5,961.860451048643
3386.75,962.757154279616
3387,963.782299413393
3387.25,964.467039726789
3387.5,964.847678840067
3387.75,965.2233236463
3388,965.895334987227
3388.25,967.074260185212
3388.5,968.464661829811
3388.75,969.595918208776
3389,969.997240466195
3389.25,969.362075344264
3389.5,967.990909156504
3389.75,966.324446785603
3390,964.803132589693
3390.25,963.743399103498
3390.5,963.139580364082
3390.75,962.934391939521
3391,963.06953358389
3391.25,963.398778192563
3391.5,963.621307006059
3391.75,963.420606633603
3392,962.489684244123
3392.25,960.826001673019
3392.5,958.788243165081
3392.75,956.756071211417
3393,955.091541224118
3393.25,953.874210744189
3393.5,952.955998922935
3393.75,952.182350318895
3394,951.419733422025
3394.25,950.712407242247
3394.5,950.19401744147
3394.75,949.998886420892
3395,950.218910635883
3395.25,950.749207461314
3395.5,951.42788439229
3395.75,952.093178958438
3396,952.643212424048
3396.25,953.129706650637
3396.5,953.628666199201
3396.75,954.214630150529
3397,954.879944947
3397.25,955.49275163996
3397.5,955.910871634881
3397.75,955.99710906815
3398,955.715591441426
3398.25,955.124899055378
3398.5,954.287218704179
3398.75,953.267380271511
3399,952.157218089291
3399.25,951.064370357205
3399.5,950.096674657602
3399.75,949.367615455985
3400,949.022455671806
3400.25,949.217565656901
3400.5,950.109241688102
3400.75,951.687398996807
3401,953.428496786834
3401.25,954.710259027408
3401.5,954.914755987107
3401.75,953.798106674982
3402,951.772872356112
3402.25,949.31810295643
3402.5,946.910258005919
3402.75,944.9559369424
3403,943.785639845987
3403.25,943.726025684407
3403.5,945.057742982696
3403.75,947.542946615089
3404,950.616895488324
3404.25,953.709732416615
3404.5,956.301552774424
3404.75,958.143179342775
3405,959.076723275715
3405.25,958.944435201202
3405.5,957.740485717434
3405.75,955.93299918798
3406,954.082267522219
3406.25,952.746214723401
3406.5,952.18890543284
3406.75,952.09969315063
3407,952.101340092089
3407.25,951.825937995908
3407.5,951.202343035865
3407.75,950.510605041027
3408,950.051086071039
3408.25,950.095731740426
3408.5,950.534495346991
3408.75,950.983910704761
3409,951.054573772774
3409.25,950.430070386106
3409.5,949.2879936907
3409.75,948.010745050204
3410,946.981383524812
3410.25,946.465940051242
3410.5,946.294450778127
3410.75,946.1954387267
3411,945.898592074425
3411.25,945.296716369569
3411.5,944.612078316839
3411.75,944.106626888426
3412,944.033161708654
3412.25,944.377542590297
3412.5,944.822921587077
3412.75,945.036112338903
3413,944.710348153328
3413.25,943.835932865526
3413.5,942.590158374407
3413.75,941.153229781762
3414,939.744276101454
3414.25,938.795576095522
3414.5,938.811997383496
3414.75,940.297863294175
3415,943.378285195925
3415.25,947.151736969891
3415.5,950.544651225522
3415.75,952.497229483791
3416,952.585070521255
3416.25,951.272283549388
3416.5,949.089160142866
3416.75,946.561359679534
3417,944.134337522843
3417.25,942.185714748815
3417.5,941.090975962238
3417.75,941.185024419128
3418,942.474542941358
3418.25,944.80725254443
3418.5,948.029832282676
3418.75,951.902462765299
3419,955.847794554309
3419.25,959.20616012308
3419.5,961.320542364053
3419.75,961.994497239673
3420,962.013390396677
3420.25,962.288614147494
3420.5,963.717261875219
3420.75,966.537858588715
3421,970.068762710196
3421.25,973.559872203057
3421.5,976.278693537444
3421.75,977.861351695607
3422,978.29344633444
3422.25,977.574353436015
3422.5,975.725753836545
3422.75,973.077406605711
3423,970.183751439446
3423.25,967.604330585484
3423.5,965.838983880248
3423.75,964.797545886521
3424,964.053406806492
3424.25,963.176038294255
3424.5,961.759434395057
3424.75,959.554941270398
3425,956.376061123181
3425.25,952.036448797791
3425.5,946.482637689269
3425.75,940.204458561163
3426,933.830577322868
3426.25,927.988443051543
3426.5,922.989478833238
3426.75,918.409117549267
3427,913.718236741214
3427.25,908.404382063207
3427.5,902.401037856887
3427.75,896.125435992724
3428,890.019053924963
3428.25,884.471281895126
3428.5,879.515871610649
3428.75,875.037967211215
3429,870.921861411735
3429.25,867.016181196554
3429.5,863.103782156699
3429.75,858.96042934888
3430,854.429220821951
3430.25,849.882433806096
3430.5,845.942457486159
3430.75,843.223325406213
3431,841.810271567972
3431.25,841.002495129745
3431.5,840.035359937244
3431.75,838.32942760882
3432,836.108352147046
3432.25,833.813423935376
3432.5,831.867167142849
3432.75,830.425369627618
3433,829.445475539536
3433.25,828.879472313393
3433.5,828.612086448907
3433.75,828.408082118755
3434,828.01982132904
3434.25,827.294478582509
3434.5,826.500173346702
3434.75,826.021806146836
3435,826.204761025286
3435.25,826.91198481208
3435.5,827.68388989419
3435.75,828.06052045974
3436,827.878851171029
3436.25,827.416851399011
3436.5,826.988259426765
3436.75,826.855340127985
3437,827.096293658438
3437.25,827.748193543793
3437.5,828.815812287465
3437.75,830.002664867689
3438,830.848188476652
3438.25,830.901748285625
3438.5,830.119402414301
3438.75,828.961745781646
3439,827.920731629009
3439.25,827.374387185131
3439.5,827.355790949604
3439.75,827.832984334056
3440,828.747571960137
3440.25,829.833823224282
3440.5,830.728187768777
3440.75,831.081398450231
3441,830.940018306863
3441.25,830.779026960138
3441.5,831.094292117481
3441.75,832.139913424846
3442,833.540811274538
3442.25,834.820861713708
3442.5,835.557516010259
3442.75,835.697607395517
3443,835.343672431609
3443.25,834.604094344921
3443.5,833.720221660586
3443.75,833.072818367479
3444,833.04880548066
3444.25,833.81055142865
3444.5,834.929566377165
3444.75,835.881331599505
3445,836.224411281491
3445.25,836.112158659776
3445.5,835.957164241505
3445.75,836.157888165348
3446,836.700252478095
3446.25,837.119370950627
3446.5,836.927851315986
3446.75,835.924717516292
3447,834.707067576267
3447.25,834.00990775432
3447.5,834.457959683434
3447.75,835.78954713027
3448,837.315973661179
3448.25,838.359076769175
3448.5,838.656969019459
3448.75,838.436991851325
3449,837.954459531993
3449.25,837.441878827244
3449.5,837.061190564335
3449.75,836.960729930728
3450,837.2651209961
3450.25,837.881418120239
3450.5,838.599720985287
3450.75,839.208524383915
3451,839.476015645729
3451.25,839.143034495281
3451.5,837.948497902016
3451.75,835.849933183594
3452,833.603207697062
3452.25,832.146377974875
3452.5,832.30296575409
3452.75,833.62032805522
3453,834.848010783217
3453.25,834.740970547195
3453.5,832.99095605597
3453.75,830.676853932247
3454,828.989599522782
3454.25,828.784471499906
3454.5,829.615919099774
3454.75,830.723310200126
3455,831.409247177845
3455.25,831.641631707026
3455.5,831.786614727185
3455.75,832.209174215281
3456,832.969355177549
3456.25,833.699190086165
3456.5,833.998667598736
3456.75,833.621857707065
3457,832.865183568598
3457.25,832.14433669117
3457.5,831.833335276348
3457.75,831.885993632434
3458,832.012711856237
3458.25,831.927451278174
3458.5,831.633291569945
3458.75,831.530464285851
3459,832.048004231122
3459.25,833.38264895723
3459.5,834.933114107951
3459.75,835.926883433285
3460,835.684822819613
3460.25,834.418394625034
3460.5,832.832844932436
3460.75,831.62801488595
3461,831.032684848693
3461.25,830.628830536295
3461.5,829.951525915498
3461.75,828.721954085469
3462,827.300341319298
3462.25,826.183967109601
3462.5,825.824226925403
3462.75,826.246909963711
3463,827.247017639173
3463.25,828.6135073199
3463.5,830.010118314393
3463.75,830.949112477102
3464,830.934028636228
3464.25,829.783667980042
3464.5,828.212992477107
3464.75,827.095127025786
3465,827.173028088657
3465.25,828.200097026416
3465.5,829.475207691862
3465.75,830.313447127053
3466,830.493327440478
3466.25,830.277432039651
3466.5,829.950792455191
3466.75,829.695739813741
3467,829.440462352813
3467.25,829.074518898668
3467.5,828.497671697286
3467.75,827.675407162579
3468,826.599264945853
3468.25,825.26451322031
3468.5,823.740731125881
3468.75,822.166671866179
3469,820.683661907231
3469.25,819.423279768658
3469.5,818.496735300872
3469.75,818.012684304778
3470,818.009032225538
3470.25,818.184292158477
3470.5,818.135330452286
3470.75,817.494256811342
3471,816.301700798157
3471.25,814.861188454894
3471.5,813.479491821425
3471.75,812.419271342392
3472,811.885227284663
3472.25,812.077840746899
3472.5,813.047416387546
3472.75,814.446618567546
3473,815.863046769814
3473.25,816.918515984899
3473.5,817.42461952655
3473.75,817.258374309663
3474,816.325055546396
3474.25,814.908641448016
3474.5,813.564005906407
3474.75,812.844444828335
3475,812.930970905817
3475.25,813.466915528285
3475.5,814.053788308601
3475.75,814.420025953186
3476,814.662576614828
3476.25,814.94488984314
3476.5,815.387238546357
3476.75,815.839126372486
3477,816.045327059983
3477.25,815.776929345754
3477.5,815.214968391962
3477.75,814.862738613158
3478,815.225770345525
3478.25,816.4076168306
3478.5,817.879963898559
3478.75,819.05914592639
3479,819.533798955891
3479.25,819.454885322916
3479.5,819.087896433929
3479.75,818.679237316749
3480,818.330660816837
3480.25,818.077653547993
3480.5,817.949139848851
3480.75,817.841380049591
3481,817.523474702988
3481.25,816.760940844515
3481.5,815.515698348919
3481.75,814.137140768971
3482,813.020033200143
3482.25,812.449455230891
3482.5,812.239471067187
3482.75,812.077737951863
3483,811.67066914378
3483.25,810.902667718394
3483.5,809.756424775546
3483.75,808.219547102832
3484,806.379652023229
3484.25,804.430704483759
3484.5,802.571600004715
3484.75,800.971780267892
3485,799.741968982667
3485.25,798.985925936416
3485.5,798.744160959637
3485.75,798.8249375068
3486,798.983226602165
3486.25,799.01166057279
3486.5,798.953816017347
3486.75,798.955851679196
3487,799.135368368197
3487.25,799.235069076132
3487.5,798.735686007712
3487.75,797.134798742729
3488,794.617143842742
3488.25,792.169680997146
3488.5,790.819495893597
3488.75,790.947770652868
3489,791.676974341827
3489.25,791.984544705382
3489.5,791.233896213779
3489.75,789.987601270726
3490,789.040428997316
3490.25,789.001900851108
3490.5,789.529705733513
3490.75,789.976673038372
3491,789.776726744422
3491.25,789.045646527027
3491.5,788.239904741344
3491.75,787.793278549494
3492,787.763692891641
3492.25,787.920475548332
3492.5,788.030824601235
3492.75,788.017426662939
3493,787.980592752635
3493.25,788.029811263404
3493.5,788.23288226918
3493.75,788.586379717391
3494,789.079877397416
3494.25,789.688427401371
3494.5,790.349223390241
3494.75,790.993367386641
3495,791.578227428953
3495.25,792.169705692651
3495.5,792.861733867489
3495.75,793.710793036717
3496,794.517942538416
3496.25,794.977616385123
3496.5,794.81574076801
3496.75,794.147068567971
3497,793.346329546125
3497.25,792.784705624694
3497.5,792.616004126574
3497.75,792.76098777873
3498,793.127593253385
3498.25,793.51834204685
3498.5,793.557730439309
3498.75,792.853495471792
3499,791.279248470279
3499.25,789.433802187289
3499.5,788.038472025497
3499.75,787.675421207367
3500,788.294383506722
3500.25,789.66551719092
3500.5,791.529779194589
3500.75,793.416187816614
3501,794.760231863329
3501.25,795.048752411113
3501.5,794.418831712306
3501.75,793.451301037392
3502,792.717530674591
3502.25,792.29883977249
3502.5,791.740509719866
3502.75,790.565073310507
3503,788.661565285871
3503.25,786.550961740204
3503.5,784.816480652353
3503.75,783.821388851586
3504,783.329542684734
3504.25,783.003640356382
3504.5,782.56012933446
3504.75,781.937147569351
3505,781.129980757767
3505.25,780.130749920463
3505.5,778.912087301985
3505.75,777.439212760265
3506,775.688736057111
3506.25,773.742050051389
3506.5,771.736934086029
3506.75,769.809264922853
3507,768.061825816025
3507.25,766.573608784873
3507.5,765.414523826979
3507.75,764.491591105604
3508,763.565846272647
3508.25,762.402662018677
3508.5,761.01029645241
3508.75,759.654221503168
3509,758.605690976687
3509.25,757.915239675657
3509.5,757.365659182077
3509.75,756.726083103366
3510,755.86655802372
3510.25,754.791672397804
3510.5,753.516649626613
3510.75,752.120057453843
3511,750.771393436329
3511.25,749.64398984909
3511.5,748.736039257695
3511.75,747.783441447183
3512,746.506179999896
3512.25,744.931345849433
3512.5,743.545900972868
3512.75,742.866996674679
3513,743.031172590871
3513.25,743.622990652265
3513.5,744.18758223082
3513.75,744.433598461826
3514,744.289873888813
3514.25,743.706628667249
3514.5,742.848558105517
3514.75,742.151440460501
3515,742.056914228706
3515.25,742.63811193345
3515.5,743.530863660297
3515.75,744.355348825666
3516,744.995731625948
3516.25,745.624266258872
3516.5,746.421518487555
3516.75,747.417127305942
3517,748.486042988866
3517.25,749.496685646771
3517.5,750.328566518496
3517.75,750.872098341474
3518,751.023362898513
3518.25,750.792473256552
3518.5,750.300446618203
3518.75,749.671259365433
3519,748.99266671415
3519.25,748.316830978117
3519.5,747.695839065455
3519.75,747.213509781788
3520,746.984839503076
3520.25,747.116883610953
3520.5,747.517953065228
3520.75,747.905143774164
3521,748.003947818905
3521.25,747.868220763311
3521.5,747.857962961782
3521.75,748.327736473009
3522,749.295855552257
3522.25,750.473657505557
3522.5,751.567393923735
3522.75,752.4003528595
3523,752.90044781756
3523.25,753.01599551025
3523.5,753.017630805742
3523.75,753.467116853781
3524,754.895367855627
3524.25,756.993771224873
3524.5,758.671388930286
3524.75,758.861016838934
3525,757.666013950969
3525.25,756.326910333335
3525.5,756.08601944308
3525.75,757.01588042659
3526,757.940875981358
3526.25,757.659668084206
3526.5,755.998352297943
3526.75,753.950073325487
3527,752.550522793496
3527.25,752.118027409604
3527.5,752.084965321369
3527.75,751.842191698258
3528,751.275342196711
3528.25,750.900587939176
3528.5,751.259102931948
3528.75,752.270292055328
3529,753.044450132196
3529.25,752.660021878247
3529.5,751.08911836558
3529.75,749.478941850934
3530,749.034737877655
3530.25,750.019308436266
3530.5,751.416560102517
3530.75,752.135074498004
3531,751.748616890819
3531.25,750.724017066868
3531.5,749.586797281324
3531.75,748.68646600249
3532,748.131206760302
3532.25,748.006804410376
3532.5,748.182113767347
3532.75,748.228604149635
3533,747.706330911034
3533.25,746.598698842778
3533.5,745.457277407687
3533.75,744.86616264805
3534,745.116898724291
3534.25,746.116643868726
3534.5,747.738344457547
3534.75,749.568150383734
3535,750.834733063033
3535.25,750.768348727941
3535.5,749.396200334246
3535.75,747.707951685441
3536,746.731017861789
3536.25,746.823366415399
3536.5,747.526065433152
3536.75,748.341903609355
3537,749.132963830304
3537.25,750.186138407818
3537.5,751.797531649815
3537.75,753.797238834325
3538,755.475855079801
3538.25,756.119889084193
3538.5,755.824425053834
3538.75,755.630365791863
3539,756.604234565341
3539.25,758.817785928096
3539.5,761.103784703985
3539.75,762.236274597979
3540,761.761149222814
3540.25,760.248139642234
3540.5,758.334377554075
3540.75,756.479273654759
3541,754.874576778093
3541.25,753.686777838199
3541.5,752.856028151384
3541.75,751.947161047094
3542,750.494231208517
3542.25,748.406522316002
3542.5,746.242885921936
3542.75,744.623347707114
3543,743.871415797474
3543.25,743.791770042782
3543.5,744.137574429187
3543.75,744.722455079264
3544,745.460257773685
3544.25,746.273945232519
3544.5,747.067644451763
3544.75,747.716210501503
3545,748.095413972847
3545.25,748.266824528804
3545.5,748.568662825233
3545.75,749.352417617424
3546,750.49670548958
3546.25,751.190946220833
3546.5,750.588863907207
3546.75,748.777284421379
3547,747.188469213047
3547.25,747.33465152665
3547.5,749.465058599962
3547.75,751.98859710185
3548,753.198375639615
3548.25,752.78180688952
3548.5,752.394069077062
3548.75,753.812049219663
3549,757.443949512394
3549.25,761.70417907683
3549.5,764.866959399363
3549.75,766.16009930334
3550,766.245369397391
3550.25,765.899349223165
3550.5,765.598980230285
3550.75,765.297601149121
3551,764.896861023765
3551.25,764.464787372684
3551.5,764.415825433954
3551.75,765.206511449349
3552,766.886963804376
3552.25,768.505843057936
3552.5,768.960830209081
3552.75,767.765701368451
3553,766.238898246459
3553.25,766.027558956715
3553.5,768.158967120297
3553.75,771.386968640315
3554,773.944332107897
3554.25,774.48571908375
3554.5,773.540407246226
3554.75,772.158158587932
3555,771.251842811152
3555.25,770.919964700123
3555.5,770.961135280339
3555.75,771.170044128063
3556,771.314253183427
3556.25,771.148506386309
3556.5,770.473536824539
3556.75,769.570431006292
3557,769.005854954816
3557.25,769.305154444874
3557.5,770.352904969704
3557.75,771.557256042123
3558,772.340932800934
3558.25,772.629766112978
3558.5,772.806103386566
3558.75,773.257057109013
3559,774.02127913505
3559.25,774.739632022877
3559.5,775.036554810261
3559.75,774.804871030611
3560,774.327647585043
3560.25,773.91759710104
3560.5,773.765358266512
3560.75,773.829237743525
3561,774.041234182869
3561.25,774.235269703083
3561.5,774.001240341419
3561.75,772.891797359892
3562,770.760818687976
3562.25,768.453024449459
3562.5,767.016564315352
3562.75,767.200288503242
3563,768.456879640042
3563.25,769.88822429311
3563.5,770.740420463734
3563.75,771.026438077977
3564,771.013146524238
3564.25,770.94569501201
3564.5,770.920176415696
3564.75,770.970533207065
3565,771.100937357558
3565.25,771.050975423291
3565.5,770.420858120292
3565.75,768.864186238889
3566,766.690783058962
3566.25,764.644052296183
3566.5,763.433239459717
3566.75,763.08266396965
3567,763.057703462178
3567.25,762.83013407797
3567.5,762.344637552174
3567.75,761.992617035357
3568,762.168115425863
3568.25,762.869985894047
3568.5,763.669580143666
3568.75,764.126708311277
3569,764.136515208041
3569.25,764.005373629533
3569.5,764.060105839817
3569.75,764.401418284764
3570,764.808685318495
3570.25,765.038097776384
3570.5,764.939533620395
3570.75,764.517444594281
3571,763.791127253994
3571.25,762.827125656035
3571.5,761.783725904565
3571.75,760.829466925007
3572,760.067689769202
3572.25,759.453852699623
3572.5,758.923113443077
3572.75,758.450311139043
3573,758.112245521862
3573.25,758.001873959442
3573.5,758.219468895898
3573.75,758.886154726505
3574,760.126680211509
3574.25,761.914344392142
3574.5,763.748387914161
3574.75,765.035564483701
3575,765.435923597563
3575.25,765.5021084388
3575.5,765.983276819509
3575.75,767.363058268785
3576,769.005278412719
3576.25,769.978614353562
3576.5,769.587335956997
3576.75,768.340527275249
3577,767.131392214444
3577.25,766.728382980274
3577.5,767.082797223681
3577.75,767.817422059608
3578,768.582585424732
3578.25,769.259854218136
3578.5,769.843308429314
3578.75,770.338833847955
3579,770.867013099268
3579.25,771.61635528338
3579.5,772.739211537541
3579.75,773.872518358348
3580,774.275446499694
3580.25,773.246568007047
3580.5,771.045987529812
3580.75,768.82139067302
3581,767.724700548464
3581.25,767.980573568292
3581.5,768.714014840338
3581.75,768.997742972658
3582,768.469550834499
3582.25,767.577117270569
3582.5,766.829141768725
3582.75,766.607612111015
3583,767.071937751538
3583.25,768.357955981759
3583.5,770.432506506585
3583.75,772.90472221729
3584,775.33840236777
3584.25,777.393121613373
3584.5,778.976857749446
3584.75,780.037340248564
3585,780.58015591592
3585.25,780.811972368816
3585.5,780.983112817397
3585.75,781.290794796713
3586,781.667641130723
3586.25,781.964029839952
3586.5,782.039430401237
3586.75,781.820035578381
3587,781.261687473309
3587.25,780.349407737305
3587.5,779.395717737133
3587.75,778.919707340101
3588,779.410538277755
3588.25,780.750762661509
3588.5,782.292176888291
3588.75,783.380056013418
3589,783.72251262309
3589.25,783.457388390264
3589.5,782.748547554471
3589.75,781.845483271297
3590,781.141561829358
3590.25,781.042901939769
3590.5,781.632077009467
3590.75,782.208961074748
3591,781.957436450964
3591.25,780.388325611099
3591.5,778.147355757647
3591.75,776.1263486405
3592,775.024154575021
3592.25,774.555765902679
3592.5,774.123422599803
3592.75,773.228475231332
3593,772.070357608332
3593.25,771.14806434965
3593.5,770.893888952455
3593.75,771.085446851699
3594,771.134005110904
3594.25,770.482279945682
3594.5,769.035560990288
3594.75,767.02330951966
3595,764.682183422472
3595.25,762.258154255787
3595.5,760.005333007228
3595.75,758.169029701054
3596,756.77322871602
3596.25,755.613352982257
3596.5,754.480515519195
3596.75,753.34719562379
3597,752.391601112536
3597.25,751.796223555981
3597.5,751.521963105757
3597.75,751.264893253897
3598,750.715039534591
3598.25,749.885009056907
3598.5,749.1810475134
3598.75,749.024390282363
3599,749.527348429171
3599.25,750.421333160932
3599.5,751.416013544815
3599.75,752.280742632247
3600,752.857685962099
3600.25,752.998312082745
3600.5,752.723346682007
3600.75,752.262154508087
3601,751.852467221968
3601.25,751.565015971303
3601.5,751.258112806555
3601.75,750.782030781159
3602,750.20900584696
3602.25,749.899568586098
3602.5,750.224635418753
3602.75,751.201951407975
3603,752.385751960671
3603.25,753.308065569704
3603.5,753.868839002098
3603.75,754.450821418446
3604,755.458560703827
3604.25,756.827829431143
3604.5,757.859560094299
3604.75,757.822174220493
3605,756.596853380511
3605.25,754.939567394478
3605.5,753.664631903047
3605.75,753.055925229469
3606,752.572873909265
3606.25,751.609735111852
3606.5,749.970250499431
3606.75,748.122393629307
3607,746.590313507092
3607.25,745.568226966689
3607.5,744.703602658201
3607.75,743.599475563038
3608,742.319852740862
3608.25,741.668319997515
3608.5,742.500668581768
3608.75,744.872157353978
3609,747.63360377807
3609.25,749.55157223396
3609.5,750.075181209473
3609.75,749.596793363795
3610,748.576379049872
3610.25,747.409942566778
3610.5,746.406031776832
3610.75,745.858735044725
3611,745.714359666106
3611.25,745.44876979328
3611.5,744.519006641514
3611.75,742.946146852751
3612,741.482649865771
3612.25,740.906574004197
3612.5,741.197247855491
3612.75,741.351420446722
3613,740.347957362856
3613.25,738.375211433965
3613.5,736.97545464002
3613.75,737.701122979797
3614,740.644502516576
3614.25,744.410154540355
3614.5,747.569854311621
3614.75,749.33614286519
3615,749.491499707005
3615.25,747.877477905444
3615.5,745.023611024352
3615.75,742.046217444272
3616,740.030034238287
3616.25,739.190475334193
3616.5,739.009316683922
3616.75,738.969255893354
3617,738.909515886792
3617.25,738.943037854419
3617.5,739.176928334297
3617.75,739.556777206952
3618,739.91779992049
3618.25,740.131956083266
3618.5,740.488275945579
3618.75,741.529158844038
3619,743.753955293433
3619.25,747.226770101468
3619.5,751.774456913185
3619.75,757.07843420513
3620,761.620582993143
3620.25,763.283917525505
3620.5,760.336481663152
3620.75,754.44432713291
3621,749.02668124476
3621.25,747.195706808651
3621.5,748.711414123266
3621.75,751.341816301794
3622,753.014444491202
3622.25,753.539737555057
3622.5,753.822997564748
3622.75,754.70021147844
3623,756.144140767066
3623.25,757.61471378173
3623.5,758.614729734129
3623.75,759.194140992232
3624,759.742203576554
3624.25,760.598231292599
3624.5,761.420477461966
3624.75,761.407237000611
3625,759.82989039446
3625.25,757.137661677354
3625.5,754.663959143512
3625.75,753.67987166691
3626,754.014400281735
3626.25,754.28154134879
3626.5,753.132376112099
3626.75,750.599661369295
3627,747.929868678594
3627.25,746.355676585469
3627.5,746.023051159838
3627.75,746.082725477779
3628,745.715829514862
3628.25,745.360296338616
3628.5,746.56940272469
3628.75,750.799427631953
3629,757.133730736558
3629.25,762.636389304873
3629.5,764.485944364887
3629.75,762.885173361006
3630,760.556719832229
3630.25,760.205052065643
3630.5,762.483331343672
3630.75,766.066420043546
3631,769.570503691173
3631.25,772.181110894519
3631.5,773.693172678875
3631.75,773.947079522094
3632,773.382788640979
3632.25,773.21504956485
3632.5,774.694184387398
3632.75,777.905646455508
3633,780.99223732788
3633.25,781.922198170216
3633.5,780.472810980162
3633.75,780.345247926155
3634,779.871088408263
3634.25,779.396928890372
3634.5,778.922769372481
3634.75,778.448609854589
3635,777.974450336698
3635.25,777.500290818807
3635.5,777.026131300915
3635.75,776.551971783024
3636,776.077812265132
3636.25,775.603652747241
3636.5,775.12949322935
3636.75,774.655333711458
3637,774.181174193567
3637.25,773.707014675676
3637.5,773.232855157784
3637.75,772.758695639893
3638,772.284536122002
3638.25,771.81037660411
3638.5,771.336217086219
3638.75,770.862057568328
3639,770.387898050436
3639.25,769.913738532545
3639.5,769.439579014654
3639.75,768.965419496762
3640,768.491259978871
3640.25,768.017100460979
3640.5,767.542940943088
3640.75,767.068781425197
3641,766.594621907305
3641.25,766.120462389414
3641.5,765.646302871523
3641.75,765.172143353631
3642,764.69798383574
3642.25,764.223824317849
3642.5,763.749664799957
3642.75,763.275505282066
3643,762.801345764174
3643.25,762.327186246283
3643.5,761.853026728392
3643.75,761.624000752577
3644,762.277361842237
3644.25,764.086721198616
3644.5,766.061833700463
3644.75,767.061973227393
3645,766.512092127817
3645.25,765.146847424128
3645.5,763.885343301662
3645.75,763.327595706082
3646,763.176270181956
3646.25,762.97747574649
3646.5,762.420849375781
3646.75,761.671733545309
3647,760.993894690874
3647.25,760.611520358884
3647.5,760.595611062035
3647.75,760.980111414768
3648,761.765782811296
3648.25,762.8068436976
3648.5,763.917072455954
3648.75,764.943859119445
3649,765.904078745419
3649.25,766.867904853618
3649.5,767.864994693481
3649.75,768.682467818871
3650,769.017633783928
3650.25,768.655278396966
3650.5,768.029487426542
3650.75,767.86603835843
3651,768.786072884471
3651.25,770.400606372595
3651.5,771.761064339042
3651.75,771.994437518438
3652,771.23019640021
3652.25,770.271659618148
3652.5,769.90240230869
3652.75,770.345597479281
3653,771.349439183329
3653.25,772.652912370871
3653.5,774.139824614472
3653.75,775.845226288661
3654,777.805522664495
3654.25,779.827582945858
3654.5,781.416486957596
3654.75,782.061307249252
3655,781.639883421677
3655.25,780.711741603364
3655.5,779.904666250792
3655.75,779.575982388774
3656,779.406401634841
3656.25,778.972562207782
3656.5,778.055719731927
3656.75,777.164124119999
3657,776.967410569129
3657.25,777.907402974073
3657.5,779.279148193752
3657.75,780.017645322564
3658,779.280015781416
3658.25,777.785738975874
3658.5,776.924345795684
3658.75,777.923543926021
3659,780.288334723644
3659.25,782.495632539165
3659.5,783.099950542273
3659.75,782.091117016583
3660,780.599952526718
3660.25,779.758331835753
3660.5,779.82767138364
3660.75,780.092546584802
3661,779.793850254078
3661.25,778.652113273479
3661.5,777.126276861243
3661.75,775.737114120188
3662,774.812818896002
3662.25,774.270613384144
3662.5,773.974936625917
3662.75,773.826284237422
3663,773.82860796708
3663.25,774.004299165619
3663.5,774.380241840384
3663.75,775.000447356313
3664,775.913007904032
3664.25,777.079566784974
3664.5,778.021885717966
3664.75,778.122165107394
3665,776.892947378775
3665.25,774.762125273446
3665.5,772.549660162413
3665.75,771.001212452453
3666,770.091312316088
3666.25,769.344663823395
3666.5,768.318392501036
3666.75,767.10379700302
3667,766.186173038498
3667.25,766.029433599207
3667.5,766.511394525401
3667.75,766.982253937882
3668,766.798428606182
3668.25,765.962072753318
3668.5,765.162225292355
3668.75,765.106698716457
3669,765.965813115118
