2709,40.1252327569827
2709.25,40.3850845525365
2709.5,40.6449363480904
2709.75,40.9047881436443
2710,41.1646399391982
2710.25,41.1898726961809
2710.5,40.960003800114
2710.75,40.7301349040471
2711,40.5002660079802
2711.25,40.2703971119133
2711.5,40.0405282158464
2711.75,39.8106593197795
2712,39.5807904237126
2712.25,39.3509215276458
2712.5,39.1210526315789
2712.75,38.891183735512
2713,38.6613148394451
2713.25,38.4314459433782
2713.5,38.2015770473113
2713.75,37.9717081512444
2714,37.7418392551775
2714.25,37.5119703591106
2714.5,37.2821014630437
2714.75,37.0522325669768
2715,36.8223636709099
2715.25,36.7327189815695
2715.5,36.8026790803725
2715.75,36.8726391791754
2716,36.9425992779784
2716.25,37.0125593767814
2716.5,37.0825194755843
2716.75,37.1524795743873
2717,37.2224396731903
2717.25,37.2923997719932
2717.5,37.3623598707962
2717.75,37.4323199695992
2718,37.5022800684021
2718.25,37.5722401672051
2718.5,37.6422002660081
2718.75,37.7121603648109
2719,37.7821204636139
2719.25,37.8520805624169
2719.5,37.9220406612198
2719.75,37.9920007600228
2720,38.0619608588257
2720.25,38.097719931598
2720.5,38.0927227816835
2720.75,38.087725631769
2721,38.0827284818545
2721.25,38.07773133194
2721.5,38.0727341820255
2721.75,38.067737032111
2722,38.0627398821965
2722.25,38.057742732282
2722.5,38.0527455823675
2722.75,38.047748432453
2723,38.0427512825385
2723.25,38.037754132624
2723.5,38.0327569827095
2723.75,38.027759832795
2724,38.0227626828805
2724.25,38.017765532966
2724.5,38.0127683830515
2724.75,38.007771233137
2725,38.0027740832225
2725.25,38.0377921337641
2725.5,38.1227436823105
2725.75,38.207695230857
2726,38.2926467794034
2726.25,38.3775983279499
2726.5,38.4625498764964
2726.75,38.5475014250428
2727,38.6324529735893
2727.25,38.7174045221358
2727.5,38.8023560706822
2727.75,38.8873076192287
2728,38.9722591677751
2728.25,39.0572107163216
2728.5,39.142162264868
2728.75,39.2271138134145
2729,39.312065361961
2729.25,39.3970169105074
2729.5,39.4819684590539
2729.75,39.5669200076002
2730,39.6518715561467
2730.25,39.6393501805055
2730.5,39.4994299828995
2730.75,39.3595097852936
2731,39.2195895876877
2731.25,39.0796693900817
2731.5,38.9397491924758
2731.75,38.7998289948699
2732,38.6599087972639
2732.25,38.519988599658
2732.5,38.3800684020521
2732.75,38.2401482044461
2733,38.1002280068402
2733.25,37.9603078092343
2733.5,37.8203876116283
2733.75,37.6804674140224
2734,37.5405472164164
2734.25,37.4006270188105
2734.5,37.2607068212046
2734.75,37.1207866235986
2735,36.9808664259927
2735.25,36.8072012160364
2735.5,36.5873266197985
2735.75,36.3674520235606
2736,36.1475774273227
2736.25,35.9277028310848
2736.5,35.7078282348469
2736.75,35.487953638609
2737,35.2680790423711
2737.25,35.0482044461332
2737.5,34.8283298498953
2737.75,34.6084552536574
2738,34.3885806574195
2738.25,34.1687060611816
2738.5,33.9488314649437
2738.75,33.7289568687058
2739,33.5090822724679
2739.25,33.28920767623
2739.5,33.0693330799921
2739.75,32.8494584837542
2740,32.6295838875163
2740.25,32.5123123693711
2740.5,32.5422952688581
2740.75,32.5722781683451
2741,32.602261067832
2741.25,32.632243967319
2741.5,32.662226866806
2741.75,32.692209766293
2742,32.72219266578
2742.25,32.752175565267
2742.5,32.7821584647539
2742.75,32.8121413642409
2743,32.8421242637279
2743.25,32.8721071632149
2743.5,32.9020900627019
2743.75,32.9320729621889
2744,32.9620558616759
2744.25,32.9920387611628
2744.5,33.0220216606498
2744.75,33.0520045601368
2745,33.0819874596238
2745.25,33.1219456583698
2745.5,33.1769143074292
2745.75,33.2318829564887
2746,33.2868516055482
2746.25,33.3418202546077
2746.5,33.3967889036671
2746.75,33.4517575527266
2747,33.5067262017861
2747.25,33.5616948508456
2747.5,33.616663499905
2747.75,33.6716321489645
2748,33.726600798024
2748.25,33.7815694470835
2748.5,33.8365380961429
2748.75,33.8915067452024
2749,33.9464753942619
2749.25,34.0014440433214
2749.5,34.0564126923808
2749.75,34.1113813414403
2750,34.1663499904998
2750.25,34.2135664069923
2750.5,34.2485464563937
2750.75,34.2835265057952
2751,34.3185065551967
2751.25,34.3534866045982
2751.5,34.3884666539997
2751.75,34.4234467034012
2752,34.4584267528026
2752.25,34.4934068022041
2752.5,34.5283868516055
2752.75,34.563366901007
2753,34.5983469504085
2753.25,34.63332699981
2753.5,34.6683070492115
2753.75,34.703287098613
2754,34.7382671480144
2754.25,34.7732471974159
2754.5,34.8082272468174
2754.75,34.8432072962189
2755,34.8781873456204
2755.25,34.8962378871366
2755.5,34.8862435873076
2755.75,34.8762492874786
2756,34.8662549876496
2756.25,34.8562606878206
2756.5,34.8462663879916
2756.75,34.8362720881626
2757,34.8262777883336
2757.25,34.8162834885047
2757.5,34.8062891886757
2757.75,34.7962948888467
2758,34.7863005890177
2758.25,34.7763062891887
2758.5,34.7663119893597
2758.75,34.7563176895307
2759,34.7463233897017
2759.25,34.7363290898727
2759.5,34.7263347900437
2759.75,34.7163404902147
2760,34.7063461903857
2760.25,34.7145924377732
2760.5,34.7545696370892
2760.75,34.7945468364051
2761,34.8345240357211
2761.25,34.8745012350371
2761.5,34.9144784343531
2761.75,34.9544556336691
2762,34.994432832985
2762.25,35.034410032301
2762.5,35.074387231617
2762.75,35.114364430933
2763,35.1543416302489
2763.25,35.1943188295649
2763.5,35.2342960288809
2763.75,35.2742732281968
2764,35.3142504275128
2764.25,35.3542276268288
2764.5,35.3942048261448
2764.75,35.4341820254608
2765,35.4741592247767
2765.25,35.5477104313129
2765.5,35.6826334790044
2765.75,35.8175565266958
2766,35.9524795743872
2766.25,36.0874026220787
2766.5,36.2223256697701
2766.75,36.3572487174616
2767,36.492171765153
2767.25,36.6270948128444
2767.5,36.7620178605359
2767.75,36.8969409082273
2768,37.0318639559187
2768.25,37.1667870036102
2768.5,37.3017100513016
2768.75,37.436633098993
2769,37.5715561466845
2769.25,37.7064791943759
2769.5,37.8414022420674
2769.75,37.9763252897588
2770,38.1112483374502
2770.25,38.1982899486985
2770.5,38.193292798784
2770.75,38.1882956488695
2771,38.183298498955
2771.25,38.1783013490405
2771.5,38.173304199126
2771.75,38.1683070492115
2772,38.163309899297
2772.25,38.1583127493825
2772.5,38.153315599468
2772.75,38.1483184495535
2773,38.143321299639
2773.25,38.1383241497245
2773.5,38.13332699981
2773.75,38.1283298498955
2774,38.123332699981
2774.25,38.1183355500665
2774.5,38.113338400152
2774.75,38.1083412502375
2775,38.103344100323
2775.25,38.0785103553107
2775.5,38.0135474064222
2775.75,37.9485844575337
2776,37.8836215086453
2776.25,37.8186585597568
2776.5,37.7536956108683
2776.75,37.6887326619799
2777,37.6237697130914
2777.25,37.5588067642029
2777.5,37.4938438153144
2777.75,37.428880866426
2778,37.3639179175375
2778.25,37.298954968649
2778.5,37.2339920197606
2778.75,37.1690290708721
2779,37.1040661219836
2779.25,37.0391031730952
2779.5,36.9741402242067
2779.75,36.9091772753182
2780,36.8442143264298
2780.25,36.8303249097473
2780.5,36.9252707581228
2780.75,37.0202166064983
2781,37.1151624548737
2781.25,37.2101083032492
2781.5,37.3050541516246
2781.75,37.4000000000001
2782,37.4949458483755
2782.25,37.589891696751
2782.5,37.6848375451264
2782.75,37.7797833935019
2783,37.8747292418774
2783.25,37.9696750902528
2783.5,38.0646209386283
2783.75,38.1595667870037
2784,38.2545126353792
2784.25,38.3494584837546
2784.5,38.4444043321301
2784.75,38.5393501805055
2785,38.634296028881
2785.25,38.7107733231997
2785.5,38.7457533726012
2785.75,38.7807334220027
2786,38.8157134714041
2786.25,38.8506935208056
2786.5,38.8856735702071
2786.75,38.9206536196086
2787,38.9556336690101
2787.25,38.9906137184116
2787.5,39.025593767813
2787.75,39.0605738172145
2788,39.095553866616
2788.25,39.1305339160175
2788.5,39.165513965419
2788.75,39.2004940148205
2789,39.2354740642219
2789.25,39.2704541136234
2789.5,39.3054341630249
2789.75,39.3404142124264
2790,39.3753942618279
2790.25,39.4237127113814
2790.5,39.5036671100133
2790.75,39.5836215086453
2791,39.6635759072773
2791.25,39.7435303059092
2791.5,39.8234847045412
2791.75,39.9034391031731
2792,39.9833935018051
2792.25,40.0633479004371
2792.5,40.143302299069
2792.75,40.223256697701
2793,40.303211096333
2793.25,40.3831654949649
2793.5,40.4631198935969
2793.75,40.5430742922288
2794,40.6230286908608
2794.25,40.7029830894928
2794.5,40.7829374881247
2794.75,40.8628918867567
2795,40.9428462853887
2795.25,40.9786243587307
2795.5,40.9036671100132
2795.75,40.8287098612957
2796,40.7537526125783
2796.25,40.6787953638609
2796.5,40.6038381151435
2796.75,40.528880866426
2797,40.4539236177086
2797.25,40.3789663689911
2797.5,40.3040091202736
2797.75,40.2290518715562
2798,40.1540946228387
2798.25,40.0791373741212
2798.5,40.0041801254038
2798.75,39.9292228766863
2799,39.8542656279688
2799.25,39.7793083792514
2799.5,39.7043511305339
2799.75,39.6293938818164
2800,39.554436633099
2800.25,39.5150484514536
2800.5,39.570017100513
2800.75,39.6249857495725
2801,39.679954398632
2801.25,39.7349230476915
2801.5,39.7898916967509
2801.75,39.8448603458104
2802,39.8998289948699
2802.25,39.9547976439294
2802.5,40.0097662929888
2802.75,40.0647349420483
2803,40.1197035911078
2803.25,40.1746722401672
2803.5,40.2296408892267
2803.75,40.2846095382862
2804,40.3395781873457
2804.25,40.3945468364051
2804.5,40.4495154854646
2804.75,40.5044841345241
2805,40.5594527835836
2805.25,40.6065551966559
2805.5,40.6315409462284
2805.75,40.6565266958009
2806,40.6815124453734
2806.25,40.7064981949459
2806.5,40.7314839445184
2806.75,40.7564696940909
2807,40.7814554436633
2807.25,40.8064411932358
2807.5,40.8314269428083
2807.75,40.8564126923808
2808,40.8813984419533
2808.25,40.9063841915257
2808.5,40.9313699410982
2808.75,40.9563556906707
2809,40.9813414402432
2809.25,41.0063271898157
2809.5,41.0313129393882
2809.75,41.0562986889607
2810,41.0812844385332
2810.25,41.1263347900437
2810.5,41.2312749382482
2810.75,41.3362150864526
2811,41.4411552346571
2811.25,41.5460953828615
2811.5,41.651035531066
2811.75,41.7559756792704
2812,41.8609158274749
2812.25,41.9658559756793
2812.5,42.0707961238838
2812.75,42.1757362720882
2813,42.2806764202927
2813.25,42.3856165684971
2813.5,42.4905567167016
2813.75,42.595496864906
2814,42.7004370131105
2814.25,42.8053771613149
2814.5,42.9103173095194
2814.75,43.0152574577238
2815,43.1201976059283
2815.25,43.1676800304008
2815.5,43.0327569827094
2815.75,42.8978339350179
2816,42.7629108873265
2816.25,42.627987839635
2816.5,42.4930647919436
2816.75,42.3581417442522
2817,42.2232186965607
2817.25,42.0882956488693
2817.5,41.9533726011779
2817.75,41.8184495534864
2818,41.683526505795
2818.25,41.5486034581036
2818.5,41.4136804104124
2818.75,41.2787573627209
2819,41.1438343150295
2819.25,41.0089112673381
2819.5,40.8739882196466
2819.75,40.7390651719552
2820,40.6041421242637
2820.25,40.4840395211856
2820.5,40.4140794223827
2820.75,40.3441193235797
2821,40.2741592247767
2821.25,40.2041991259738
2821.5,40.1342390271708
2821.75,40.0642789283678
2822,39.9943188295649
2822.25,39.9243587307619
2822.5,39.8543986319589
2822.75,39.784438533156
2823,39.714478434353
2823.25,39.64451833555
2823.5,39.5745582367471
2823.75,39.5045981379441
2824,39.4346380391411
2824.25,39.3646779403382
2824.5,39.2947178415352
2824.75,39.2247577427322
2825,39.1547976439293
2825.25,39.0696750902526
2825.5,38.9297548926467
2825.75,38.7898346950407
2826,38.6499144974348
2826.25,38.5099942998289
2826.5,38.3700741022229
2826.75,38.230153904617
2827,38.0902337070111
2827.25,37.9503135094051
2827.5,37.8103933117992
2827.75,37.6704731141933
2828,37.5305529165873
2828.25,37.3906327189814
2828.5,37.2507125213755
2828.75,37.1107923237695
2829,36.9708721261636
2829.25,36.8309519285577
2829.5,36.691031730952
2829.75,36.551111533346
2830,36.4111913357401
2830.25,36.3071822154665
2830.5,36.3421622648679
2830.75,36.3771423142694
2831,36.4121223636709
2831.25,36.4471024130724
2831.5,36.4820824624739
2831.75,36.5170625118754
2832,36.5520425612768
2832.25,36.5870226106783
2832.5,36.6220026600798
2832.75,36.6569827094813
2833,36.6919627588828
2833.25,36.7269428082843
2833.5,36.7619228576857
2833.75,36.7969029070872
2834,36.8318829564887
2834.25,36.8668630058902
2834.5,36.9018430552917
2834.75,36.9368231046932
2835,36.9718031540946
2835.25,37.0038761162835
2835.5,37.0238647159415
2835.75,37.0438533155995
2836,37.0638419152575
2836.25,37.0838305149155
2836.5,37.1038191145735
2836.75,37.1238077142314
2837,37.1437963138894
2837.25,37.1637849135474
2837.5,37.1837735132054
2837.75,37.2037621128634
2838,37.2237507125214
2838.25,37.2437393121794
2838.5,37.2637279118374
2838.75,37.2837165114954
2839,37.3037051111534
2839.25,37.3236937108113
2839.5,37.3436823104693
2839.75,37.3636709101273
2840,37.3836595097853
2840.25,37.4136804104124
2840.5,37.4886376591297
2840.75,37.5635949078472
2841,37.6385521565647
2841.25,37.7135094052821
2841.5,37.7884666539996
2841.75,37.8634239027171
2842,37.9383811514345
2842.25,38.013338400152
2842.5,38.0882956488695
2842.75,38.1632528975869
2843,38.2382101463044
2843.25,38.3131673950219
2843.5,38.3881246437393
2843.75,38.4630818924568
2844,38.5380391411742
2844.25,38.6129963898917
2844.5,38.6879536386092
2844.75,38.7629108873266
2845,38.8378681360441
2845.25,38.9367661029832
2845.5,39.1516435493066
2845.75,39.36652099563
2846,39.5813984419534
2846.25,39.7962758882768
2846.5,40.0111533346002
2846.75,40.2260307809236
2847,40.440908227247
2847.25,40.6557856735704
2847.5,40.8706631198938
2847.75,41.0855405662172
2848,41.3004180125406
2848.25,41.515295458864
2848.5,41.7301729051874
2848.75,41.9450503515108
2849,42.1599277978342
2849.25,42.3748052441576
2849.5,42.5896826904809
2849.75,42.8045601368043
2850,43.0194375831277
2850.25,43.1864335930077
2850.5,43.1014820444612
2850.75,43.0165304959148
2851,42.9315789473683
2851.25,42.8466273988219
2851.5,42.7616758502754
2851.75,42.6767243017291
2852,42.5917727531826
2852.25,42.5068212046362
2852.5,42.4218696560897
2852.75,42.3369181075432
2853,42.2519665589968
2853.25,42.1670150104503
2853.5,42.0820634619039
2853.75,41.9971119133574
2854,41.9121603648109
2854.25,41.8272088162645
2854.5,41.742257267718
2854.75,41.6573057191716
2855,41.5723541706251
2855.25,41.4970359110773
2855.5,41.4770473114193
2855.75,41.4570587117613
2856,41.4370701121034
2856.25,41.4170815124454
2856.5,41.3970929127874
2856.75,41.3771043131294
2857,41.3571157134714
2857.25,41.3371271138134
2857.5,41.3171385141554
2857.75,41.2971499144974
2858,41.2771613148394
2858.25,41.2571727151814
2858.5,41.2371841155235
2858.75,41.2171955158655
2859,41.1972069162075
2859.25,41.1772183165495
2859.5,41.1572297168915
2859.75,41.1372411172335
2860,41.1172525175755
2860.25,41.085635569067
2860.5,40.9806954208625
2860.75,40.8757552726581
2861,40.7708151244536
2861.25,40.6658749762492
2861.5,40.5609348280447
2861.75,40.4559946798403
2862,40.3510545316358
2862.25,40.2461143834314
2862.5,40.1411742352269
2862.75,40.0362340870226
2863,39.9312939388182
2863.25,39.8263537906138
2863.5,39.7214136424093
2863.75,39.6164734942048
2864,39.5115333460004
2864.25,39.4065931977959
2864.5,39.3016530495915
2864.75,39.196712901387
2865,39.0917727531826
2865.25,39.0175565266958
2865.5,39.1574767243017
2865.75,39.2973969219077
2866,39.4373171195136
2866.25,39.5772373171195
2866.5,39.7171575147255
2866.75,39.8570777123314
2867,39.9969979099373
2867.25,40.1369181075433
2867.5,40.2768383051492
2867.75,40.4167585027551
2868,40.5566787003611
2868.25,40.696598897967
2868.5,40.8365190955729
2868.75,40.9764392931789
2869,41.1163594907848
2869.25,41.2562796883907
2869.5,41.3961998859967
2869.75,41.5361200836026
2870,41.6760402812086
2870.25,41.7920197605928
2870.5,41.7220596617898
2870.75,41.6520995629868
2871,41.5821394641839
2871.25,41.5121793653809
2871.5,41.4422192665779
2871.75,41.3722591677749
2872,41.302299068972
2872.25,41.232338970169
2872.5,41.1623788713661
2872.75,41.0924187725631
2873,41.0224586737601
2873.25,40.9524985749572
2873.5,40.8825384761542
2873.75,40.8125783773513
2874,40.7426182785484
2874.25,40.6726581797454
2874.5,40.6026980809424
2874.75,40.5327379821395
2875,40.4627778833365
2875.25,40.3779403382102
2875.5,40.1630628918868
2875.75,39.9481854455634
2876,39.73330799924
2876.25,39.5184305529166
2876.5,39.3035531065932
2876.75,39.0886756602698
2877,38.8737982139464
2877.25,38.658920767623
2877.5,38.4440433212996
2877.75,38.2291658749762
2878,38.0142884286528
2878.25,37.7994109823294
2878.5,37.584533536006
2878.75,37.3696560896826
2879,37.1547786433592
2879.25,36.9399011970358
2879.5,36.7250237507124
2879.75,36.510146304389
2880,36.2952688580656
2880.25,36.0881436443092
2880.5,35.9582177465323
2880.75,35.8282918487554
2881,35.6983659509784
2881.25,35.5684400532015
2881.5,35.4385141554245
2881.75,35.3085882576476
2882,35.1786623598707
2882.25,35.0487364620937
2882.5,34.9188105643168
2882.75,34.7888846665399
2883,34.6589587687629
2883.25,34.529032870986
2883.5,34.399106973209
2883.75,34.2691810754321
2884,34.1392551776552
2884.25,34.0093292798782
2884.5,33.8794033821013
2884.75,33.7494774843246
2885,33.6195515865476
2885.25,33.4960098802964
2885.5,33.4460383811514
2885.75,33.3960668820065
2886,33.3460953828615
2886.25,33.2961238837165
2886.5,33.2461523845715
2886.75,33.1961808854266
2887,33.1462093862816
2887.25,33.0962378871366
2887.5,33.0462663879916
2887.75,32.9962948888467
2888,32.9463233897017
2888.25,32.8963518905567
2888.5,32.8463803914117
2888.75,32.7964088922668
2889,32.7464373931218
2889.25,32.6964658939768
2889.5,32.6464943948318
2889.75,32.5965228956868
2890,32.5465513965419
2890.25,32.5191525745774
2890.5,32.7989929697893
2890.75,33.0788333650011
2891,33.358673760213
2891.25,33.6385141554249
2891.5,33.9183545506367
2891.75,34.1981949458486
2892,34.4780353410605
2892.25,34.7578757362723
2892.5,35.0377161314842
2892.75,35.3175565266961
2893,35.5973969219079
2893.25,35.8772373171198
2893.5,36.1570777123317
2893.75,36.4369181075435
2894,36.7167585027554
2894.25,36.9965988979673
2894.5,37.2764392931791
2894.75,37.556279688391
2895,37.8361200836029
2895.25,38.0954398631958
2895.5,38.0154854645638
2895.75,37.9355310659319
2896,37.8555766673
2896.25,37.7756222686681
2896.5,37.6956678700361
2896.75,37.6157134714042
2897,37.5357590727722
2897.25,37.4558046741402
2897.5,37.3758502755083
2897.75,37.2958958768763
2898,37.2159414782443
2898.25,37.1359870796124
2898.5,37.0560326809804
2898.75,36.9760782823485
2899,36.8961238837165
2899.25,36.8161694850845
2899.5,36.7362150864526
2899.75,36.6562606878206
2900,36.5763062891887
2900.25,36.5088922667681
2900.5,36.7037811134335
2900.75,36.8986699600989
2901,37.0935588067643
2901.25,37.2884476534297
2901.5,37.4833365000951
2901.75,37.6782253467605
2902,37.8731141934259
2902.25,38.0680030400913
2902.5,38.2628918867567
2902.75,38.4577807334221
2903,38.6526695800876
2903.25,38.847558426753
2903.5,39.0424472734184
2903.75,39.2373361200838
2904,39.4322249667492
2904.25,39.6271138134146
2904.5,39.82200266008
2904.75,40.0168915067454
2905,40.2117803534108
2905.25,40.4008550256508
2905.5,40.4258407752233
2905.75,40.4508265247958
2906,40.4758122743683
2906.25,40.5007980239408
2906.5,40.5257837735132
2906.75,40.5507695230857
2907,40.5757552726582
2907.25,40.6007410222307
2907.5,40.6257267718031
2907.75,40.6507125213756
2908,40.6756982709481
2908.25,40.7006840205206
2908.5,40.7256697700931
2908.75,40.7506555196656
2909,40.7756412692381
2909.25,40.8006270188106
2909.5,40.8256127683831
2909.75,40.8505985179555
2910,40.875584267528
2910.25,40.8971499144974
2910.5,40.772221166635
2910.75,40.6472924187725
2911,40.5223636709101
2911.25,40.3974349230476
2911.5,40.2725061751852
2911.75,40.1475774273228
2912,40.0226486794603
2912.25,39.8977199315979
2912.5,39.7727911837354
2912.75,39.647862435873
2913,39.5229336880106
2913.25,39.3980049401481
2913.5,39.2730761922857
2913.75,39.1481474444232
2914,39.0232186965608
2914.25,38.8982899486984
2914.5,38.7733612008359
2914.75,38.6484324529735
2915,38.523503705111
2915.25,38.4
2915.5,38.4
2915.75,38.4
2916,38.4
2916.25,38.4
2916.5,38.4
2916.75,38.4
2917,38.4
2917.25,38.4
2917.5,38.4
2917.75,38.4
2918,38.4
2918.25,38.4
2918.5,38.4
2918.75,38.4
2919,38.4
2919.25,38.4
2919.5,38.4
2919.75,38.4
2920,38.4
2920.25,38.4
2920.5,38.4449743492305
2920.75,38.489948698461
2921,38.5349230476914
2921.25,38.5798973969219
2921.5,38.6248717461524
2921.75,38.6698460953829
2922,38.7148204446134
2922.25,38.7597947938438
2922.5,38.8047691430743
2922.75,38.8497434923048
2923,38.8947178415353
2923.25,38.9396921907657
2923.5,38.9846665399962
2923.75,39.0296408892267
2924,39.0746152384572
2924.25,39.1195895876877
2924.5,39.1645639369181
2924.75,39.2095382861486
2925,39.2545126353791
2925.25,39.2994869846096
2925.5,39.2407182215466
2925.75,39.1807524225726
2926,39.1207866235986
2926.25,39.0608208246247
2926.5,39.0008550256507
2926.75,38.9408892266767
2927,38.8809234277028
2927.25,38.8209576287288
2927.5,38.7609918297548
2927.75,38.7010260307809
2928,38.6410602318069
2928.25,38.5810944328329
2928.5,38.5211286338589
2928.75,38.461162834885
2929,38.401197035911
2929.25,38.3412312369371
2929.5,38.2812654379632
2929.75,38.2212996389892
2930,38.1613338400152
2930.25,38.1013680410412
2930.5,38.2709101273038
2930.75,38.4458103743112
2931,38.6207106213186
2931.25,38.7956108683261
2931.5,38.9705111153335
2931.75,39.1454113623409
2932,39.3203116093483
2932.25,39.4952118563557
2932.5,39.6701121033631
2932.75,39.8450123503706
2933,40.019912597378
2933.25,40.1948128443854
2933.5,40.3697130913928
2933.75,40.5446133384002
2934,40.7195135854076
2934.25,40.8944138324151
2934.5,41.0693140794225
2934.75,41.2442143264299
2935,41.4191145734373
2935.25,41.5940148204447
2935.5,41.4166064981948
2935.75,41.2267148014439
2936,41.036823104693
2936.25,40.8469314079421
2936.5,40.6570397111912
2936.75,40.4671480144403
2937,40.2772563176894
2937.25,40.0873646209384
2937.5,39.8974729241875
2937.75,39.7075812274366
2938,39.5176895306857
2938.25,39.3277978339348
2938.5,39.1379061371839
2938.75,38.948014440433
2939,38.7581227436821
2939.25,38.5682310469312
2939.5,38.3783393501802
2939.75,38.1884476534293
2940,37.9985559566784
2940.25,37.8086642599279
2940.5,37.83338400152
2940.75,37.8683640509215
2941,37.903344100323
2941.25,37.9383241497245
2941.5,37.973304199126
2941.75,38.0082842485275
2942,38.0432642979289
2942.25,38.0782443473304
2942.5,38.1132243967319
2942.75,38.1482044461334
2943,38.1831844955349
2943.25,38.2181645449364
2943.5,38.2531445943378
2943.75,38.2881246437393
2944,38.3231046931408
2944.25,38.3580847425423
2944.5,38.3930647919438
2944.75,38.4280448413453
2945,38.4630248907467
2945.25,38.4980049401482
2945.5,38.4340300209006
2945.75,38.3640699220976
2946,38.2941098232947
2946.25,38.2241497244917
2946.5,38.1541896256887
2946.75,38.0842295268858
2947,38.0142694280828
2947.25,37.9443093292798
2947.5,37.8743492304769
2947.75,37.8043891316739
2948,37.7344290328709
2948.25,37.664468934068
2948.5,37.594508835265
2948.75,37.524548736462
2949,37.4545886376591
2949.25,37.3846285388561
2949.5,37.3146684400531
2949.75,37.2447083412502
2950,37.1747482424472
2950.25,37.1047881436442
2950.5,37.1139654189626
2950.75,37.1289568687061
2951,37.1439483184496
2951.25,37.158939768193
2951.5,37.1739312179365
2951.75,37.18892266768
2952,37.2039141174235
2952.25,37.218905567167
2952.5,37.2338970169105
2952.75,37.248888466654
2953,37.2638799163975
2953.25,37.278871366141
2953.5,37.2938628158845
2953.75,37.308854265628
2954,37.3238457153715
2954.25,37.338837165115
2954.5,37.3538286148585
2954.75,37.3688200646019
2955,37.3838115143454
2955.25,37.3988029640889
2955.5,37.5287478624359
2955.75,37.6686680600419
2956,37.8085882576478
2956.25,37.9485084552537
2956.5,38.0884286528597
2956.75,38.2283488504656
2957,38.3682690480715
2957.25,38.5081892456775
2957.5,38.6481094432834
2957.75,38.7880296408893
2958,38.9279498384953
2958.25,39.0678700361012
2958.5,39.2077902337071
2958.75,39.3477104313131
2959,39.487630628919
2959.25,39.6275508265249
2959.5,39.7674710241309
2959.75,39.9073912217368
2960,40.0473114193427
2960.25,40.1872316169487
2960.5,40.054683640509
2960.75,39.8947748432451
2961,39.7348660459812
2961.25,39.5749572487173
2961.5,39.4150484514533
2961.75,39.2551396541894
2962,39.0952308569255
2962.25,38.9353220596619
2962.5,38.7754132623979
2962.75,38.615504465134
2963,38.4555956678701
2963.25,38.2956868706062
2963.5,38.1357780733422
2963.75,37.9758692760783
2964,37.8159604788144
2964.25,37.6560516815505
2964.5,37.4961428842865
2964.75,37.3362340870226
2965,37.1763252897587
2965.25,37.0164164924948
2965.5,37.0538096142884
2965.75,37.1137754132624
2966,37.1737412122364
2966.25,37.2337070112104
2966.5,37.2936728101843
2966.75,37.3536386091583
2967,37.4136044081323
2967.25,37.4735702071062
2967.5,37.5335360060802
2967.75,37.5935018050542
2968,37.6534676040282
2968.25,37.7134334030021
2968.5,37.7733992019761
2968.75,37.8333650009501
2969,37.893330799924
2969.25,37.953296598898
2969.5,38.013262397872
2969.75,38.073228196846
2970,38.1331939958199
2970.25,38.1931597947939
2970.5,38.1070302109062
2970.75,38.0020900627018
2971,37.8971499144973
2971.25,37.7922097662929
2971.5,37.6872696180884
2971.75,37.582329469884
2972,37.4773893216795
2972.25,37.3724491734751
2972.5,37.2675090252706
2972.75,37.1625688770662
2973,37.0576287288617
2973.25,36.9526885806573
2973.5,36.847748432453
2973.75,36.7428082842486
2974,36.6378681360441
2974.25,36.5329279878397
2974.5,36.4279878396352
2974.75,36.3230476914308
2975,36.2181075432263
2975.25,36.1131673950219
2975.5,36.5326429792894
2975.75,37.0273608208246
2976,37.5220786623599
2976.25,38.0167965038952
2976.5,38.5115143454304
2976.75,39.0062321869657
2977,39.500950028501
2977.25,39.9956678700362
2977.5,40.4903857115715
2977.75,40.9851035531068
2978,41.479821394642
2978.25,41.9745392361773
2978.5,42.4692570777126
2978.75,42.9639749192478
2979,43.4586927607831
2979.25,43.9534106023184
2979.5,44.4481284438536
2979.75,44.9428462853889
2980,45.4375641269242
2980.25,45.9322819684594
2980.5,45.6420102603075
2980.75,45.2272468174042
2981,44.8124833745009
2981.25,44.3977199315976
2981.5,43.9829564886943
2981.75,43.5681930457909
2982,43.1534296028876
2982.25,42.7386661599843
2982.5,42.323902717081
2982.75,41.9091392741777
2983,41.4943758312744
2983.25,41.0796123883711
2983.5,40.6648489454678
2983.75,40.2500855025645
2984,39.8353220596612
2984.25,39.4205586167579
2984.5,39.0057951738554
2984.75,38.5910317309521
2985,38.1762682880488
2985.25,37.7615048451454
2985.5,37.7680980429413
2985.75,37.8480524415732
2986,37.9280068402052
2986.25,38.0079612388372
2986.5,38.0879156374691
2986.75,38.1678700361011
2987,38.247824434733
2987.25,38.327778833365
2987.5,38.407733231997
2987.75,38.4876876306289
2988,38.5676420292609
2988.25,38.6475964278929
2988.5,38.7275508265248
2988.75,38.8075052251568
2989,38.8874596237887
2989.25,38.9674140224207
2989.5,39.0473684210527
2989.75,39.1273228196846
2990,39.2072772183166
2990.25,39.2872316169486
2990.5,39.1152384571536
2990.75,38.8953638609157
2991,38.6754892646778
2991.25,38.4556146684399
2991.5,38.235740072202
2991.75,38.0158654759641
2992,37.7959908797262
2992.25,37.5761162834883
2992.5,37.3562416872504
2992.75,37.1363670910125
2993,36.9164924947746
2993.25,36.6966178985367
2993.5,36.4767433022988
2993.75,36.2568687060609
2994,36.036994109823
2994.25,35.8171195135851
2994.5,35.5972449173472
2994.75,35.3773703211093
2995,35.1574957248714
2995.25,34.9376211286335
2995.5,35.0449743492304
2995.75,35.2198745962378
2996,35.3947748432453
2996.25,35.5696750902527
2996.5,35.7445753372601
2996.75,35.9194755842675
2997,36.0943758312749
2997.25,36.2692760782823
2997.5,36.4441763252898
2997.75,36.6190765722972
2998,36.7939768193046
2998.25,36.968877066312
2998.5,37.1437773133194
2998.75,37.3186775603268
2999,37.4935778073343
2999.25,37.6684780543417
2999.5,37.8433783013491
2999.75,38.0182785483565
3000,38.1931787953639
3000.25,38.3680790423713
3000.5,38.3182975489264
3000.75,38.2183545506365
3001,38.1184115523465
3001.25,38.0184685540566
3001.5,37.9185255557666
3001.75,37.8185825574767
3002,37.7186395591867
3002.25,37.6186965608968
3002.5,37.5187535626068
3002.75,37.4188105643168
3003,37.3188675660269
3003.25,37.2189245677369
3003.5,37.118981569447
3003.75,37.019038571157
3004,36.9190955728671
3004.25,36.8191525745771
3004.5,36.7192095762872
3004.75,36.6192665779972
3005,36.5193235797073
3005.25,36.4193805814173
3005.5,36.4362530875927
3005.75,36.4812274368232
3006,36.5262017860536
3006.25,36.5711761352841
3006.5,36.6161504845146
3006.75,36.661124833745
3007,36.7060991829755
3007.25,36.751073532206
3007.5,36.7960478814364
3007.75,36.8410222306669
3008,36.8859965798974
3008.25,36.9309709291279
3008.5,36.9759452783583
3008.75,37.0209196275888
3009,37.0658939768193
3009.25,37.1108683260498
3009.5,37.1558426752803
3009.75,37.2008170245107
3010,37.2457913737412
3010.25,37.2907657229717
3010.5,37.3436823104693
3010.75,37.3986509595288
3011,37.4536196085883
3011.25,37.5085882576478
3011.5,37.5635569067072
3011.75,37.6185255557667
3012,37.6734942048262
3012.25,37.7284628538856
3012.5,37.7834315029451
3012.75,37.8384001520046
3013,37.8933688010641
3013.25,37.9483374501235
3013.5,38.003306099183
3013.75,38.0582747482425
3014,38.113243397302
3014.25,38.1682120463614
3014.5,38.2231806954209
3014.75,38.2781493444804
3015,38.3331179935399
3015.25,38.3880866425993
3015.5,38.5095952878588
3015.75,38.6495154854647
3016,38.7894356830707
3016.25,38.9293558806766
3016.5,39.0692760782825
3016.75,39.2091962758885
3017,39.3491164734944
3017.25,39.4890366711003
3017.5,39.6289568687063
3017.75,39.7688770663119
3018,39.9087972639179
3018.25,40.0487174615238
3018.5,40.1886376591297
3018.75,40.3285578567357
3019,40.4684780543416
3019.25,40.6083982519475
3019.5,40.7483184495535
3019.75,40.8882386471594
3020,41.0281588447654
3020.25,41.1680790423713
3020.5,41.1537146114383
3020.75,41.0937488124644
3021,41.0337830134904
3021.25,40.9738172145164
3021.5,40.9138514155425
3021.75,40.8538856165685
3022,40.7939198175945
3022.25,40.7339540186205
3022.5,40.6739882196466
3022.75,40.6140224206726
3023,40.5540566216986
3023.25,40.4940908227247
3023.5,40.4341250237507
3023.75,40.3741592247767
3024,40.3141934258027
3024.25,40.2542276268288
3024.5,40.1942618278548
3024.75,40.1342960288808
3025,40.0743302299068
3025.25,40.0143644309329
3025.5,39.8935968079041
3025.75,39.7536766102982
3026,39.6137564126922
3026.25,39.4738362150863
3026.5,39.3339160174804
3026.75,39.1939958198744
3027,39.0540756222685
3027.25,38.9141554246626
3027.5,38.7742352270566
3027.75,38.6343150294507
3028,38.4943948318448
3028.25,38.3544746342388
3028.5,38.2145544366329
3028.75,38.0746342390272
3029,37.9347140414213
3029.25,37.7947938438154
3029.5,37.6548736462094
3029.75,37.5149534486035
3030,37.3750332509976
3030.25,37.2351130533916
3030.5,37.1775413262398
3030.75,37.1475584267528
3031,37.1175755272658
3031.25,37.0875926277788
3031.5,37.0576097282919
3031.75,37.0276268288049
3032,36.9976439293179
3032.25,36.9676610298309
3032.5,36.9376781303439
3032.75,36.9076952308569
3033,36.8777123313699
3033.25,36.8477294318829
3033.5,36.817746532396
3033.75,36.787763632909
3034,36.757780733422
3034.25,36.727797833935
3034.5,36.697814934448
3034.75,36.667832034961
3035,36.637849135474
3035.25,36.6078662359871
3035.5,36.5963138894167
3035.75,36.5913167395022
3036,36.5863195895877
3036.25,36.5813224396732
3036.5,36.5763252897587
3036.75,36.5713281398442
3037,36.5663309899297
3037.25,36.5613338400152
3037.5,36.5563366901007
3037.75,36.5513395401862
3038,36.5463423902717
3038.25,36.5413452403572
3038.5,36.5363480904427
3038.75,36.5313509405282
3039,36.5263537906137
3039.25,36.5213566406992
3039.5,36.5163594907847
3039.75,36.5113623408702
3040,36.5063651909557
3040.25,36.5013680410412
3040.5,36.5870986129584
3040.75,36.7070302109063
3041,36.8269618088543
3041.25,36.9468934068022
3041.5,37.0668250047501
3041.75,37.1867566026981
3042,37.306688200646
3042.25,37.426619798594
3042.5,37.5465513965419
3042.75,37.6664829944899
3043,37.7864145924378
3043.25,37.9063461903857
3043.5,38.0262777883337
3043.75,38.1462093862816
3044,38.2661409842296
3044.25,38.3860725821775
3044.5,38.5060041801255
3044.75,38.6259357780734
3045,38.7458673760213
3045.25,38.8657989739693
3045.5,38.9714421432644
3045.75,39.0713851415543
3046,39.1713281398443
3046.25,39.2712711381342
3046.5,39.3712141364242
3046.75,39.4711571347141
3047,39.5711001330041
3047.25,39.671043131294
3047.5,39.770986129584
3047.75,39.8709291278739
3048,39.9708721261639
3048.25,40.0708151244538
3048.5,40.1707581227438
3048.75,40.2707011210337
3049,40.3706441193237
3049.25,40.4705871176136
3049.5,40.5705301159036
3049.75,40.6704731141936
3050,40.7704161124835
3050.25,40.8703591107735
3050.5,40.9738172145166
3050.75,41.078757362721
3051,41.1836975109253
3051.25,41.2886376591297
3051.5,41.3935778073342
3051.75,41.4985179555386
3052,41.6034581037431
3052.25,41.7083982519475
3052.5,41.813338400152
3052.75,41.9182785483564
3053,42.0232186965609
3053.25,42.1281588447653
3053.5,42.2330989929698
3053.75,42.3380391411742
3054,42.4429792893787
3054.25,42.5479194375831
3054.5,42.6528595857876
3054.75,42.7577997339921
3055,42.8627398821965
3055.25,42.9676800304009
3055.5,42.9757932737982
3055.75,42.9408132243967
3056,42.9058331749952
3056.25,42.8708531255937
3056.5,42.8358730761923
3056.75,42.8008930267908
3057,42.7659129773893
3057.25,42.7309329279878
3057.5,42.6959528785863
3057.75,42.6609728291849
3058,42.6259927797834
3058.25,42.5910127303819
3058.5,42.5560326809804
3058.75,42.5210526315789
3059,42.4860725821774
3059.25,42.4510925327759
3059.5,42.4161124833745
3059.75,42.381132433973
3060,42.3461523845715
3060.25,42.31117233517
3060.5,42.2115713471403
3060.75,42.0816454493633
3061,41.9517195515864
3061.25,41.8217936538094
3061.5,41.6918677560325
3061.75,41.5619418582556
3062,41.4320159604789
3062.25,41.3020900627019
3062.5,41.172164164925
3062.75,41.042238267148
3063,40.9123123693711
3063.25,40.7823864715942
3063.5,40.6524605738172
3063.75,40.5225346760403
3064,40.3926087782634
3064.25,40.2626828804864
3064.5,40.1327569827095
3064.75,40.0028310849325
3065,39.8729051871556
3065.25,39.7429792893787
3065.5,39.6531825954779
3065.75,39.5832224966749
3066,39.5132623978719
3066.25,39.4433022990689
3066.5,39.373342200266
3066.75,39.303382101463
3067,39.23342200266
3067.25,39.1634619038571
3067.5,39.0935018050541
3067.75,39.0235417062511
3068,38.9535816074482
3068.25,38.8836215086452
3068.5,38.8136614098422
3068.75,38.7437013110393
3069,38.6737412122363
3069.25,38.6037811134333
3069.5,38.5338210146304
3069.75,38.4638609158274
3070,38.3939008170244
3070.25,38.3239407182215
3070.5,38.2309709291278
3070.75,38.1260307809233
3071,38.0210906327189
3071.25,37.9161504845144
3071.5,37.81121033631
3071.75,37.7062701881055
3072,37.6013300399011
3072.25,37.4963898916966
3072.5,37.3914497434922
3072.75,37.2865095952877
3073,37.1815694470834
3073.25,37.076629298879
3073.5,36.9716891506746
3073.75,36.8667490024701
3074,36.7618088542656
3074.25,36.6568687060612
3074.5,36.5519285578567
3074.75,36.4469884096523
3075,36.3420482614479
3075.25,36.2371081132434
3075.5,36.2129203876116
3075.75,36.2329089872696
3076,36.2528975869276
3076.25,36.2728861865856
3076.5,36.2928747862436
3076.75,36.3128633859016
3077,36.3328519855596
3077.25,36.3528405852176
3077.5,36.3728291848756
3077.75,36.3928177845335
3078,36.4128063841915
3078.25,36.4327949838495
3078.5,36.4527835835075
3078.75,36.4727721831655
3079,36.4927607828235
3079.25,36.5127493824815
3079.5,36.5327379821395
3079.75,36.5527265817975
3080,36.5727151814555
3080.25,36.5927037811135
3080.5,36.6253847615429
3080.75,36.6653619608589
3081,36.7053391601748
3081.25,36.7453163594908
3081.5,36.7852935588068
3081.75,36.8252707581228
3082,36.8652479574388
3082.25,36.9052251567548
3082.5,36.9452023560707
3082.75,36.9851795553867
3083,37.0251567547027
3083.25,37.0651339540187
3083.5,37.1051111533347
3083.75,37.1450883526506
3084,37.1850655519665
3084.25,37.2250427512825
3084.5,37.2650199505985
3084.75,37.3049971499145
3085,37.3449743492305
3085.25,37.3849515485464
3085.5,37.4685540566217
3085.75,37.5784913547406
3086,37.6884286528596
3086.25,37.7983659509785
3086.5,37.9083032490975
3086.75,38.0182405472164
3087,38.1281778453354
3087.25,38.2381151434543
3087.5,38.3480524415733
3087.75,38.4579897396922
3088,38.5679270378112
3088.25,38.6778643359301
3088.5,38.7878016340491
3088.75,38.897738932168
3089,39.007676230287
3089.25,39.1176135284059
3089.5,39.2275508265249
3089.75,39.3374881246438
3090,39.4474254227628
3090.25,39.5573627208817
3090.5,39.5663499904997
3090.75,39.5113813414402
3091,39.4564126923807
3091.25,39.4014440433213
3091.5,39.3464753942618
3091.75,39.2915067452023
3092,39.2365380961428
3092.25,39.1815694470834
3092.5,39.1266007980239
3092.75,39.0716321489644
3093,39.0166634999049
3093.25,38.9616948508455
3093.5,38.906726201786
3093.75,38.8517575527265
3094,38.796788903667
3094.25,38.7418202546076
3094.5,38.6868516055481
3094.75,38.6318829564886
3095,38.5769143074291
3095.25,38.5219456583698
3095.5,38.5510355310659
3095.75,38.6359870796124
3096,38.7209386281588
3096.25,38.8058901767053
3096.5,38.8908417252517
3096.75,38.9757932737982
3097,39.0607448223447
3097.25,39.1456963708911
3097.5,39.2306479194376
3097.75,39.3155994679841
3098,39.4005510165305
3098.25,39.485502565077
3098.5,39.5704541136234
3098.75,39.6554056621699
3099,39.7403572107163
3099.25,39.8253087592628
3099.5,39.9102603078093
3099.75,39.9952118563557
3100,40.0801634049022
3100.25,40.1651149534487
3100.5,40.2618468554057
3100.75,40.3667870036102
3101,40.4717271518146
3101.25,40.5766673000191
3101.5,40.6816074482235
3101.75,40.786547596428
3102,40.8914877446324
3102.25,40.9964278928369
3102.5,41.1013680410413
3102.75,41.2063081892458
3103,41.3112483374502
3103.25,41.4161884856547
3103.5,41.5211286338591
3103.75,41.6260687820636
3104,41.731008930268
3104.25,41.8359490784725
3104.5,41.9408892266769
3104.75,42.0458293748814
3105,42.1507695230858
3105.25,42.2557096712903
3105.5,42.4039711191338
3105.75,42.5838685160557
3106,42.7637659129776
3106.25,42.9436633098992
3106.5,43.1235607068212
3106.75,43.3034581037431
3107,43.483355500665
3107.25,43.6632528975869
3107.5,43.8431502945088
3107.75,44.0230476914307
3108,44.2029450883526
3108.25,44.3828424852746
3108.5,44.5627398821965
3108.75,44.7426372791184
3109,44.9225346760403
3109.25,45.1024320729622
3109.5,45.2823294698841
3109.75,45.462226866806
3110,45.642124263728
3110.25,45.8220216606499
3110.5,45.8518715561466
3110.75,45.7669200076002
3111,45.6819684590537
3111.25,45.5970169105073
3111.5,45.5120653619608
3111.75,45.4271138134144
3112,45.3421622648679
3112.25,45.2572107163214
3112.5,45.172259167775
3112.75,45.0873076192285
3113,45.0023560706821
3113.25,44.9174045221356
3113.5,44.8324529735891
3113.75,44.7475014250427
3114,44.6625498764962
3114.25,44.5775983279498
3114.5,44.4926467794033
3114.75,44.4076952308568
3115,44.3227436823104
3115.25,44.2377921337639
3115.5,44.0058141744248
3115.75,43.65601368041
3116,43.3062131863951
3116.25,42.9564126923803
3116.5,42.6066121983655
3116.75,42.2568117043506
3117,41.9070112103358
3117.25,41.5572107163216
3117.5,41.2074102223068
3117.75,40.8576097282919
3118,40.5078092342771
3118.25,40.1580087402623
3118.5,39.8082082462474
3118.75,39.4584077522326
3119,39.1086072582178
3119.25,38.7588067642029
3119.5,38.4090062701881
3119.75,38.0592057761733
3120,37.7094052821584
3120.25,37.3596047881436
3120.5,37.1375071252137
3120.75,37.0225726771803
3121,36.9076382291468
3121.25,36.7927037811134
3121.5,36.67776933308
3121.75,36.5628348850465
3122,36.4479004370131
3122.25,36.3329659889796
3122.5,36.2180315409462
3122.75,36.1030970929127
3123,35.9881626448793
3123.25,35.8732281968458
3123.5,35.7582937488124
3123.75,35.6433593007789
3124,35.5284248527455
3124.25,35.4134904047121
3124.5,35.2985559566786
3124.75,35.1836215086452
3125,35.0686870606117
3125.25,34.9537526125783
3125.5,34.8574387231616
3125.75,34.7774843245297
3126,34.6975299258977
3126.25,34.6175755272657
3126.5,34.5376211286338
3126.75,34.4576667300018
3127,34.3777123313698
3127.25,34.2977579327379
3127.5,34.2178035341059
3127.75,34.137849135474
3128,34.057894736842
3128.25,33.97794033821
3128.5,33.8979859395782
3128.75,33.8180315409462
3129,33.7380771423143
3129.25,33.6581227436823
3129.5,33.5781683450504
3129.75,33.4982139464184
3130,33.4182595477864
3130.25,33.3383051491545
3130.5,33.2947938438153
3130.75,33.2847995439863
3131,33.2748052441573
3131.25,33.2648109443283
3131.5,33.2548166444993
3131.75,33.2448223446703
3132,33.2348280448413
3132.25,33.2248337450123
3132.5,33.2148394451834
3132.75,33.2048451453544
3133,33.1948508455254
3133.25,33.1848565456964
3133.5,33.1748622458674
3133.75,33.1648679460384
3134,33.1548736462094
3134.25,33.1448793463804
3134.5,33.1348850465514
3134.75,33.1248907467224
3135,33.1148964468934
3135.25,33.1049021470644
3135.5,33.1636519095574
3135.75,33.2885806574198
3136,33.4135094052823
3136.25,33.5384381531447
3136.5,33.6633669010072
3136.75,33.7882956488696
3137,33.913224396732
3137.25,34.0381531445945
3137.5,34.1630818924569
3137.75,34.2880106403194
3138,34.4129393881818
3138.25,34.5378681360442
3138.5,34.6627968839067
3138.75,34.7877256317691
3139,34.9126543796316
3139.25,35.037583127494
3139.5,35.1625118753562
3139.75,35.2874406232187
3140,35.4123693710811
3140.25,35.5372981189435
3140.5,35.6373361200836
3140.75,35.7122933688011
3141,35.7872506175185
3141.25,35.862207866236
3141.5,35.9371651149535
3141.75,36.0121223636709
3142,36.0870796123884
3142.25,36.1620368611058
3142.5,36.2369941098233
3142.75,36.3119513585408
3143,36.3869086072582
3143.25,36.4618658559757
3143.5,36.5368231046932
3143.75,36.6117803534106
3144,36.6867376021281
3144.25,36.7616948508456
3144.5,36.836652099563
3144.75,36.9116093482805
3145,36.986566596998
3145.25,37.0615238457154
3145.5,37.0708151244537
3145.75,37.0108493254797
3146,36.9508835265057
3146.25,36.8909177275318
3146.5,36.8309519285578
3146.75,36.7709861295838
3147,36.7110203306099
3147.25,36.6510545316359
3147.5,36.5910887326619
3147.75,36.5311229336879
3148,36.471157134714
3148.25,36.41119133574
3148.5,36.351225536766
3148.75,36.2912597377921
3149,36.2312939388181
3149.25,36.1713281398441
3149.5,36.1113623408701
3149.75,36.0513965418962
3150,35.9914307429222
3150.25,35.9314649439482
3150.5,35.8714991449744
3150.75,35.8115333460004
3151,35.7515675470264
3151.25,35.6916017480525
3151.5,35.6316359490785
3151.75,35.5716701501045
3152,35.5117043511305
3152.25,35.4517385521566
3152.5,35.3917727531826
3152.75,35.3318069542086
3153,35.2718411552347
3153.25,35.2118753562607
3153.5,35.1519095572867
3153.75,35.0919437583127
3154,35.0319779593388
3154.25,34.9720121603648
3154.5,34.9120463613908
3154.75,34.8520805624169
3155,34.7921147634429
3155.25,34.7321489644689
3155.5,34.6814554436633
3155.75,34.6414782443473
3156,34.6015010450313
3156.25,34.5615238457154
3156.5,34.5215466463994
3156.75,34.4815694470834
3157,34.4415922477674
3157.25,34.4016150484514
3157.5,34.3616378491354
3157.75,34.3216606498195
3158,34.2816834505035
3158.25,34.2417062511875
3158.5,34.2017290518715
3158.75,34.1617518525555
3159,34.1217746532396
3159.25,34.0817974539236
3159.5,34.0418202546076
3159.75,34.0018430552916
3160,33.9618658559756
3160.25,33.9218886566596
3160.5,33.902261067832
3160.75,33.9072582177465
3161,33.912255367661
3161.25,33.9172525175755
3161.5,33.92224966749
3161.75,33.9272468174045
3162,33.932243967319
3162.25,33.9372411172335
3162.5,33.942238267148
3162.75,33.9472354170625
3163,33.952232566977
3163.25,33.9572297168915
3163.5,33.962226866806
3163.75,33.9672240167205
3164,33.972221166635
3164.25,33.9772183165495
3164.5,33.982215466464
3164.75,33.9872126163785
3165,33.992209766293
3165.25,33.9972069162075
3165.5,34.004408132244
3165.75,34.014402432073
3166,34.024396731902
3166.25,34.034391031731
3166.5,34.04438533156
3166.75,34.0543796313889
3167,34.0643739312179
3167.25,34.0743682310469
3167.5,34.0843625308759
3167.75,34.0943568307049
3168,34.1043511305339
3168.25,34.1143454303629
3168.5,34.1243397301919
3168.75,34.1343340300209
3169,34.1443283298499
3169.25,34.1543226296789
3169.5,34.1643169295079
3169.75,34.1743112293369
3170,34.1843055291659
3170.25,34.1942998289949
3170.5,34.1828234847045
3170.75,34.1428462853885
3171,34.1028690860725
3171.25,34.0628918867566
3171.5,34.0229146874406
3171.75,33.9829374881246
3172,33.9429602888086
3172.25,33.9029830894926
3172.5,33.8630058901766
3172.75,33.8230286908607
3173,33.7830514915448
3173.25,33.7430742922288
3173.5,33.7030970929128
3173.75,33.6631198935968
3174,33.6231426942808
3174.25,33.5831654949649
3174.5,33.5431882956489
3174.75,33.5032110963329
3175,33.4632338970169
3175.25,33.4232566977009
3175.5,33.4585217556527
3175.75,33.5984419532586
3176,33.7383621508646
3176.25,33.8782823484705
3176.5,34.0182025460764
3176.75,34.1581227436824
3177,34.2980429412883
3177.25,34.4379631388942
3177.5,34.5778833365002
3177.75,34.7178035341061
3178,34.857723731712
3178.25,34.997643929318
3178.5,35.1375641269239
3178.75,35.2774843245298
3179,35.4174045221358
3179.25,35.5573247197417
3179.5,35.6972449173476
3179.75,35.8371651149536
3180,35.9770853125595
3180.25,36.1170055101654
3180.5,36.1857685730572
3180.75,36.1507885236557
3181,36.1158084742542
3181.25,36.0808284248527
3181.5,36.0458483754512
3181.75,36.0108683260497
3182,35.9758882766483
3182.25,35.9409082272468
3182.5,35.9059281778453
3182.75,35.8709481284438
3183,35.8359680790423
3183.25,35.8009880296408
3183.5,35.7660079802394
3183.75,35.7310279308379
3184,35.6960478814365
3184.25,35.661067832035
3184.5,35.6260877826335
3184.75,35.591107733232
3185,35.5561276838305
3185.25,35.521147634429
3185.5,35.5513775413262
3185.75,35.6813034391032
3186,35.8112293368801
3186.25,35.9411552346571
3186.5,36.071081132434
3186.75,36.2010070302109
3187,36.3309329279879
3187.25,36.4608588257648
3187.5,36.5907847235417
3187.75,36.7207106213187
3188,36.8506365190956
3188.25,36.9805624168726
3188.5,37.1104883146495
3188.75,37.2404142124264
3189,37.3703401102034
3189.25,37.5002660079803
3189.5,37.6301919057573
3189.75,37.7601178035342
3190,37.8900437013111
3190.25,38.0199695990881
3190.5,38.0923237697131
3190.75,38.0723351700551
3191,38.0523465703971
3191.25,38.0323579707391
3191.5,38.0123693710811
3191.75,37.9923807714231
3192,37.9723921717651
3192.25,37.9524035721071
3192.5,37.9324149724492
3192.75,37.9124263727912
3193,37.8924377731332
3193.25,37.8724491734752
3193.5,37.8524605738172
3193.75,37.8324719741592
3194,37.8124833745012
3194.25,37.7924947748432
3194.5,37.7725061751852
3194.75,37.7525175755273
3195,37.7325289758693
3195.25,37.7125403762113
3195.5,37.7260687820635
3195.75,37.7960288808664
3196,37.8659889796694
3196.25,37.9359490784724
3196.5,38.0059091772753
3196.75,38.0758692760783
3197,38.1458293748813
3197.25,38.2157894736842
3197.5,38.2857495724872
3197.75,38.3557096712902
3198,38.4256697700931
3198.25,38.4956298688961
3198.5,38.5655899676991
3198.75,38.635550066502
3199,38.705510165305
3199.25,38.775470264108
3199.5,38.8454303629109
3199.75,38.9153904617139
3200,38.9853505605169
3200.25,39.0553106593198
3200.5,39.1469314079423
3200.75,39.2768573057193
3201,39.4067832034962
3201.25,39.5367091012731
3201.5,39.6666349990501
3201.75,39.796560896827
3202,39.926486794604
3202.25,40.0564126923809
3202.5,40.1863385901578
3202.75,40.3162644879348
3203,40.4461903857117
3203.25,40.5761162834886
3203.5,40.7060421812656
3203.75,40.8359680790425
3204,40.9658939768195
3204.25,41.0958198745964
3204.5,41.2257457723733
3204.75,41.3556716701503
3205,41.4855975679272
3205.25,41.6155234657042
3205.5,41.720976629299
3205.75,41.7809424282729
3206,41.8409082272468
3206.25,41.9008740262208
3206.5,41.9608398251947
3206.75,42.0208056241687
3207,42.0807714231427
3207.25,42.1407372221167
3207.5,42.2007030210906
3207.75,42.2606688200646
3208,42.3206346190386
3208.25,42.3806004180125
3208.5,42.4405662169865
3208.75,42.5005320159605
3209,42.5604978149345
3209.25,42.6204636139084
3209.5,42.6804294128824
3209.75,42.7403952118564
3210,42.8003610108303
3210.25,42.8603268098043
3210.5,42.8780163404902
3210.75,42.8130533916017
3211,42.7480904427132
3211.25,42.6831274938248
3211.5,42.6181645449363
3211.75,42.5532015960478
3212,42.4882386471594
3212.25,42.4232756982709
3212.5,42.3583127493824
3212.75,42.293349800494
3213,42.2283868516055
3213.25,42.163423902717
3213.5,42.0984609538286
3213.75,42.0334980049401
3214,41.9685350560516
3214.25,41.9035721071631
3214.5,41.8386091582747
3214.75,41.7736462093862
3215,41.7086832604977
3215.25,41.6437203116093
3215.5,41.5019570587114
3215.75,41.2021280638415
3216,40.9022990689717
3216.25,40.6024700741018
3216.5,40.3026410792319
3216.75,40.0028120843621
3217,39.7029830894928
3217.25,39.4031540946229
3217.5,39.1033250997531
3217.75,38.8034961048832
3218,38.5036671100133
3218.25,38.2038381151435
3218.5,37.9040091202736
3218.75,37.6041801254038
3219,37.3043511305339
3219.25,37.004522135664
3219.5,36.7046931407942
3219.75,36.4048641459243
3220,36.1050351510545
3220.25,35.8052061561846
3220.5,35.5968459053772
3220.75,35.5868516055482
3221,35.5768573057192
3221.25,35.5668630058902
3221.5,35.5568687060612
3221.75,35.5468744062322
3222,35.5368801064032
3222.25,35.5268858065742
3222.5,35.5168915067452
3222.75,35.5068972069162
3223,35.4969029070872
3223.25,35.4869086072582
3223.5,35.4769143074292
3223.75,35.4669200076002
3224,35.4569257077712
3224.25,35.4469314079422
3224.5,35.4369371081132
3224.75,35.4269428082842
3225,35.4169485084552
3225.25,35.4069542086262
3225.5,35.4015200456014
3225.75,35.4065171955159
3226,35.4115143454304
3226.25,35.4165114953449
3226.5,35.4215086452594
3226.75,35.4265057951739
3227,35.4315029450884
3227.25,35.4365000950029
3227.5,35.4414972449174
3227.75,35.4464943948319
3228,35.4514915447463
3228.25,35.4564886946608
3228.5,35.4614858445753
3228.75,35.4664829944898
3229,35.4714801444043
3229.25,35.4764772943188
3229.5,35.4814744442333
3229.75,35.4864715941478
3230,35.4914687440623
3230.25,35.4964658939768
3230.5,35.527797833935
3230.75,35.6227436823105
3231,35.7176895306859
3231.25,35.8126353790614
3231.5,35.9075812274369
3231.75,36.0025270758123
3232,36.0974729241878
3232.25,36.1924187725632
3232.5,36.2873646209387
3232.75,36.3823104693141
3233,36.4772563176896
3233.25,36.572202166065
3233.5,36.6671480144405
3233.75,36.7620938628159
3234,36.8570397111914
3234.25,36.9519855595669
3234.5,37.0469314079423
3234.75,37.1418772563178
3235,37.2368231046932
3235.25,37.3317689530687
3235.5,37.4056241687251
3235.75,37.4256127683831
3236,37.4456013680411
3236.25,37.4655899676991
3236.5,37.485578567357
3236.75,37.505567167015
3237,37.525555766673
3237.25,37.545544366331
3237.5,37.565532965989
3237.75,37.585521565647
3238,37.605510165305
3238.25,37.625498764963
3238.5,37.645487364621
3238.75,37.665475964279
3239,37.6854645639369
3239.25,37.7054531635949
3239.5,37.7254417632529
3239.75,37.7454303629109
3240,37.7654189625689
3240.25,37.7854075622269
3240.5,37.7892076762303
3240.75,37.7492304769143
3241,37.7092532775983
3241.25,37.6692760782823
3241.5,37.6292988789664
3241.75,37.5893216796504
3242,37.5493444803344
3242.25,37.5093672810184
3242.5,37.4693900817024
3242.75,37.4294128823865
3243,37.3894356830705
3243.25,37.3494584837545
3243.5,37.3094812844385
3243.75,37.2695040851225
3244,37.2295268858066
3244.25,37.1895496864906
3244.5,37.1495724871746
3244.75,37.1095952878586
3245,37.0696180885426
3245.25,37.0296408892266
3245.5,36.9715751472543
3245.75,36.8616378491354
3246,36.7517005510164
3246.25,36.6417632528975
3246.5,36.5318259547785
3246.75,36.4218886566596
3247,36.3119513585406
3247.25,36.2020140604217
3247.5,36.0920767623027
3247.75,35.9821394641838
3248,35.8722021660649
3248.25,35.7622648679459
3248.5,35.652327569827
3248.75,35.542390271708
3249,35.4324529735891
3249.25,35.3225156754701
3249.5,35.2125783773512
3249.75,35.1026410792322
3250,34.9927037811133
3250.25,34.8827664829945
3250.5,34.78888466654
3250.75,34.7439103173095
3251,34.698935968079
3251.25,34.6539616188486
3251.5,34.6089872696181
3251.75,34.5640129203876
3252,34.5190385711571
3252.25,34.4740642219267
3252.5,34.4290898726962
3252.75,34.3841155234657
3253,34.3391411742352
3253.25,34.2941668250047
3253.5,34.2491924757743
3253.75,34.2042181265438
3254,34.1592437773133
3254.25,34.1142694280828
3254.5,34.0692950788523
3254.75,34.0243207296219
3255,33.9793463803914
3255.25,33.9343720311609
3255.5,33.9200266007981
3255.75,34.0049781493445
3256,34.089929697891
3256.25,34.1748812464375
3256.5,34.2598327949839
3256.75,34.3447843435304
3257,34.4297358920768
3257.25,34.5146874406233
3257.5,34.5996389891698
3257.75,34.6845905377162
3258,34.7695420862627
3258.25,34.8544936348091
3258.5,34.9394451833556
3258.75,35.0243967319021
3259,35.1093482804485
3259.25,35.194299828995
3259.5,35.2792513775414
3259.75,35.3642029260879
3260,35.4491544746344
3260.25,35.5341060231808
3260.5,35.6078472354171
3260.75,35.6428272848186
3261,35.6778073342201
3261.25,35.7127873836215
3261.5,35.747767433023
3261.75,35.7827474824245
3262,35.817727531826
3262.25,35.8527075812274
3262.5,35.8876876306289
3262.75,35.9226676800304
3263,35.9576477294319
3263.25,35.9926277788334
3263.5,36.0276078282348
3263.75,36.0625878776363
3264,36.0975679270378
3264.25,36.1325479764393
3264.5,36.1675280258408
3264.75,36.2025080752423
3265,36.2374881246437
3265.25,36.2724681740452
3265.5,36.2808474254227
3265.75,36.1908987269618
3266,36.1009500285008
3266.25,36.0110013300399
3266.5,35.9210526315789
3266.75,35.8311039331179
3267,35.741155234657
3267.25,35.651206536196
3267.5,35.5612578377351
3267.75,35.4713091392741
3268,35.3813604408131
3268.25,35.2914117423522
3268.5,35.2014630438912
3268.75,35.1115143454303
3269,35.0215656469693
3269.25,34.9316169485084
3269.5,34.8416682500474
3269.75,34.7517195515864
3270,34.6617708531255
3270.25,34.5718221546645
3270.5,34.4989929697891
3270.75,34.4939958198746
3271,34.4889986699601
3271.25,34.4840015200456
3271.5,34.4790043701311
3271.75,34.4740072202166
3272,34.4690100703021
3272.25,34.4640129203876
3272.5,34.4590157704731
3272.75,34.4540186205586
3273,34.4490214706441
3273.25,34.4440243207296
3273.5,34.4390271708151
3273.75,34.4340300209006
3274,34.4290328709861
3274.25,34.4240357210716
3274.5,34.4190385711571
3274.75,34.4140414212426
3275,34.4090442713281
3275.25,34.4040471214136
3275.5,34.3971499144974
3275.75,34.3821584647539
3276,34.3671670150104
3276.25,34.352175565267
3276.5,34.3371841155235
3276.75,34.32219266578
3277,34.3072012160365
3277.25,34.292209766293
3277.5,34.2772183165495
3277.75,34.262226866806
3278,34.2472354170625
3278.25,34.232243967319
3278.5,34.2172525175755
3278.75,34.202261067832
3279,34.1872696180885
3279.25,34.172278168345
3279.5,34.1572867186015
3279.75,34.142295268858
3280,34.1273038191146
3280.25,34.1123123693711
3280.5,34.1062511875357
3280.75,34.1412312369371
3281,34.1762112863386
3281.25,34.2111913357401
3281.5,34.2461713851416
3281.75,34.2811514345431
3282,34.3161314839446
3282.25,34.351111533346
3282.5,34.3860915827475
3282.75,34.421071632149
3283,34.4560516815505
3283.25,34.491031730952
3283.5,34.5260117803534
3283.75,34.5609918297549
3284,34.5959718791564
3284.25,34.6309519285578
3284.5,34.6659319779593
3284.75,34.7009120273608
3285,34.7358920767623
3285.25,34.7708721261638
3285.5,34.8158844765343
3285.75,34.9108303249098
3286,35.0057761732852
3286.25,35.1007220216607
3286.5,35.1956678700361
3286.75,35.2906137184116
3287,35.385559566787
3287.25,35.4805054151625
3287.5,35.5754512635379
3287.75,35.6703971119134
3288,35.7653429602889
3288.25,35.8602888086643
3288.5,35.9552346570398
3288.75,36.0501805054152
3289,36.1451263537907
3289.25,36.2400722021661
3289.5,36.3350180505416
3289.75,36.429963898917
3290,36.5249097472925
3290.25,36.619855595668
3290.5,36.6898726961808
3290.75,36.6249097472924
3291,36.5599467984039
3291.25,36.4949838495154
3291.5,36.430020900627
3291.75,36.3650579517385
3292,36.30009500285
3292.25,36.2351320539615
3292.5,36.1701691050731
3292.75,36.1052061561846
3293,36.0402432072961
3293.25,35.9752802584077
3293.5,35.9103173095192
3293.75,35.8453543606307
3294,35.7803914117423
3294.25,35.7154284628538
3294.5,35.6504655139654
3294.75,35.585502565077
3295,35.5205396161885
3295.25,35.4555766673
3295.5,35.4093862815884
3295.75,35.4743492304769
3296,35.5393121793654
3296.25,35.6042751282538
3296.5,35.6692380771423
3296.75,35.7342010260308
3297,35.7991639749193
3297.25,35.8641269238077
3297.5,35.9290898726962
3297.75,35.9940528215847
3298,36.0590157704731
3298.25,36.1239787193616
3298.5,36.1889416682501
3298.75,36.2539046171385
3299,36.318867566027
3299.25,36.3838305149155
3299.5,36.448793463804
3299.75,36.5137564126924
3300,36.5787193615809
3300.25,36.6436823104694
3300.5,36.7006650199506
3300.75,36.7056621698651
3301,36.7106593197796
3301.25,36.7156564696941
3301.5,36.7206536196086
3301.75,36.7256507695231
3302,36.7306479194376
3302.25,36.7356450693521
3302.5,36.7406422192666
3302.75,36.7456393691811
3303,36.7506365190956
3303.25,36.7556336690101
3303.5,36.7606308189246
3303.75,36.7656279688391
3304,36.7706251187536
3304.25,36.7756222686681
3304.5,36.7806194185826
3304.75,36.7856165684971
3305,36.7906137184116
3305.25,36.7956108683261
3305.5,36.8036481094433
3305.75,36.8336310089303
3306,36.8636139084172
3306.25,36.8935968079042
3306.5,36.9235797073912
3306.75,36.9535626068782
3307,36.9835455063652
3307.25,37.0135284058522
3307.5,37.0435113053392
3307.75,37.0734942048261
3308,37.1034771043131
3308.25,37.1334600038001
3308.5,37.1634429032871
3308.75,37.1934258027741
3309,37.2234087022611
3309.25,37.2533916017481
3309.5,37.283374501235
3309.75,37.313357400722
3310,37.343340300209
3310.25,37.373323199696
3310.5,37.3950408512255
3310.75,37.350066501995
3311,37.3050921527646
3311.25,37.2601178035341
3311.5,37.2151434543036
3311.75,37.1701691050731
3312,37.1251947558426
3312.25,37.0802204066122
3312.5,37.0352460573817
3312.75,36.9902717081512
3313,36.9452973589207
3313.25,36.9003230096902
3313.5,36.8553486604598
3313.75,36.8103743112293
3314,36.7653999619988
3314.25,36.7204256127683
3314.5,36.6754512635379
3314.75,36.6304769143074
3315,36.5855025650769
3315.25,36.5405282158464
3315.5,36.4881436443092
3315.75,36.3682120463612
3316,36.2482804484133
3316.25,36.1283488504653
3316.5,36.0084172525176
3316.75,35.8884856545697
3317,35.7685540566217
3317.25,35.6486224586738
3317.5,35.5286908607258
3317.75,35.4087592627779
3318,35.28882766483
3318.25,35.168896066882
3318.5,35.0489644689341
3318.75,34.9290328709861
3319,34.8091012730382
3319.25,34.6891696750902
3319.5,34.5692380771423
3319.75,34.4493064791943
3320,34.3293748812464
3320.25,34.2094432832985
3320.5,34.1039331179936
3320.75,34.148907467224
3321,34.1938818164545
3321.25,34.238856165685
3321.5,34.2838305149155
3321.75,34.328804864146
3322,34.3737792133764
3322.25,34.4187535626069
3322.5,34.4637279118374
3322.75,34.5087022610679
3323,34.5536766102983
3323.25,34.5986509595288
3323.5,34.6436253087593
3323.75,34.6885996579898
3324,34.7335740072203
3324.25,34.7785483564507
3324.5,34.8235227056812
3324.75,34.8684970549117
3325,34.9134714041422
3325.25,34.9584457533727
3325.5,35.0022800684021
3325.75,35.0322629678891
3326,35.0622458673761
3326.25,35.092228766863
3326.5,35.12221166635
3326.75,35.152194565837
3327,35.182177465324
3327.25,35.212160364811
3327.5,35.242143264298
3327.75,35.2721261637849
3328,35.3021090632719
3328.25,35.3320919627589
3328.5,35.3620748622459
3328.75,35.3920577617329
3329,35.4220406612198
3329.25,35.4520235607068
3329.5,35.4820064601938
3329.75,35.5119893596808
3330,35.5419722591678
3330.25,35.5719551586548
3330.5,35.6016150484515
3330.75,35.626600798024
3331,35.6515865475964
3331.25,35.6765722971689
3331.5,35.7015580467414
3331.75,35.7265437963139
3332,35.7515295458864
3332.25,35.7765152954589
3332.5,35.8015010450314
3332.75,35.8264867946039
3333,35.8514725441763
3333.25,35.8764582937488
3333.5,35.9014440433213
3333.75,35.9264297928938
3334,35.9514155424663
3334.25,35.9764012920388
3334.5,36.0013870416113
3334.75,36.0263727911838
3335,36.0513585407562
3335.25,36.0763442903287
3335.5,36.1005320159605
3335.75,36.1105263157895
3336,36.1205206156185
3336.25,36.1305149154475
3336.5,36.1405092152765
3336.75,36.1505035151055
3337,36.1604978149345
3337.25,36.1704921147635
3337.5,36.1804864145925
3337.75,36.1904807144214
3338,36.2004750142504
3338.25,36.2104693140794
3338.5,36.2204636139084
3338.75,36.2304579137374
3339,36.2404522135664
3339.25,36.2504465133954
3339.5,36.2604408132244
3339.75,36.2704351130534
3340,36.2804294128824
3340.25,36.2904237127114
3340.5,36.2951928557857
3340.75,36.1802584077522
3341,36.0653239597188
3341.25,35.9503895116853
3341.5,35.8354550636519
3341.75,35.7205206156184
3342,35.605586167585
3342.25,35.4906517195516
3342.5,35.3757172715181
3342.75,35.2607828234847
3343,35.1458483754512
3343.25,35.0309139274178
3343.5,34.9159794793843
3343.75,34.8010450313509
3344,34.6861105833174
3344.25,34.571176135284
3344.5,34.4562416872505
3344.75,34.3413072392171
3345,34.2263727911837
3345.25,34.1114383431502
3345.5,34.0015200456014
3345.75,34.0514915447464
3346,34.1014630438914
3346.25,34.1514345430363
3346.5,34.2014060421813
3346.75,34.2513775413263
3347,34.3013490404713
3347.25,34.3513205396162
3347.5,34.4012920387612
3347.75,34.4512635379062
3348,34.5012350370512
3348.25,34.5512065361961
3348.5,34.6011780353411
3348.75,34.6511495344861
3349,34.7011210336311
3349.25,34.7510925327761
3349.5,34.801064031921
3349.75,34.8510355310659
3350,34.9010070302109
3350.25,34.9509785293559
3350.5,34.9984799543986
3350.75,34.9185255557667
3351,34.8385711571347
3351.25,34.7586167585028
3351.5,34.6786623598708
3351.75,34.5987079612388
3352,34.5187535626069
3352.25,34.4387991639749
3352.5,34.3588447653429
3352.75,34.278890366711
3353,34.198935968079
3353.25,34.1189815694471
3353.5,34.0390271708151
3353.75,33.9590727721831
3354,33.8791183735512
3354.25,33.7991639749192
3354.5,33.7192095762872
3354.75,33.6392551776553
3355,33.5593007790233
3355.25,33.4793463803914
3355.5,33.4005320159605
3355.75,33.4704921147635
3356,33.5404522135665
3356.25,33.6104123123694
3356.5,33.6803724111724
3356.75,33.7503325099754
3357,33.8202926087783
3357.25,33.8902527075813
3357.5,33.9602128063843
3357.75,34.0301729051872
3358,34.1001330039902
3358.25,34.1700931027932
3358.5,34.2400532015961
3358.75,34.3100133003991
3359,34.3799733992021
3359.25,34.449933498005
3359.5,34.519893596808
3359.75,34.589853695611
3360,34.6598137944139
3360.25,34.7297738932169
3360.5,34.7997339920199
3360.75,34.7352840585218
3361,34.6703211096333
3361.25,34.6053581607448
3361.5,34.5403952118564
3361.75,34.4754322629679
3362,34.4104693140794
3362.25,34.345506365191
3362.5,34.2805434163025
3362.75,34.215580467414
3363,34.1506175185256
3363.25,34.0856545696371
3363.5,34.0206916207486
3363.75,33.9557286718601
3364,33.8907657229717
3364.25,33.8258027740832
3364.5,33.7608398251947
3364.75,33.6958768763063
3365,33.6309139274178
3365.25,33.5659509785293
3365.5,33.5009880296409
3365.75,33.5639749192476
3366,33.6289378681361
3366.25,33.6939008170245
3366.5,33.758863765913
3366.75,33.8238267148015
3367,33.88878966369
3367.25,33.9537526125784
3367.5,34.0187155614669
3367.75,34.0836785103554
3368,34.1486414592438
3368.25,34.2136044081323
3368.5,34.2785673570208
3368.75,34.3435303059092
3369,34.4084932547977
3369.25,34.4734562036862
3369.5,34.5384191525746
3369.75,34.6033821014631
3370,34.6683450503516
3370.25,34.7333079992401
3370.5,34.7982709481285
3370.75,34.7854075622268
3371,34.7704161124834
3371.25,34.7554246627399
3371.5,34.7404332129964
3371.75,34.7254417632529
3372,34.7104503135094
3372.25,34.6954588637659
3372.5,34.6804674140224
3372.75,34.6654759642789
3373,34.6504845145354
3373.25,34.6354930647919
3373.5,34.6205016150485
3373.75,34.605510165305
3374,34.5905187155615
3374.25,34.575527265818
3374.5,34.5605358160745
3374.75,34.545544366331
3375,34.5305529165875
3375.25,34.515561466844
3375.5,34.5005700171005
3375.75,34.543264297929
3376,34.5882386471594
3376.25,34.6332129963899
3376.5,34.6781873456204
3376.75,34.7231616948509
3377,34.7681360440813
3377.25,34.8131103933118
3377.5,34.8580847425423
3377.75,34.9030590917728
3378,34.9480334410033
3378.25,34.9930077902337
3378.5,35.0379821394642
3378.75,35.0829564886947
3379,35.1279308379252
3379.25,35.1729051871557
3379.5,35.2178795363861
3379.75,35.2628538856166
3380,35.3078282348471
3380.25,35.3528025840776
3380.5,35.3977769333081
3380.75,35.4142504275128
3381,35.4292418772563
3381.25,35.4442333269998
3381.5,35.4592247767433
3381.75,35.4742162264868
3382,35.4892076762303
3382.25,35.5041991259738
3382.5,35.5191905757173
3382.75,35.5341820254608
3383,35.5491734752043
3383.25,35.5641649249477
3383.5,35.5791563746912
3383.75,35.5941478244347
3384,35.6091392741782
3384.25,35.6241307239217
3384.5,35.6391221736652
3384.75,35.6541136234087
3385,35.6691050731522
3385.25,35.6840965228957
3385.5,35.6990879726392
3385.75,35.615523465704
3386,35.525574767243
3386.25,35.435626068782
3386.5,35.3456773703211
3386.75,35.2557286718601
3387,35.1657799733992
3387.25,35.0758312749382
3387.5,34.9858825764773
3387.75,34.8959338780163
3388,34.8059851795553
3388.25,34.7160364810944
3388.5,34.6260877826334
3388.75,34.5361390841725
3389,34.4461903857115
3389.25,34.3562416872506
3389.5,34.2662929887896
3389.75,34.1763442903286
3390,34.0863955918677
3390.25,33.9964468934067
3390.5,33.9064981949458
3390.75,33.9092722781684
3391,33.9192665779973
3391.25,33.9292608778263
3391.5,33.9392551776553
3391.75,33.9492494774843
3392,33.9592437773133
3392.25,33.9692380771423
3392.5,33.9792323769713
3392.75,33.9892266768003
3393,33.9992209766293
3393.25,34.0092152764583
3393.5,34.0192095762873
3393.75,34.0292038761163
3394,34.0391981759453
3394.25,34.0491924757743
3394.5,34.0591867756033
3394.75,34.0691810754323
3395,34.0791753752613
3395.25,34.0891696750903
3395.5,34.0991639749193
3395.75,34.2282158464754
3396,34.3681360440813
3396.25,34.5080562416873
3396.5,34.6479764392932
3396.75,34.7878966368991
3397,34.9278168345051
3397.25,35.067737032111
3397.5,35.2076572297169
3397.75,35.3475774273229
3398,35.4874976249288
3398.25,35.6274178225347
3398.5,35.7673380201407
3398.75,35.9072582177466
3399,36.0471784153525
3399.25,36.1870986129585
3399.5,36.3270188105644
3399.75,36.4669390081703
3400,36.6068592057763
3400.25,36.7467794033822
3400.5,36.8866996009881
3400.75,37.0085312559378
3401,37.1284628538857
3401.25,37.2483944518337
3401.5,37.3683260497816
3401.75,37.4882576477295
3402,37.6081892456775
3402.25,37.7281208436254
3402.5,37.8480524415734
3402.75,37.9679840395213
3403,38.0879156374693
3403.25,38.2078472354172
3403.5,38.3277788333652
3403.75,38.4477104313131
3404,38.567642029261
3404.25,38.687573627209
3404.5,38.8075052251569
3404.75,38.9274368231049
3405,39.0473684210528
3405.25,39.1673000190005
3405.5,39.2872316169485
3405.75,39.3669770093103
3406,39.4419342580277
3406.25,39.5168915067452
3406.5,39.5918487554627
3406.75,39.6668060041801
3407,39.7417632528976
3407.25,39.8167205016151
3407.5,39.8916777503325
3407.75,39.96663499905
3408,40.0415922477674
3408.25,40.1165494964849
3408.5,40.1915067452024
3408.75,40.2664639939198
3409,40.3414212426373
3409.25,40.4163784913548
3409.5,40.4913357400722
3409.75,40.5662929887897
3410,40.6412502375072
3410.25,40.7162074862246
3410.5,40.7911647349421
3410.75,40.7603268098043
3411,40.7153524605738
3411.25,40.6703781113433
3411.5,40.6254037621128
3411.75,40.5804294128823
3412,40.5354550636519
3412.25,40.4904807144214
3412.5,40.4455063651909
3412.75,40.4005320159604
3413,40.35555766673
3413.25,40.3105833174995
3413.5,40.265608968269
3413.75,40.2206346190385
3414,40.175660269808
3414.25,40.1306859205776
3414.5,40.0857115713471
3414.75,40.0407372221166
3415,39.9957628728861
3415.25,39.9507885236556
3415.5,39.9058141744252
3415.75,39.9217556526696
3416,39.9467414022421
3416.25,39.9717271518145
3416.5,39.996712901387
3416.75,40.0216986509595
3417,40.046684400532
3417.25,40.0716701501045
3417.5,40.096655899677
3417.75,40.1216416492495
3418,40.146627398822
3418.25,40.1716131483944
3418.5,40.1965988979669
3418.75,40.2215846475394
3419,40.2465703971119
3419.25,40.2715561466844
3419.5,40.2965418962569
3419.75,40.3215276458294
3420,40.3465133954019
3420.25,40.3714991449744
3420.5,40.3964848945468
3420.75,40.3098232946988
3421,40.2048831464943
3421.25,40.0999429982899
3421.5,39.9950028500854
3421.75,39.890062701881
3422,39.7851225536765
3422.25,39.6801824054721
3422.5,39.5752422572676
3422.75,39.4703021090632
3423,39.3653619608587
3423.25,39.2604218126543
3423.5,39.1554816644498
3423.75,39.0505415162454
3424,38.9456013680409
3424.25,38.8406612198365
3424.5,38.735721071632
3424.75,38.6307809234276
3425,38.5258407752231
3425.25,38.4209006270187
3425.5,38.3159604788142
3425.75,38.206783203496
3426,38.096845905377
3426.25,37.9869086072581
3426.5,37.8769713091391
3426.75,37.7670340110202
3427,37.6570967129012
3427.25,37.5471594147825
3427.5,37.4372221166635
3427.75,37.3272848185446
3428,37.2173475204256
3428.25,37.1074102223067
3428.5,36.9974729241877
3428.75,36.8875356260688
3429,36.7775983279498
3429.25,36.6676610298309
3429.5,36.5577237317119
3429.75,36.447786433593
3430,36.337849135474
3430.25,36.2279118373551
3430.5,36.1179745392362
3430.75,36.1418012540376
3431,36.1917727531826
3431.25,36.2417442523276
3431.5,36.2917157514726
3431.75,36.3416872506175
3432,36.3916587497625
3432.25,36.4416302489075
3432.5,36.4916017480525
3432.75,36.5415732471974
3433,36.5915447463424
3433.25,36.6415162454874
3433.5,36.6914877446324
3433.75,36.7414592437774
3434,36.7914307429223
3434.25,36.8414022420673
3434.5,36.8913737412123
3434.75,36.9413452403573
3435,36.9913167395022
3435.25,37.0412882386472
3435.5,37.0912597377922
3435.75,37.0505225156754
3436,36.9905567167014
3436.25,36.9305909177275
3436.5,36.8706251187535
3436.75,36.8106593197795
3437,36.7506935208055
3437.25,36.6907277218316
3437.5,36.6307619228576
3437.75,36.5707961238836
3438,36.5108303249097
3438.25,36.4508645259358
3438.5,36.3908987269618
3438.75,36.3309329279879
3439,36.2709671290139
3439.25,36.2110013300399
3439.5,36.1510355310659
3439.75,36.091069732092
3440,36.031103933118
3440.25,35.971138134144
3440.5,35.9111723351701
3440.75,35.8430742922288
3441,35.7731141934258
3441.25,35.7031540946228
3441.5,35.6331939958199
3441.75,35.5632338970169
3442,35.4932737982139
3442.25,35.423313699411
3442.5,35.353353600608
3442.75,35.283393501805
3443,35.2134334030021
3443.25,35.1434733041991
3443.5,35.0735132053961
3443.75,35.0035531065932
3444,34.9335930077902
3444.25,34.8636329089872
3444.5,34.7936728101843
3444.75,34.7237127113813
3445,34.6537526125783
3445.25,34.5837925137754
3445.5,34.5138324149724
3445.75,34.4679270378111
3446,34.4279498384951
3446.25,34.3879726391791
3446.5,34.3479954398632
3446.75,34.3080182405472
3447,34.2680410412312
3447.25,34.2280638419152
3447.5,34.1880866425992
3447.75,34.1481094432832
3448,34.1081322439673
3448.25,34.0681550446513
3448.5,34.0281778453353
3448.75,33.9882006460193
3449,33.9482234467033
3449.25,33.9082462473874
3449.5,33.8682690480715
3449.75,33.8282918487555
3450,33.7883146494395
3450.25,33.7483374501235
3450.5,33.7083602508075
3450.75,33.8343720311609
3451,34.0042751282539
3451.25,34.1741782253468
3451.5,34.3440813224397
3451.75,34.5139844195326
3452,34.6838875166255
3452.25,34.8537906137185
3452.5,35.0236937108114
3452.75,35.1935968079043
3453,35.3634999049972
3453.25,35.5334030020901
3453.5,35.703306099183
3453.75,35.873209196276
3454,36.0431122933689
3454.25,36.2130153904618
3454.5,36.3829184875547
3454.75,36.5528215846476
3455,36.7227246817406
3455.25,36.8926277788335
3455.5,37.0625308759264
3455.75,37.2051681550448
3456,37.3400912027362
3456.25,37.4750142504276
3456.5,37.6099372981191
3456.75,37.7448603458105
3457,37.8797833935019
3457.25,38.0147064411934
3457.5,38.1496294888848
3457.75,38.2845525365763
3458,38.4194755842677
3458.25,38.5543986319591
3458.5,38.6893216796506
3458.75,38.824244727342
3459,38.9591677750334
3459.25,39.0940908227249
3459.5,39.2290138704163
3459.75,39.3639369181077
3460,39.4988599657992
3460.25,39.6337830134906
3460.5,39.7687060611818
3460.75,39.7385901577047
3461,39.6586357590728
3461.25,39.5786813604408
3461.5,39.4987269618089
3461.75,39.4187725631769
3462,39.3388181645449
3462.25,39.258863765913
3462.5,39.178909367281
3462.75,39.098954968649
3463,39.0190005700171
3463.25,38.9390461713851
3463.5,38.8590917727532
3463.75,38.7791373741212
3464,38.6991829754892
3464.25,38.6192285768573
3464.5,38.5392741782253
3464.75,38.4593197795934
3465,38.3793653809614
3465.25,38.2994109823294
3465.5,38.2194565836975
3465.75,38.1130343910317
3466,37.9980999429982
3466.25,37.8831654949648
3466.5,37.7682310469313
3466.75,37.6532965988979
3467,37.5383621508644
3467.25,37.423427702831
3467.5,37.3084932547975
3467.75,37.1935588067641
3468,37.0786243587307
3468.25,36.9636899106972
3468.5,36.8487554626638
3468.75,36.7338210146303
3469,36.6188865665969
3469.25,36.5039521185634
3469.5,36.38901767053
3469.75,36.2740832224965
3470,36.1591487744631
3470.25,36.0442143264296
3470.5,35.9292798783962
3470.75,35.8553106593197
3471,35.7953448603457
3471.25,35.7353790613718
3471.5,35.6754132623979
3471.75,35.6154474634239
3472,35.5554816644499
3472.25,35.495515865476
3472.5,35.435550066502
3472.75,35.375584267528
3473,35.3156184685541
3473.25,35.2556526695801
3473.5,35.1956868706061
3473.75,35.1357210716321
3474,35.0757552726582
3474.25,35.0157894736842
3474.5,34.9558236747102
3474.75,34.8958578757363
3475,34.8358920767623
3475.25,34.7759262777883
3475.5,34.7159604788143
3475.75,34.7330039901197
3476,34.7779783393502
3476.25,34.8229526885807
3476.5,34.8679270378112
3476.75,34.9129013870416
3477,34.9578757362721
3477.25,35.0028500855026
3477.5,35.0478244347331
3477.75,35.0927987839636
3478,35.137773133194
3478.25,35.1827474824245
3478.5,35.227721831655
3478.75,35.2726961808855
3479,35.3176705301159
3479.25,35.3626448793464
3479.5,35.4076192285769
3479.75,35.4525935778074
3480,35.4975679270379
3480.25,35.5425422762683
3480.5,35.5875166254988
3480.75,35.6
3481,35.6
3481.25,35.6
3481.5,35.6
3481.75,35.6
3482,35.6
3482.25,35.6
3482.5,35.6
3482.75,35.6
3483,35.6
3483.25,35.6
3483.5,35.6
3483.75,35.6
3484,35.6
3484.25,35.6
3484.5,35.6
3484.75,35.6
3485,35.6
3485.25,35.6
3485.5,35.6
3485.75,35.5680220406612
3486,35.5230476914307
3486.25,35.4780733422003
3486.5,35.4330989929698
3486.75,35.3881246437393
3487,35.3431502945088
3487.25,35.2981759452783
3487.5,35.2532015960479
3487.75,35.2082272468174
3488,35.1632528975869
3488.25,35.1182785483564
3488.5,35.0733041991259
3488.75,35.0283298498955
3489,34.983355500665
3489.25,34.9383811514345
3489.5,34.893406802204
3489.75,34.8484324529735
3490,34.8034581037431
3490.25,34.7584837545126
3490.5,34.7135094052821
3490.75,34.7384571537147
3491,34.7934258027741
3491.25,34.8483944518336
3491.5,34.9033631008931
3491.75,34.9583317499526
3492,35.013300399012
3492.25,35.0682690480715
3492.5,35.123237697131
3492.75,35.1782063461905
3493,35.2331749952499
3493.25,35.2881436443094
3493.5,35.3431122933689
3493.75,35.3980809424283
3494,35.4530495914877
3494.25,35.5080182405472
3494.5,35.5629868896067
3494.75,35.6179555386662
3495,35.6729241877256
3495.25,35.7278928367851
3495.5,35.7828614858446
3495.75,35.7896826904807
3496,35.7746912407372
3496.25,35.7596997909937
3496.5,35.7447083412502
3496.75,35.7297168915067
3497,35.7147254417633
3497.25,35.6997339920198
3497.5,35.6847425422763
3497.75,35.6697510925328
3498,35.6547596427893
3498.25,35.6397681930458
3498.5,35.6247767433023
3498.75,35.6097852935588
3499,35.5947938438153
3499.25,35.5798023940718
3499.5,35.5648109443283
3499.75,35.5498194945848
3500,35.5348280448413
3500.25,35.5198365950978
3500.5,35.5048451453543
3500.75,35.4864715941478
3501,35.4664829944898
3501.25,35.4464943948318
3501.5,35.4265057951738
3501.75,35.4065171955158
3502,35.3865285958579
3502.25,35.3665399961999
3502.5,35.3465513965419
3502.75,35.3265627968839
3503,35.3065741972259
3503.25,35.2865855975679
3503.5,35.2665969979099
3503.75,35.2466083982519
3504,35.2266197985939
3504.25,35.2066311989359
3504.5,35.1866425992779
3504.75,35.16665399962
3505,35.146665399962
3505.25,35.126676800304
3505.5,35.106688200646
3505.75,35.0135474064222
3506,34.8836215086453
3506.25,34.7536956108683
3506.5,34.6237697130914
3506.75,34.4938438153144
3507,34.3639179175375
3507.25,34.2339920197606
3507.5,34.1040661219836
3507.75,33.9741402242067
3508,33.8442143264298
3508.25,33.7142884286528
3508.5,33.5843625308759
3508.75,33.4544366330989
3509,33.324510735322
3509.25,33.1945848375451
3509.5,33.0646589397681
3509.75,32.9347330419912
3510,32.8048071442142
3510.25,32.6748812464373
3510.5,32.5449553486604
3510.75,32.4967319019571
3511,32.4917347520426
3511.25,32.4867376021281
3511.5,32.4817404522136
3511.75,32.4767433022991
3512,32.4717461523846
3512.25,32.4667490024701
3512.5,32.4617518525556
3512.75,32.4567547026411
3513,32.4517575527266
3513.25,32.4467604028121
3513.5,32.4417632528976
3513.75,32.4367661029831
3514,32.4317689530686
3514.25,32.4267718031541
3514.5,32.4217746532396
3514.75,32.4167775033251
3515,32.4117803534106
3515.25,32.4067832034961
3515.5,32.4017860535816
3515.75,32.3229336880107
3516,32.2030020900627
3516.25,32.0830704921148
3516.5,31.9631388941668
3516.75,31.8432072962189
3517,31.723275698271
3517.25,31.603344100323
3517.5,31.4834125023751
3517.75,31.3634809044271
3518,31.2435493064792
3518.25,31.1236177085312
3518.5,31.0036861105833
3518.75,30.8837545126353
3519,30.7638229146874
3519.25,30.6438913167395
3519.5,30.5239597187915
3519.75,30.4040281208436
3520,30.2840965228956
3520.25,30.1641649249477
3520.5,30.0442333269997
3520.75,30.0725441763254
3521,30.1874786243588
3521.25,30.3024130723922
3521.5,30.4173475204257
3521.75,30.5322819684591
3522,30.6472164164926
3522.25,30.762150864526
3522.5,30.8770853125595
3522.75,30.9920197605929
3523,31.1069542086264
3523.25,31.2218886566598
3523.5,31.3368231046933
3523.75,31.4517575527267
3524,31.5666920007601
3524.25,31.6816264487936
3524.5,31.796560896827
3524.75,31.9114953448605
3525,32.0264297928939
3525.25,32.1413642409274
3525.5,32.2562986889608
3525.75,32.2535436063081
3526,32.1785863575906
3526.25,32.1036291088732
3526.5,32.0286718601557
3526.75,31.9537146114382
3527,31.8787573627209
3527.25,31.8038001140034
3527.5,31.728842865286
3527.75,31.6538856165685
3528,31.578928367851
3528.25,31.5039711191336
3528.5,31.4290138704161
3528.75,31.3540566216986
3529,31.2790993729812
3529.25,31.2041421242637
3529.5,31.1291848755463
3529.75,31.0542276268288
3530,30.9792703781113
3530.25,30.9043131293939
3530.5,30.8293558806764
3530.75,30.8364810944329
3531,30.8964468934068
3531.25,30.9564126923808
3531.5,31.0163784913548
3531.75,31.0763442903287
3532,31.1363100893027
3532.25,31.1962758882767
3532.5,31.2562416872507
3532.75,31.3162074862246
3533,31.3761732851986
3533.25,31.4361390841726
3533.5,31.4961048831465
3533.75,31.5560706821205
3534,31.6160364810945
3534.25,31.6760022800685
3534.5,31.7359680790424
3534.75,31.7959338780164
3535,31.8558996769904
3535.25,31.9158654759643
3535.5,31.9758312749383
3535.75,31.9642029260877
3536,31.9042371271137
3536.25,31.8442713281398
3536.5,31.7843055291658
3536.75,31.7243397301918
3537,31.6643739312179
3537.25,31.6044081322439
3537.5,31.5444423332699
3537.75,31.4844765342959
3538,31.4245107353221
3538.25,31.3645449363481
3538.5,31.3045791373741
3538.75,31.2446133384002
3539,31.1846475394262
3539.25,31.1246817404522
3539.5,31.0647159414782
3539.75,31.0047501425043
3540,30.9447843435303
3540.25,30.8848185445563
3540.5,30.8248527455824
3540.75,30.864373931218
3541,30.9743112293369
3541.25,31.0842485274559
3541.5,31.1941858255748
3541.75,31.3041231236938
3542,31.4140604218127
3542.25,31.5239977199317
3542.5,31.6339350180506
3542.75,31.7438723161695
3543,31.8538096142885
3543.25,31.9637469124074
3543.5,32.0736842105264
3543.75,32.1836215086453
3544,32.2935588067643
3544.25,32.4034961048832
3544.5,32.5134334030022
3544.75,32.6233707011211
3545,32.7333079992401
3545.25,32.843245297359
3545.5,32.953182595478
3545.75,32.9741782253467
3546,32.9292038761162
3546.25,32.8842295268858
3546.5,32.8392551776553
3546.75,32.7942808284248
3547,32.7493064791943
3547.25,32.7043321299638
3547.5,32.6593577807334
3547.75,32.6143834315029
3548,32.5694090822724
3548.25,32.5244347330419
3548.5,32.4794603838115
3548.75,32.434486034581
3549,32.3895116853506
3549.25,32.3445373361201
3549.5,32.2995629868896
3549.75,32.2545886376591
3550,32.2096142884287
3550.25,32.1646399391982
3550.5,32.1196655899677
3550.75,32.057818734562
3551,31.9828614858446
3551.25,31.9079042371271
3551.5,31.8329469884096
3551.75,31.7579897396922
3552,31.6830324909747
3552.25,31.6080752422572
3552.5,31.5331179935398
3552.75,31.4581607448223
3553,31.3832034961049
3553.25,31.3082462473874
3553.5,31.2332889986699
3553.75,31.1583317499525
3554,31.083374501235
3554.25,31.0084172525175
3554.5,30.9334600038001
3554.75,30.8585027550826
3555,30.7835455063651
3555.25,30.7085882576477
3555.5,30.6336310089302
3555.75,30.5834695040851
3556,30.5534866045981
3556.25,30.5235037051111
3556.5,30.4935208056241
3556.75,30.4635379061372
3557,30.4335550066502
3557.25,30.4035721071632
3557.5,30.3735892076762
3557.75,30.3436063081892
3558,30.3136234087022
3558.25,30.2836405092152
3558.5,30.2536576097283
3558.75,30.2236747102413
3559,30.1936918107543
3559.25,30.1637089112673
3559.5,30.1337260117803
3559.75,30.1037431122933
3560,30.0737602128063
3560.25,30.0437773133194
3560.5,30.0137944138324
3560.75,30.0161884856546
3561,30.0461713851416
3561.25,30.0761542846285
3561.5,30.1061371841155
3561.75,30.1361200836025
3562,30.1661029830895
3562.25,30.1960858825765
3562.5,30.2260687820635
3562.75,30.2560516815505
3563,30.2860345810374
3563.25,30.3160174805244
3563.5,30.3460003800114
3563.75,30.3759832794984
3564,30.4059661789854
3564.25,30.4359490784724
3564.5,30.4659319779594
3564.75,30.4959148774463
3565,30.5258977769333
3565.25,30.5558806764203
3565.5,30.5858635759073
3565.75,30.6052821584648
3566,30.6152764582938
3566.25,30.6252707581228
3566.5,30.6352650579517
3566.75,30.6452593577807
3567,30.6552536576097
3567.25,30.6652479574387
3567.5,30.6752422572677
3567.75,30.6852365570967
3568,30.6952308569257
3568.25,30.7052251567547
3568.5,30.7152194565837
3568.75,30.7252137564127
3569,30.7352080562417
3569.25,30.7452023560707
3569.5,30.7551966558997
3569.75,30.7651909557287
3570,30.7751852555577
3570.25,30.7851795553867
3570.5,30.7951738552157
3570.75,30.8258407752233
3571,30.8758122743683
3571.25,30.9257837735132
3571.5,30.9757552726582
3571.75,31.0257267718031
3572,31.0756982709481
3572.25,31.1256697700931
3572.5,31.1756412692381
3572.75,31.2256127683831
3573,31.275584267528
3573.25,31.325555766673
3573.5,31.375527265818
3573.75,31.425498764963
3574,31.4754702641079
3574.25,31.5254417632529
3574.5,31.5754132623979
3574.75,31.6253847615429
3575,31.6753562606878
3575.25,31.7253277598328
3575.5,31.7752992589778
3575.75,31.8202166064982
3576,31.8601938058142
3576.25,31.9001710051302
3576.5,31.9401482044462
3576.75,31.9801254037621
3577,32.0201026030781
3577.25,32.0600798023941
3577.5,32.1000570017101
3577.75,32.1400342010261
3578,32.180011400342
3578.25,32.219988599658
3578.5,32.259965798974
3578.75,32.29994299829
3579,32.339920197606
3579.25,32.379897396922
3579.5,32.4198745962379
3579.75,32.4598517955539
3580,32.4998289948699
3580.25,32.5398061941859
3580.5,32.5797833935019
3580.75,32.6395211856357
3581,32.7194755842676
3581.25,32.7994299828996
3581.5,32.8793843815316
3581.75,32.9593387801635
3582,33.0392931787955
3582.25,33.1192475774273
3582.5,33.1992019760593
3582.75,33.2791563746912
3583,33.3591107733232
3583.25,33.4390651719552
3583.5,33.5190195705871
3583.75,33.5989739692191
3584,33.678928367851
3584.25,33.758882766483
3584.5,33.838837165115
3584.75,33.9187915637469
3585,33.9987459623789
3585.25,34.0787003610109
3585.5,34.1586547596428
3585.75,34.1975869276078
3586,34.1925897776933
3586.25,34.1875926277788
3586.5,34.1825954778643
3586.75,34.1775983279498
3587,34.1726011780353
3587.25,34.1676040281208
3587.5,34.1626068782063
3587.75,34.1576097282918
3588,34.1526125783774
3588.25,34.1476154284628
3588.5,34.1426182785484
3588.75,34.1376211286339
3589,34.1326239787194
3589.25,34.1276268288049
3589.5,34.1226296788904
3589.75,34.1176325289759
3590,34.1126353790614
3590.25,34.1076382291469
3590.5,34.1026410792324
3590.75,34.1400532015961
3591,34.2250047501426
3591.25,34.3099562986891
3591.5,34.3949078472355
3591.75,34.479859395782
3592,34.5648109443285
3592.25,34.6497624928749
3592.5,34.7347140414214
3592.75,34.8196655899678
3593,34.9046171385143
3593.25,34.9895686870606
3593.5,35.0745202356071
3593.75,35.1594717841535
3594,35.2444233327
3594.25,35.3293748812464
3594.5,35.4143264297929
3594.75,35.4992779783394
3595,35.5842295268858
3595.25,35.6691810754323
3595.5,35.7541326239787
3595.75,35.7655139654189
3596,35.6905567167015
3596.25,35.615599467984
3596.5,35.5406422192666
3596.75,35.4656849705491
3597,35.3907277218316
3597.25,35.3157704731142
3597.5,35.2408132243967
3597.75,35.1658559756792
3598,35.0908987269618
3598.25,35.0159414782443
3598.5,34.9409842295268
3598.75,34.8660269808094
3599,34.7910697320919
3599.25,34.7161124833744
3599.5,34.641155234657
3599.75,34.5661979859395
3600,34.4912407372221
3600.25,34.4162834885046
3600.5,34.3413262397871
3600.75,34.2596427892836
3601,34.1696940908226
3601.25,34.0797453923617
3601.5,33.9897966939007
3601.75,33.8998479954398
3602,33.8098992969788
3602.25,33.7199505985178
3602.5,33.6300019000569
3602.75,33.5400532015959
3603,33.450104503135
3603.25,33.360155804674
3603.5,33.2702071062131
3603.75,33.1802584077521
3604,33.0903097092911
3604.25,33.0003610108302
3604.5,32.9104123123694
3604.75,32.8204636139084
3605,32.7305149154475
3605.25,32.6405662169865
3605.5,32.5506175185256
3605.75,32.5284058521756
3606,32.593368801064
3606.25,32.6583317499525
3606.5,32.723294698841
3606.75,32.7882576477294
3607,32.8532205966179
3607.25,32.9181835455064
3607.5,32.9831464943949
3607.75,33.0481094432833
3608,33.1130723921718
3608.25,33.1780353410603
3608.5,33.2429982899487
3608.75,33.3079612388372
3609,33.3729241877257
3609.25,33.4378871366141
3609.5,33.5028500855026
3609.75,33.5678130343911
3610,33.6327759832795
3610.25,33.697738932168
3610.5,33.7627018810565
3610.75,33.8319209576288
3611,33.9068782063462
3611.25,33.9818354550637
3611.5,34.0567927037812
3611.75,34.1317499524986
3612,34.2067072012161
3612.25,34.2816644499336
3612.5,34.356621698651
3612.75,34.4315789473685
3613,34.506536196086
3613.25,34.5814934448034
3613.5,34.6564506935209
3613.75,34.7314079422384
3614,34.8063651909558
3614.25,34.8813224396733
3614.5,34.9562796883908
3614.75,35.0312369371082
3615,35.1061941858257
3615.25,35.1811514345432
3615.5,35.2561086832605
3615.75,35.3434923047691
3616,35.4484324529736
3616.25,35.553372601178
3616.5,35.6583127493825
3616.75,35.7632528975869
3617,35.8681930457914
3617.25,35.9731331939958
3617.5,36.0780733422003
3617.75,36.1830134904047
3618,36.2879536386092
3618.25,36.3928937868136
3618.5,36.4978339350181
3618.75,36.6027740832225
3619,36.707714231427
3619.25,36.8126543796314
3619.5,36.9175945278359
3619.75,37.0225346760403
3620,37.1274748242448
3620.25,37.2324149724492
3620.5,37.3373551206537
3620.75,37.3657609728291
3621,37.2808094242827
3621.25,37.1958578757362
3621.5,37.1109063271898
3621.75,37.0259547786433
3622,36.9410032300968
3622.25,36.8560516815504
3622.5,36.7711001330039
3622.75,36.6861485844574
3623,36.601197035911
3623.25,36.5162454873645
3623.5,36.4312939388181
3623.75,36.3463423902716
3624,36.2613908417252
3624.25,36.1764392931787
3624.5,36.0914877446322
3624.75,36.0065361960858
3625,35.9215846475393
3625.25,35.8366330989929
3625.5,35.7516815504464
3625.75,35.6882576477294
3626,35.6582747482424
3626.25,35.6282918487554
3626.5,35.5983089492685
3626.75,35.5683260497815
3627,35.5383431502945
3627.25,35.5083602508075
3627.5,35.4783773513205
3627.75,35.4483944518336
3628,35.4184115523466
3628.25,35.3884286528596
3628.5,35.3584457533726
3628.75,35.3284628538856
3629,35.2984799543986
3629.25,35.2684970549116
3629.5,35.2385141554247
3629.75,35.2085312559377
3630,35.1785483564507
3630.25,35.1485654569637
3630.5,35.1185825574767
3630.75,35.0714991449743
3631,34.9965418962569
3631.25,34.9215846475394
3631.5,34.8466273988219
3631.75,34.7716701501045
3632,34.696712901387
3632.25,34.6217556526695
3632.5,34.5467984039521
3632.75,34.4718411552346
3633,34.3968839065171
3633.25,34.3219266577997
3633.5,34.2469694090822
3633.75,34.1720121603647
3634,34.0970549116473
3634.25,34.0220976629298
3634.5,33.9471404142123
3634.75,33.8721831654949
3635,33.7972259167774
3635.25,33.72226866806
3635.5,33.6473114193425
3635.75,33.6018430552917
3636,33.6068402052062
3636.25,33.6118373551207
3636.5,33.6168345050352
3636.75,33.6218316549497
3637,33.6268288048642
3637.25,33.6318259547787
3637.5,33.6368231046932
3637.75,33.6418202546076
3638,33.6468174045221
3638.25,33.6518145544366
3638.5,33.6568117043511
3638.75,33.6618088542656
3639,33.6668060041801
3639.25,33.6718031540946
3639.5,33.6768003040091
3639.75,33.6817974539236
3640,33.6867946038381
3640.25,33.6917917537526
3640.5,33.6967889036671
3640.75,33.6982139464184
3641,33.6932167965039
3641.25,33.6882196465894
3641.5,33.6832224966749
3641.75,33.6782253467604
3642,33.6732281968459
3642.25,33.6682310469314
3642.5,33.6632338970169
3642.75,33.6582367471024
3643,33.6532395971879
3643.25,33.6482424472734
3643.5,33.6432452973589
3643.75,33.6382481474444
3644,33.6332509975299
3644.25,33.6282538476154
3644.5,33.6232566977009
3644.75,33.6182595477864
3645,33.6132623978719
3645.25,33.6082652479574
3645.5,33.6032680980429
3645.75,33.6051871556147
3646,33.6201786053582
3646.25,33.6351700551017
3646.5,33.6501615048452
3646.75,33.6651529545887
3647,33.6801444043322
3647.25,33.6951358540756
3647.5,33.7101273038191
3647.75,33.7251187535626
3648,33.7401102033061
3648.25,33.7551016530496
3648.5,33.7700931027931
3648.75,33.7850845525366
3649,33.8000760022801
3649.25,33.8150674520236
3649.5,33.8300589017671
3649.75,33.8450503515105
3650,33.860041801254
3650.25,33.8750332509975
3650.5,33.890024700741
3650.75,33.8983279498385
3651,33.893330799924
3651.25,33.8883336500095
3651.5,33.883336500095
3651.75,33.8783393501805
3652,33.873342200266
3652.25,33.8683450503515
3652.5,33.863347900437
3652.75,33.8583507505225
3653,33.853353600608
3653.25,33.8483564506935
3653.5,33.843359300779
3653.75,33.8383621508645
3654,33.83336500095
3654.25,33.8283678510355
3654.5,33.823370701121
3654.75,33.8183735512065
3655,33.813376401292
3655.25,33.8083792513775
3655.5,33.803382101463
3655.75,33.7967699030971
3656,33.7867756032681
3656.25,33.7767813034391
3656.5,33.7667870036101
3656.75,33.7567927037811
3657,33.7467984039521
3657.25,33.7368041041231
3657.5,33.7268098042941
3657.75,33.7168155044651
3658,33.7068212046361
3658.25,33.6968269048071
3658.5,33.6868326049781
3658.75,33.6768383051491
3659,33.6668440053201
3659.25,33.6568497054911
3659.5,33.6468554056622
3659.75,33.6368611058332
3660,33.6268668060042
3660.25,33.6168725061752
3660.5,33.6068782063462
3660.75,33.5501425042751
3661,33.3902337070112
3661.25,33.2303249097473
3661.5,33.0704161124834
3661.75,32.9105073152194
3662,32.7505985179555
3662.25,32.5906897206916
3662.5,32.4307809234277
3662.75,32.2708721261637
3663,32.1109633288998
3663.25,31.9510545316359
3663.5,31.791145734372
3663.75,31.631236937108
3664,31.4713281398441
3664.25,31.3114193425802
3664.5,31.1515105453163
3664.75,30.9916017480523
3665,30.8316929507884
3665.25,30.6717841535245
3665.5,30.5118753562606
3665.75,30.3924947748432
3666,30.3675090252707
3666.25,30.3425232756982
3666.5,30.3175375261258
3666.75,30.2925517765533
3667,30.2675660269808
3667.25,30.2425802774083
3667.5,30.2175945278358
3667.75,30.1926087782633
3668,30.1676230286908
3668.25,30.1426372791183
3668.5,30.1176515295459
3668.75,30.0926657799734
3669,30.0676800304009
