1683,764.694835970003
1683.25,758.02006085389
1683.5,757.971028255022
1683.75,761.572104697937
1684,763.995796739396
1684.25,761.690357464364
1684.5,756.819759761123
1684.75,753.14804703609
1685,753.588585805867
1685.25,756.540281764125
1685.5,758.910362840843
1685.75,758.293276580588
1686,756.070959185018
1686.25,754.92142688393
1686.5,757.003336790268
1686.75,761.275069311558
1687,765.479562153609
1687.25,767.690055323404
1687.5,768.156511590813
1687.75,768.00423488558
1688,768.197065990266
1688.25,768.383189328051
1688.5,767.577481329233
1688.75,764.927795476319
1689,760.984630009651
1689.25,757.120549183711
1689.5,754.634537321553
1689.75,753.725538203464
1690,753.819333518815
1690.25,754.336568106883
1690.5,754.854753992366
1690.75,755.068865771082
1691,754.696893971336
1691.25,753.765395167521
1691.5,752.541899600218
1691.75,751.321980456307
1692,750.760055626001
1692.25,751.805860822645
1692.5,755.311108067181
1692.75,760.297121562408
1693,764.247102114755
1693.25,764.77063164698
1693.5,762.616474613837
1693.75,761.255254331441
1694,764.076126449821
1694.25,770.419607905038
1694.5,775.520869558524
1694.75,774.57772870144
1695,767.152737736093
1695.25,757.824838984264
1695.5,751.401259784543
1695.75,749.968105145456
1696,751.498213794474
1696.25,753.639737487567
1696.5,755.092593428528
1696.75,756.198142979865
1697,757.431736043494
1697.25,758.69906298641
1697.5,758.987824715124
1697.75,757.218582236224
1698,753.652344292479
1698.25,750.87923670957
1698.5,751.704661237996
1698.75,756.974997944361
1699,763.823320225177
1699.25,768.97998901838
1699.5,770.494260639782
1699.75,768.942658292223
1700,765.188013787514
1700.25,760.269465062196
1700.5,755.638858804986
1700.75,752.806294733879
1701,752.688934593029
1701.25,754.536894980404
1701.5,757.309523098003
1701.75,760.01839287022
1702,761.827119086911
1702.25,761.927018702342
1702.5,759.985162315447
1702.75,757.172076784275
1703,754.954540012081
1703.25,754.1858106048
1703.5,753.483250114924
1703.75,750.955021540168
1704,745.980365596039
1704.25,742.856290633575
1704.5,747.068964955469
1704.75,760.573886274783
1705,771.502991410836
1705.25,764.605602471062
1705.5,735.505246084348
1705.75,736.257418577496
1706,737.009591070643
1706.25,737.76176356379
1706.5,738.513936056938
1706.75,739.266108550085
1707,740.018281043232
1707.25,740.77045353638
1707.5,741.522626029527
1707.75,742.274798522675
1708,743.026971015822
1708.25,743.779143508969
1708.5,744.531316002117
1708.75,745.283488495264
1709,746.035660988412
1709.25,746.787833481559
1709.5,747.540005974706
1709.75,748.292178467854
1710,749.044350961001
1710.25,749.796523454149
1710.5,750.548695947296
1710.75,751.300868440444
1711,752.053040933591
1711.25,752.805213426738
1711.5,753.557385919886
1711.75,754.309558413033
1712,755.061730906181
1712.25,755.813903399328
1712.5,756.566075892475
1712.75,757.318248385623
1713,758.07042087877
1713.25,758.822593371917
1713.5,759.574765865065
1713.75,761.331005183435
1714,758.848269377542
1714.25,754.751844689836
1714.5,751.680835775171
1714.75,750.336179917786
1715,749.55780588427
1715.25,748.164940335472
1715.5,746.207526077459
1715.75,744.95470296068
1716,745.659560511612
1716.25,748.062198667461
1716.5,750.419575691092
1716.75,751.020637832817
1717,750.063069901131
1717.25,749.520341405477
1717.5,751.327877726881
1717.75,755.242827103142
1718,758.974696686359
1718.25,760.265840110894
1718.5,759.174509153321
1718.75,757.935776402435
1719,758.759616505444
1719.25,761.133903288762
1719.5,761.706676684268
1719.75,757.13898287071
1720,748.354945705517
1720.25,741.113321874815
1720.5,741.278453099724
1720.75,749.075861878518
1721,757.630462937375
1721.25,759.820772813447
1721.5,754.540934975585
1721.75,747.506062017695
1722,744.698700793751
1722.25,748.450037528447
1722.5,756.494129709729
1722.75,766.279386265465
1723,775.491502389476
1723.25,782.099630882999
1723.5,784.127651921213
1723.75,781.230508026838
1724,775.273365677517
1724.25,768.275270894357
1724.5,761.835427908779
1724.75,756.733162451339
1725,753.651758324457
1725.25,752.871502016707
1725.5,753.688646816158
1725.75,755.252164208622
1726,756.754207664235
1726.25,757.497285282785
1726.5,756.802244120287
1726.75,754.591982282621
1727,752.418891617226
1727.25,752.107619008789
1727.5,754.611508643219
1727.75,758.326086255965
1728,761.180460590921
1728.25,761.909209323316
1728.5,761.667240344734
1728.75,762.062138540775
1729,764.204726126434
1729.25,767.506064633461
1729.5,771.013967141339
1729.75,773.811248378079
1730,775.118960755469
1730.25,774.192279451845
1730.5,770.603790326573
1730.75,765.540208123141
1731,760.700064902349
1731.25,757.549468754818
1731.5,755.963348028745
1731.75,755.150674152979
1732,754.382384095393
1732.25,753.428638446171
1732.5,752.293358570439
1732.75,751.007648491058
1733,749.81711176553
1733.25,749.073509626396
1733.5,749.097789385397
1733.75,749.94190825369
1734,751.521740777074
1734.25,753.72465736676
1734.5,756.20725682634
1734.75,758.510680358008
1735,760.234283945899
1735.25,761.487357896904
1735.5,762.639976584696
1735.75,763.992579601815
1736,765.146225386545
1736.25,765.307393982554
1736.5,763.772974238899
1736.75,760.951067037884
1737,757.970767436047
1737.25,755.908177984904
1737.5,754.881360194644
1737.75,754.279698937115
1738,753.504026097187
1738.25,752.44332019901
1738.5,751.386147579599
1738.75,750.613706098971
1739,750.071209565711
1739.25,749.417094947668
1739.5,748.348962384706
1739.75,747.42858337165
1740,747.963032517906
1740.25,751.190336528322
1740.5,756.706552254752
1740.75,762.706487140396
1741,767.403775198609
1741.25,770.113583448242
1741.5,771.081250423785
1741.75,770.592487581905
1742,769.184300527756
1742.25,767.641879520682
1742.5,766.736263258977
1742.75,766.386501781903
1743,765.463750975437
1743.25,762.805073715498
1743.5,758.835054351905
1743.75,756.314325764232
1744,758.153446457569
1744.25,764.315824623345
1744.5,769.726917762983
1744.75,768.858366215035
1745,760.178253757251
1745.25,749.524945951439
1745.5,743.518813014285
1745.75,745.688645360787
1746,752.447811055204
1746.25,759.221717064298
1746.5,763.14764389686
1746.75,765.046237671885
1747,766.214795015488
1747.25,767.592732611408
1747.5,769.27714260507
1747.75,771.243778041455
1748,773.255153193213
1748.25,774.470893941221
1748.5,773.944841104708
1748.75,771.155806057682
1749,767.122094259558
1749.25,763.210506521827
1749.5,760.534735998549
1749.75,758.985293671923
1750,758.083679662961
1750.25,757.42306810666
1750.5,757.002765243153
1750.75,756.964814599655
1751,757.339484023192
1751.25,757.45770241776
1751.5,756.380831182673
1751.75,753.535842804249
1752,750.847228993464
1752.25,751.282095810478
1752.5,757.139707144282
1752.75,765.777600305187
1753,772.346125563366
1753.25,772.80472174104
1753.5,769.30068345823
1753.75,766.807411359433
1754,769.68653763737
1754.25,775.863897496149
1754.5,779.48195665548
1754.75,775.181828938038
1755,764.799142671222
1755.25,755.241256010635
1755.5,753.196281126496
1755.75,758.445611005411
1756,764.170078045072
1756.25,763.578373153448
1756.5,756.426872102939
1756.75,748.927841201821
1757,747.391623526589
1757.25,752.833054832357
1757.5,760.16082118168
1757.75,764.088184265574
1758,763.388165659025
1758.25,761.370064843272
1758.5,761.517863662393
1758.75,764.896965536837
1759,769.476175316159
1759.25,773.046611784992
1759.5,774.623622517816
1759.75,774.98286445551
1760,775.030619708508
1760.25,775.109129026026
1760.5,774.533580698266
1760.75,772.512145710938
1761,768.852888537692
1761.25,764.805679576258
1761.5,761.832329020853
1761.75,760.833835869762
1762,760.952543365366
1762.25,760.986985596684
1762.5,760.108835607495
1762.75,758.83904909667
1763,758.003462990739
1763.25,758.161278615817
1763.5,758.771732673601
1763.75,759.010454973367
1764,758.346524886501
1764.25,757.581620248504
1764.5,757.895496327306
1764.75,760.16973370491
1765,763.776403317626
1765.25,767.611059121058
1765.5,770.675184153246
1765.75,772.562345412433
1766,773.071389245695
1766.25,772.063849534569
1766.5,769.837493922218
1766.75,766.876032890289
1767,763.651785031725
1767.25,760.522999972795
1767.5,757.78519085689
1767.75,755.7090050063
1768,754.278680695697
1768.25,753.291318764006
1768.5,752.554788327716
1768.75,752.060597069363
1769,751.929499902233
1769.25,752.268788803096
1769.5,752.963857254765
1769.75,753.738900208233
1770,754.397123768486
1770.25,755.9121239755
1770.5,760.125800934599
1770.75,768.633616224056
1771,779.00541315395
1771.25,785.696169366931
1771.5,783.433579315677
1771.75,773.558861373719
1772,763.27718808028
1772.25,759.842092271736
1772.5,764.563391378944
1772.75,771.07271859869
1773,772.58884210347
1773.25,767.054177057483
1773.5,759.192327816038
1773.75,754.222287217614
1774,754.461361055073
1774.25,756.894152567829
1774.5,757.948888321778
1774.75,755.994052380054
1775,753.164128003517
1775.25,752.018156608929
1775.5,753.787384057782
1775.75,756.887782206434
1776,759.381464836864
1776.25,760.310184137324
1776.5,760.839406066791
1776.75,762.410000287172
1777,765.684200468679
1777.25,769.456576417472
1777.5,772.248115022269
1777.75,773.043103178926
1778,772.100809116477
1778.25,769.897927503704
1778.5,766.973472971512
1778.75,764.088665587253
1779,762.054229180108
1779.25,761.406354685509
1779.5,761.437058583129
1779.75,761.086074343227
1780,759.566999141346
1780.25,757.528379931133
1780.5,756.087108658728
1780.75,756.076542149096
1781,756.628648824571
1781.25,756.244224359736
1781.5,753.821911272775
1781.75,750.83679505292
1782,749.787835678371
1782.25,752.708027161489
1782.5,758.366445046159
1782.75,764.143702743433
1783,767.756703534083
1783.25,769.300141716224
1783.5,769.880122991606
1783.75,770.486632822743
1784,771.096105812377
1784.25,771.175338067021
1784.5,770.21700001039
1784.75,768.044808312754
1785,764.68931583796
1785.25,760.254933349956
1785.5,755.926545801759
1785.75,753.732488019577
1786,755.561738170986
1786.25,760.235344310627
1786.5,763.830145512237
1786.75,762.517363933904
1787,756.357434728581
1787.25,749.037747575592
1787.5,744.294470868888
1787.75,743.484476862093
1788,745.396904532258
1788.25,748.705408498918
1788.5,752.379639290841
1788.75,755.695595671547
1789,757.974382607978
1789.25,759.252740579988
1789.5,760.285184851997
1789.75,761.824685121215
1790,763.752532497757
1790.25,765.009547246168
1790.5,764.521199825285
1790.75,762.258268323349
1791,759.456745058885
1791.25,757.407610310329
1791.5,756.40741558525
1791.75,755.34318713188
1792,753.019607041578
1792.25,749.706207312239
1792.5,747.933015871015
1792.75,750.382332818381
1793,757.001781834825
1793.25,763.33474524242
1793.5,764.581870152692
1793.75,759.57617024945
1794,752.937747508258
1794.25,749.776599542369
1794.5,752.352606921165
1794.75,757.585286431418
1795,761.823412409294
1795.25,763.171542184235
1795.5,763.023807735695
1795.75,763.130746202388
1796,764.357495584136
1796.25,765.696628187455
1796.5,765.904082236327
1796.75,764.247780728033
1797,761.24882223619
1797.25,757.616418937107
1797.5,753.961891366291
1797.75,750.608418018206
1798,747.826594893692
1798.25,746.459502787094
1798.5,749.201419012777
1798.75,749.401615385091
1799,749.601811757404
1799.25,749.802008129716
1799.5,750.002204502029
1799.75,750.202400874343
1800,750.402597246656
1800.25,750.602793618969
1800.5,750.802989991281
1800.75,751.003186363595
1801,751.203382735908
1801.25,751.403579108221
1801.5,751.603775480534
1801.75,751.803971852847
1802,752.00416822516
1802.25,752.204364597473
1802.5,752.404560969786
1802.75,752.604757342099
1803,752.804953714412
1803.25,753.005150086725
1803.5,753.205346459038
1803.75,753.405542831351
1804,753.605739203664
1804.25,753.805935575977
1804.5,754.00613194829
1804.75,754.206328320603
1805,754.406524692916
1805.25,754.606721065229
1805.5,754.806917437542
1805.75,755.007113809855
1806,755.207310182168
1806.25,757.415227063827
1806.5,760.358632116622
1806.75,763.720258103553
1807,767.168671767949
1807.25,770.386653512275
1807.5,773.180719598186
1807.75,775.420807629233
1808,776.955102452331
1808.25,777.384783699376
1808.5,776.157131201953
1808.75,772.797361692621
1809,768.155261513238
1809.25,764.167393227016
1809.5,762.729703592559
1809.75,763.858109762173
1810,765.565753781028
1810.25,765.814550203528
1810.5,764.129911736463
1810.75,761.945257374366
1811,760.786880034371
1811.25,761.032822391734
1811.5,761.402522745778
1811.75,760.507090922064
1812,758.396527466441
1812.25,757.457937849959
1812.5,760.270769809882
1812.75,767.27753972271
1813,775.01176160234
1813.25,779.604588388386
1813.5,779.259416785514
1813.75,776.363288155154
1814,773.805512242983
1814.25,773.364828970791
1814.5,773.706592398724
1814.75,772.954687530764
1815,769.885141017814
1815.25,765.701475816859
1815.5,762.171922937341
1815.75,760.701447939244
1816,760.912321379193
1816.25,761.88085108435
1816.5,762.769557292078
1816.75,763.231371243403
1817,763.092123741112
1817.25,762.269963527564
1817.5,761.290177388446
1817.75,760.923788670027
1818,761.833407820491
1818.25,763.832885266174
1818.5,766.338409339211
1818.75,768.808473838549
1819,771.102599953551
1819.25,773.292438341013
1819.5,775.410549399154
1819.75,777.022094876088
1820,777.395115010012
1820.25,775.863442572866
1820.5,772.922692799644
1820.75,770.020428360613
1821,768.583600248784
1821.25,768.733438961022
1821.5,769.172729573947
1821.75,768.558047566496
1822,766.56580658531
1822.25,764.224357439246
1822.5,762.643655189205
1822.75,762.149007429552
1823,761.792885477355
1823.25,760.519112222089
1823.5,758.087295383866
1823.75,755.780277649244
1824,755.044286456
1824.25,756.764614242806
1824.5,760.644309644976
1824.75,766.235071578318
1825,772.751683471814
1825.25,778.658141784724
1825.5,782.318117228502
1825.75,782.689602390265
1826,780.300847895808
1826.25,775.936443569888
1826.5,770.472238447935
1826.75,765.135682129006
1827,761.238888039455
1827.25,759.803699004264
1827.5,760.322269772799
1827.75,761.784669468318
1828,763.223984736149
1828.25,763.934517552427
1828.5,763.308011676115
1828.75,760.94996895561
1829,757.962943771218
1829.25,756.089850461222
1829.5,756.818064548548
1829.75,759.496142960511
1830,762.414896913319
1830.25,764.056250043661
1830.5,764.685865183136
1830.75,765.511632870269
1831,767.638216508522
1831.25,770.969811009021
1831.5,774.680526103956
1831.75,777.937050313533
1832,779.945463781352
1832.25,779.940255151016
1832.5,777.224211433219
1832.75,772.514613389409
1833,767.86861402344
1833.25,765.353808816338
1833.5,765.439535255022
1833.75,766.5450241218
1834,766.971810579549
1834.25,765.972664931921
1834.5,764.245529309995
1834.75,762.605453220585
1835,761.4918764942
1835.25,760.658984290475
1835.5,759.789847519068
1835.75,758.860212960983
1836,758.461811667976
1836.25,759.262973810288
1836.5,761.576581413009
1836.75,764.87876007576
1837,768.52572827554
1837.25,772.074118103913
1837.5,775.603259312863
1837.75,779.276520740162
1838,782.92969755748
1838.25,785.344811416705
1838.5,785.092402737012
1838.75,781.250097262329
1839,775.203159164676
1839.25,768.992941144524
1839.5,764.427336746505
1839.75,761.680076272345
1840,760.22681606047
1840.25,759.540393036231
1840.5,759.091879831437
1840.75,758.351428389042
1841,756.86446340728
1841.25,754.939752429384
1841.5,753.330180459346
1841.75,752.726989460689
1842,753.059002412487
1842.25,753.771648910398
1842.5,754.369988670809
1842.75,755.157297452469
1843,756.959380682524
1843.25,760.497982846935
1843.5,765.072147789199
1843.75,769.009158674986
1844,770.713340308064
1844.25,769.950284120705
1844.5,767.49746354601
1844.75,764.155641302242
1845,760.710924275354
1845.25,757.935983761064
1845.5,756.569109044253
1845.75,756.444447044658
1846,756.416711883205
1846.25,755.329363138502
1846.5,753.188564375612
1846.75,751.355506389491
1847,751.232077033339
1847.25,752.96268605737
1847.5,755.131291216704
1847.75,756.257694816764
1848,756.051660703148
1848.25,755.715076938943
1848.5,756.52318199542
1848.75,758.875549489073
1849,762.00227564076
1849.25,765.05667582834
1849.5,767.417214800203
1849.75,768.782711410383
1850,768.881319583118
1850.25,767.790573239988
1850.5,766.165193472921
1850.75,764.711421301978
1851,763.77091994387
1851.25,762.944519464117
1851.5,761.743954240524
1851.75,759.918866794323
1852,757.790696169248
1852.25,755.764941872637
1852.5,754.184823949774
1852.75,753.221821946876
1853,753.017946626412
1853.25,753.565506648723
1853.5,754.414173942687
1853.75,755.032347327853
1854,755.147046223852
1854.25,755.277277209727
1854.5,756.093060937658
1854.75,758.000355119207
1855,760.547417221213
1855.25,763.108670495288
1855.5,765.114543654618
1855.75,766.190799264378
1856,766.005759499054
1856.25,764.36237488273
1856.5,761.612195276962
1856.75,758.246488908644
1857,754.721757825743
1857.25,751.322762216719
1857.5,748.281324363659
1857.75,745.812263383366
1858,744.037916703377
1858.25,743.049303987095
1858.5,742.856028134727
1858.75,743.035329713545
1859,743.021439648236
1859.25,742.404738332105
1859.5,741.537912062362
1859.75,741.005786318823
1860,741.349590187403
1860.25,742.914831807516
1860.5,745.99218742229
1860.75,750.533575324731
1861,755.127791879958
1861.25,758.02081747591
1861.5,758.145116570416
1861.75,757.065811665761
1862,756.979029169055
1862.25,759.378393201365
1862.5,762.792283346713
1862.75,764.966839030288
1863,764.24356732178
1863.25,761.697398503313
1863.5,759.187228451157
1863.75,758.182038470931
1864,758.003431874033
1864.25,757.237848917276
1864.5,754.816522567383
1864.75,751.795642127275
1865,750.038796852421
1865.25,751.007083806212
1865.5,753.448955905866
1865.75,754.996406992847
1866,753.806924458243
1866.25,751.588789551861
1866.5,751.511567631207
1866.75,756.132795053845
1867,763.600767167302
1867.25,770.143802741202
1867.5,772.504037571315
1867.75,771.251020300688
1868,768.658665711172
1868.25,766.81801340004
1868.5,765.972857502777
1868.75,765.330002265024
1869,764.153369975321
1869.25,762.566199273013
1869.5,761.276908615536
1869.75,760.953648360567
1870,761.45090218779
1870.25,761.974021681239
1870.5,761.748431297494
1870.75,760.723886400368
1871,759.498509404957
1871.25,758.672708210269
1871.5,758.360487736738
1871.75,758.182396954257
1872,757.759286647861
1872.25,757.341030624355
1872.5,757.878457500496
1872.75,760.325511859032
1873,764.512327008566
1873.25,768.9074681181
1873.5,771.917238110629
1873.75,772.74907255066
1874,771.67724081989
1874.25,769.052443814672
1874.5,765.404608851103
1874.75,761.562095691906
1875,758.378455994501
1875.25,756.235585561815
1875.5,754.538395111255
1875.75,752.572990290983
1876,750.21160163236
1876.25,748.668856141162
1876.5,749.34263013881
1876.75,752.531985245506
1877,755.93294381569
1877.25,756.870672020028
1877.5,754.295518572433
1877.75,750.964169726775
1878,750.173509445143
1878.25,753.581125556743
1878.5,758.687638226801
1878.75,762.348196344754
1879,762.880828465125
1879.25,762.312818931643
1879.5,763.249374404165
1879.75,767.025810065841
1880,771.278914245731
1880.25,772.975991890626
1880.5,770.186057495835
1880.75,764.717906938812
1881,759.173121067606
1881.25,755.70064166549
1881.5,754.4256220361
1881.75,754.907828081251
1882,756.597365167025
1882.25,758.397982434586
1882.5,759.043569917216
1882.75,757.598080735799
1883,754.873386291375
1883.25,752.257694990365
1883.5,751.013612028303
1883.75,751.659095113796
1884,754.439447055961
1884.25,759.343125701787
1884.5,764.804781569036
1884.75,768.676898855465
1885,769.270587665947
1885.25,767.860672252094
1885.5,766.8978619976
1885.75,768.434571136562
1886,771.223294987737
1886.25,772.395710061094
1886.5,769.421796850232
1886.75,763.390684885915
1887,757.531499943743
1887.25,754.894155361873
1887.5,755.563509964826
1887.75,757.408181840825
1888,758.334973426337
1888.25,757.691485988656
1888.5,755.972344877218
1888.75,753.715684572099
1889,751.670472942948
1889.25,750.768187824267
1889.5,751.89121733715
1889.75,754.841954903367
1890,758.437806370501
1890.25,761.511059887428
1890.5,763.909918868151
1890.75,766.418779317846
1891,769.816891363732
1891.25,773.92227301155
1891.5,777.569778235019
1891.75,779.571362077794
1892,779.490069848158
1892.25,777.81619160588
1892.5,775.095862107027
1892.75,771.763748833662
1893,768.06730908038
1893.25,764.236473607027
1893.5,760.584770179818
1893.75,757.612527960866
1894,755.844876235717
1894.25,755.52574848455
1894.5,756.154031504159
1894.75,757.106675657326
1895,757.814621301323
1895.25,757.862130333668
1895.5,756.860710896369
1895.75,754.832042888491
1896,753.061895507544
1896.25,753.078689639504
1896.5,755.920236238074
1896.75,760.982078897678
1897,767.316523332833
1897.25,773.914319298567
1897.5,779.55269807196
1897.75,782.962626338561
1898,783.246496552436
1898.25,781.085930128083
1898.5,777.582190512653
1898.75,773.770778097537
1899,770.269206905583
1899.25,767.531320301931
1899.5,765.930394926721
1899.75,765.117347667088
1900,764.360531636795
1900.25,762.994606509193
1900.5,761.150839859502
1900.75,759.467493372018
1901,758.542985031655
1901.25,758.300763237054
1901.5,758.165860364378
1901.75,757.605282050022
1902,756.956275428025
1902.25,757.262464241806
1902.5,759.523071533126
1902.75,763.534981896544
1903,768.033946515041
1903.25,771.754958125482
1903.5,774.195310560068
1903.75,775.583639857922
1904,776.172948526341
1904.25,776.054072184814
1904.5,775.126138318981
1904.75,773.280347153729
1905,770.598301621593
1905.25,767.457813569315
1905.5,764.262098828994
1905.75,761.385944375412
1906,759.146752815301
1906.25,757.854208030953
1906.5,757.579063767138
1906.75,757.821735339618
1907,757.999684340808
1907.25,757.70009306573
1907.5,756.953955352185
1907.75,755.864131548746
1908,754.747062531063
1908.25,754.531797192126
1908.5,756.256201606722
1908.75,760.335273568055
1909,765.267653815062
1909.25,769.184758878119
1909.5,770.79774085005
1909.75,770.732205527831
1910,770.008389831237
1910.25,769.36381458253
1910.5,768.364366556471
1910.75,766.272466819364
1911,762.657985832579
1911.25,758.712535128484
1911.5,756.160508092457
1911.75,756.3546284608
1912,758.257968392592
1912.25,759.888669310456
1912.5,759.58012429428
1912.75,757.865753003575
1913,756.210264162841
1913.25,755.842760258558
1913.5,756.110432834653
1913.75,755.469383587552
1914,752.902277324854
1914.25,751.924242885632
1914.5,758.343665959604
1914.75,776.110273721982
1915,792.078955815249
1915.25,783.968381498185
1915.5,734.940873507945
1915.75,687.617899543018
1916,720.8087648712
1916.25,722.326991235008
1916.5,723.845217598816
1916.75,725.363443962624
1917,726.881670326432
1917.25,728.39989669024
1917.5,729.918123054048
1917.75,731.436349417856
1918,732.954575781664
1918.25,734.472802145472
1918.5,735.991028509281
1918.75,737.509254873089
1919,739.027481236897
1919.25,740.545707600705
1919.5,742.063933964513
1919.75,743.582160328321
1920,745.100386692129
1920.25,746.618613055937
1920.5,748.136839419745
1920.75,749.655065783553
1921,751.173292147361
1921.25,752.691518511169
1921.5,754.209744874978
1921.75,755.727971238786
1922,757.246197602594
1922.25,758.764423966402
1922.5,760.28265033021
1922.75,761.800876694018
1923,763.319103057826
1923.25,764.837329421634
1923.5,766.355555785442
1923.75,767.87378214925
1924,768.79335520201
1924.25,770.02622738401
1924.5,770.908039923812
1924.75,770.819017298506
1925,769.553830576301
1925.25,767.13326495172
1925.5,763.66016408529
1925.75,760.242134686502
1926,758.673758909486
1926.25,760.62430017771
1926.5,765.523140510621
1926.75,770.986689682179
1927,774.685486450481
1927.25,776.285090933144
1927.5,777.225273729634
1927.75,778.951551309342
1928,781.282596407797
1928.25,782.1977536182
1928.5,779.612840828
1928.75,773.447098824175
1929,766.66214134328
1929.25,762.464040182519
1929.5,762.330238776808
1929.75,764.060660586528
1930,764.987812109738
1930.25,763.669801242146
1930.5,761.682723441572
1930.75,761.058118686889
1931,762.898527771032
1931.25,765.587018462337
1931.5,767.011809433794
1931.75,765.869460417417
1932,763.54991961879
1932.25,762.003416102132
1932.5,762.785145949445
1932.75,765.83749059879
1933,770.691288858004
1933.25,776.692907800855
1933.5,782.318755210313
1933.75,785.789026479912
1934,785.673399972524
1934.25,782.671265067312
1934.5,778.284115722898
1934.75,773.938671427705
1935,770.320383551949
1935.25,767.697368453664
1935.5,766.301775482754
1935.75,765.914281496965
1936,765.976438284547
1936.25,765.941031722417
1936.5,765.632658753341
1936.75,765.209693185667
1937,764.837218037243
1937.25,764.548499419684
1937.5,764.236972919388
1937.75,763.799231956546
1938,763.48002241221
1938.25,763.956125264334
1938.5,765.916015704791
1938.75,769.295144419046
1939,772.945911128511
1939.25,775.64170582341
1939.5,776.536026731047
1939.75,775.424112954125
1940,772.16627150766
1940.25,767.293904224841
1940.5,762.829369276735
1940.75,760.994713365685
1941,762.90667091424
1941.25,766.488035296081
1941.5,769.088269582935
1941.75,768.876396624594
1942,766.716480868541
1942.25,764.025741038475
1942.5,761.936583807902
1942.75,760.406119941769
1943,759.088340970802
1943.25,757.706783614252
1943.5,756.324605580326
1943.75,755.108477862184
1944,754.245801391278
1944.25,754.03676041966
1944.5,754.81975397352
1944.75,756.847002499977
1945,759.871489501289
1945.25,763.466913581154
1945.5,767.166117547624
1945.75,770.251722355394
1946,771.911157025184
1946.25,771.467596995137
1946.5,769.2431023969
1946.75,766.005201912406
1947,762.513651507249
1947.25,759.431515498534
1947.5,757.366907448463
1947.75,756.857430800274
1948,757.589398307062
1948.25,758.680812693631
1948.5,759.28307550841
1948.75,759.1397549603
1949,758.420186155753
1949.25,757.317664370506
1949.5,756.253115789819
1949.75,755.827403728144
1950,756.609625255834
1950.25,758.517137638515
1950.5,760.907083999508
1950.75,763.147972746046
1951,765.191710652013
1951.25,767.524090703165
1951.5,770.610997431403
1951.75,773.945175707681
1952,776.010081324099
1952.25,775.284059620946
1952.5,771.774536331456
1952.75,767.423455674324
1953,764.280010884407
1953.25,763.143931360554
1953.5,762.73148348662
1953.75,761.568955010618
1954,759.135044887432
1954.25,756.77800299573
1954.5,756.059580615576
1954.75,757.653450472857
1955,760.241583688076
1955.25,762.237047646353
1955.5,762.714104861115
1955.75,762.333575219801
1956,761.989226304758
1956.25,762.49490304463
1956.5,764.44442298123
1956.75,768.393840406997
1957,774.307239494237
1957.25,780.273668506903
1957.5,784.011808996149
1957.75,783.930799351059
1958,781.149989579967
1958.25,777.453618927729
1958.5,774.371757623047
1958.75,771.928654767217
1959,769.596091354696
1959.25,766.936963934138
1959.5,764.282367245252
1959.75,762.345705566479
1960,761.757721868973
1960.25,762.223718863493
1960.5,762.882667119064
1960.75,762.91325567969
1961,762.111790643847
1961.25,760.704140394754
1961.5,758.950283593986
1961.75,757.51164124359
1962,757.369862153265
1962.25,759.455943825314
1962.5,763.58935509614
1962.75,768.605067219272
1963,773.333967105518
1963.25,777.251080452299
1963.5,780.451618451377
1963.75,783.042789186207
1964,784.70159329821
1964.25,784.589257710419
1964.5,781.849934513999
1964.75,776.64157665685
1965,770.828619423072
1965.25,766.436643385909
1965.5,764.643380454603
1965.75,764.571477432809
1966,765.038506752942
1966.25,765.135557314144
1966.5,764.760130147782
1966.75,763.95761668346
1967,762.836326239766
1967.25,761.72603879907
1967.5,761.005238861096
1967.75,761.012414766974
1968,761.919572052496
1968.25,763.855405564554
1968.5,766.834906871658
1968.75,770.332877813277
1969,773.663867628234
1969.25,776.232012371442
1969.5,777.946117086741
1969.75,778.891503922251
1970,779.160241043314
1970.25,778.894329313662
1970.5,778.258731101435
1970.75,777.392660255347
1971,776.143368376119
1971.25,774.173829118785
1971.5,771.189614432926
1971.75,767.688036012151
1972,764.838204143041
1972.25,763.789570436928
1972.5,764.607337072346
1972.75,766.187025469741
1973,767.378910883594
1973.25,767.490583354274
1973.5,766.400786555213
1973.75,764.038183926058
1974,761.092681542693
1974.25,759.391889142777
1974.5,760.839707970615
1974.75,765.892568773182
1975,772.465809363905
1975.25,778.224227505267
1975.5,781.698004798596
1975.75,783.111620262802
1976,782.886074533477
1976.25,781.413494930602
1976.5,779.009422129516
1976.75,775.976841237152
1977,772.623388140859
1977.25,769.274907770857
1977.5,766.261700876583
1977.75,763.871074819641
1978,762.160034034823
1978.25,761.108792034569
1978.5,760.677531334002
1978.75,760.696047005052
1979,760.941825702326
1979.25,761.198984397971
1979.5,761.302452961462
1979.75,761.110241434429
1980,760.576410528078
1980.25,760.486476105783
1980.5,762.052570990753
1980.75,766.277978873857
1981,772.029067235669
1981.25,776.936172801263
1981.5,778.810812748859
1981.75,777.842022465229
1982,775.799761781478
1982.25,774.402666218695
1982.5,773.858652245565
1982.75,773.026621346096
1983,770.754699408823
1983.25,767.007833852912
1983.5,763.04563986126
1983.75,760.188371698994
1984,759.149281872492
1984.25,759.754567299161
1984.5,761.754274553014
1984.75,764.488470959237
1985,766.623428570373
1985.25,766.774242210429
1985.5,764.734019542813
1985.75,762.476674587404
1986,762.207038497455
1986.25,764.995449208702
1986.5,769.377796044629
1986.75,773.547795364203
1987,776.245749273756
1987.25,777.610778693021
1987.5,778.002579753076
1987.75,777.66541033172
1988,776.457136086372
1988.25,774.154872582282
1988.5,770.757559724996
1988.75,767.302597271563
1989,765.131015111307
1989.25,765.248712349636
1989.5,766.557715265097
1989.75,767.145599339872
1990,765.434360404333
1990.25,762.397848593267
1990.5,760.180496047442
1990.75,760.636468383041
1991,762.801231606343
1991.25,764.150963422455
1991.5,762.446033591919
1991.75,758.733668863232
1992,756.086674515616
1992.25,757.377528554145
1992.5,762.388707432119
1992.75,768.692284972394
1993,773.929151427044
1993.25,777.460779692247
1993.5,779.959805880777
1993.75,782.088807806206
1994,783.607410424164
1994.25,783.417927958999
1994.5,780.426226189527
1994.75,775.029380091264
1995,769.582536195643
1995.25,766.55830742057
1995.5,766.8466256817
1995.75,768.410992618247
1996,768.903602037062
1996.25,767.084918387324
1996.5,764.188215864156
1996.75,761.780610982693
1997,760.864706244997
1997.25,760.879044029548
1997.5,760.99364799953
1997.75,760.738997011033
1998,760.794745020367
1998.25,762.069048297013
1998.5,765.140606590508
1998.75,769.391093586329
1999,773.930404076898
1999.25,777.958349145241
1999.5,781.051958489078
1999.75,782.887166895538
2000,783.22474739786
2000.25,782.301272826866
2000.5,780.519080072663
2000.75,778.273506598936
2001,775.89876565443
2001.25,773.698128941621
2001.5,771.942597893168
2001.75,770.486467776534
2002,768.892510068665
2002.25,766.741717508935
2002.5,764.071242244769
2002.75,761.324632236368
2003,758.956546902522
2003.25,757.340058588142
2003.5,756.760534963086
2003.75,757.48860916358
2004,759.458107917794
2004.25,762.200922911739
2004.5,765.227893118576
2004.75,768.144849867258
2005,770.679617038743
2005.25,772.573355434787
2005.5,773.854586857508
2005.75,774.979720341462
2006,776.434825599274
2006.25,778.140255080855
2006.5,778.948602606961
2006.75,777.596063322246
2007,773.645797165345
2007.25,768.747983983738
2007.5,764.876901860647
2007.75,763.394392002929
2008,763.518038580295
2008.25,763.99641607512
2008.5,763.863780821283
2008.75,763.351421568716
2009,763.004100432493
2009.25,763.226520756604
2009.5,763.728799905272
2009.75,764.006137498748
2010,763.751869293218
2010.25,763.811082157543
2010.5,765.44382696873
2010.75,769.589308455725
2011,774.962627746801
2011.25,779.338285792995
2011.5,780.794158973838
2011.75,780.019317353984
2012,779.022913790862
2012.25,779.640289066849
2012.5,781.317051213713
2012.75,781.829071810619
2013,779.038296382097
2013.25,773.320961835287
2013.5,767.435224599021
2013.75,764.181952104604
2014,764.338893066035
2014.25,766.033215300956
2014.5,767.229440357136
2014.75,766.873981365594
2015,765.421171451449
2015.25,763.453326852517
2015.5,761.541995440321
2015.75,760.238861837345
2016,760.092188289972
2016.25,761.418529342827
2016.5,764.03573226487
2016.75,767.696387560369
2017,771.992507775058
2017.25,776.129382917425
2017.5,779.255569478784
2017.75,780.876404122231
2018,781.542168231729
2018.25,781.993448431449
2018.5,782.678233593805
2018.75,782.834731871931
2019,781.388529645643
2019.25,777.570589811104
2019.5,772.474014546549
2019.75,767.893725107703
2020,765.440365108423
2020.25,765.037698862022
2020.5,765.709523655272
2020.75,766.514975501186
2021,767.017564515338
2021.25,767.104120843247
2021.5,766.684637921722
2021.75,765.931128896495
2022,765.214618534721
2022.25,764.892169380731
2022.5,764.952952989943
2022.75,765.052232047326
2023,764.851085299531
2023.25,764.47074580109
2023.5,764.5208416775
2023.75,765.618325175886
2024,767.807907918023
2024.25,770.423797657861
2024.5,772.765213687032
2024.75,774.605664943118
2025,776.408476347569
2025.25,778.687187935459
2025.5,781.539856651048
2025.75,784.299063074609
2026,786.215525473997
2026.25,786.762348301284
2026.5,785.972515654631
2026.75,783.965739052887
2027,780.956811646059
2027.25,777.525934499063
2027.5,774.341076189842
2027.75,771.964395582451
2028,770.34466448787
2028.25,769.210158404069
2028.5,768.329702456259
2028.75,767.792632938711
2029,767.839593805002
2029.25,768.658039897048
2029.5,769.887595136002
2029.75,770.849408958682
2030,770.90760329166
2030.25,770.042941353764
2030.5,768.670730426652
2030.75,767.220989732542
2031,766.22737539023
2031.25,766.314614623138
2031.5,768.083471003821
2031.75,771.441357874085
2032,775.560505064398
2032.25,779.588749578651
2032.5,783.080007240598
2032.75,786.1025845893
2033,788.754325320434
2033.25,790.852893334504
2033.5,791.737959862713
2033.75,790.703506704394
2034,787.525726319647
2034.25,783.236034543822
2034.5,779.067487110386
2034.75,775.988605238358
2035,773.849988580494
2035.25,772.206975668358
2035.5,770.680597113867
2035.75,769.286665049924
2036,768.187771600719
2036.25,767.503146239916
2036.5,767.005669335785
2036.75,766.303045067621
2037,765.059386145001
2037.25,763.51980821545
2037.5,762.266873802251
2037.75,761.830497470811
2038,762.016900864926
2038.25,762.133477809813
2038.5,761.580003115798
2038.75,761.324160663803
2039,763.560284305998
2039.25,770.369582690394
2039.5,781.104602077565
2039.75,792.697242475784
2040,802.075356888118
2040.25,808.170669895104
2040.5,812.015562334169
2040.75,814.733032166035
2041,816.718015090841
2041.25,817.097373139137
2041.5,814.870789379018
2041.75,809.674560868787
2042,803.444871929026
2042.25,798.637101305484
2042.5,797.344158604409
2042.75,798.744847042709
2043,800.613775012293
2043.25,800.822927423006
2043.5,798.955124507786
2043.75,795.973746983414
2044,792.876227409278
2044.25,790.423023581311
2044.5,789.048455113583
2044.75,789.162009788158
2045,790.947799196292
2045.25,794.090087008562
2045.5,798.20596242731
2045.75,802.869593045491
2046,807.505618325222
2046.25,811.506136220001
2046.5,814.441585740423
2046.75,816.993105638218
2047,820.268706751669
2047.25,825.253995760098
2047.5,831.13460297465
2047.75,835.733105228964
2048,836.861293665223
2048.25,833.873114232004
2048.5,828.611168393595
2048.75,823.144053531888
2049,819.185724139544
2049.25,816.899350415155
2049.5,816.024329741474
2049.75,816.286578413275
2050,817.261870228252
2050.25,818.432093304722
2050.5,819.287308928652
2050.75,819.661248597582
2051,819.817521643681
2051.25,820.046447255181
2051.5,820.410692317178
2051.75,820.367886132711
2052,819.276258288751
2052.25,816.676132056107
2052.5,813.227011217273
2052.75,810.013306522084
2053,808.069746441183
2053.25,807.620465463964
2053.5,808.236225613373
2053.75,809.473616222694
2054,811.131015498613
2054.25,813.368619215531
2054.5,816.375929476915
2054.75,819.987792348184
2055,823.017255010608
2055.25,824.094453912234
2055.5,822.142121338917
2055.75,817.948958587013
2056,813.036606371113
2056.25,808.871142072972
2056.5,805.868121972573
2056.75,803.522663955056
2057,801.299983253867
2057.25,798.756414320103
2057.5,795.599992695107
2057.75,791.553240192656
2058,786.519949409042
2058.25,780.94457692104
2058.5,775.371934878235
2058.75,770.375768946274
2059,766.672367913171
2059.25,765.02184220523
2059.5,765.868973374374
2059.75,767.545216265969
2060,767.513620689166
2060.25,763.654158920242
2060.5,757.255861876111
2060.75,751.265165251264
2061,748.364420091644
2061.25,748.423870036984
2061.5,749.667451053093
2061.75,750.431027683928
2062,750.406921494383
2062.25,750.081501330778
2062.5,749.92436858043
2062.75,750.131320122145
2063,750.737886558206
2063.25,751.726355151762
2063.5,752.555640572622
2063.75,752.378338617878
2064,750.457670629195
2064.25,747.243062814699
2064.5,743.885674398752
2064.75,741.442592974981
2065,739.871129310354
2065.25,738.463877626791
2065.5,736.583909724903
2065.75,734.364625634537
2066,732.371050033208
2066.25,731.119026001564
2066.5,730.680762877981
2066.75,730.910544619328
2067,731.655089632728
2067.25,732.721583315875
2067.5,733.901346870862
2067.75,735.075550742855
2068,736.58967114558
2068.25,738.938652879799
2068.5,742.409116325053
2068.75,746.40033399826
2069,750.075448158308
2069.25,752.878213964714
2069.5,755.299413293111
2069.75,758.073975208674
2070,761.70803708393
2070.25,765.854156190767
2070.5,769.965868344725
2070.75,773.443520039422
2071,775.469054673087
2071.25,775.168366164385
2071.5,772.008315870501
2071.75,767.237558884139
2072,762.684849281577
2072.25,759.946612752684
2072.5,758.961142871334
2072.75,758.946859485548
2073,759.166146723052
2073.25,759.271790695143
2073.5,759.110325853294
2073.75,758.546816663559
2074,757.607248984767
2074.25,756.40574742998
2074.5,755.045541638152
2074.75,753.504357863156
2075,751.684154468898
2075.25,749.515270355498
2075.5,747.269157519845
2075.75,745.436867888087
2076,744.495463206984
2076.25,744.714699132104
2076.5,746.229451827765
2076.75,749.063169044364
2077,752.04531520502
2077.25,753.269065031473
2077.5,751.070247827946
2077.75,746.442517470053
2078,741.966336133462
2078.25,739.979688089487
2078.5,739.935767421748
2078.75,739.509129995041
2079,736.617033032841
2079.25,731.769754125355
2079.5,726.928126935899
2079.75,723.836478361717
2080,722.306028406788
2080.25,721.189424394484
2080.5,719.529303057309
2080.75,717.573677387777
2081,716.026555957254
2081.25,715.383181505671
2081.5,715.236969511829
2081.75,714.939160773167
2082,714.130801625329
2082.25,713.284989052552
2082.5,713.019406672309
2082.75,713.498793918151
2083,714.012533116301
2083.25,713.772808150714
2083.5,712.878009149436
2083.75,712.578261271234
2084,714.127484805289
2084.25,717.397378776472
2084.5,721.026934927066
2084.75,723.711906210672
2085,725.209868915723
2085.25,725.918655868879
2085.5,726.213228652072
2085.75,726.237201587809
2086,726.031633341599
2086.25,725.594236348578
2086.5,724.690728288477
2086.75,723.008739593265
2087,720.486260121446
2087.25,718.075086702219
2087.5,716.983022132766
2087.75,717.803192156799
2088,719.323629403953
2088.25,720.008622438734
2088.5,719.148685112424
2088.75,717.701830758754
2089,716.815559663905
2089.25,717.065046350541
2089.5,718.190503488502
2089.75,719.855503271857
2090,721.466079751064
2090.25,722.162617475838
2090.5,721.165620288481
2090.75,719.012715340748
2091,717.223530771796
2091.25,717.193036870901
2091.5,718.909424611919
2091.75,721.583572818485
2092,724.46061447902
2092.25,727.048350475017
2092.5,728.954952317598
2092.75,729.94058074181
2093,730.433281070656
2093.25,731.044701395919
2093.5,732.061188750258
2093.75,732.65622103663
2094,731.766397504747
2094.25,728.936309404973
2094.5,725.374293076948
2094.75,722.567585981946
2095,721.345742389389
2095.25,721.072323657248
2095.5,720.918658275652
2095.75,720.483918682523
2096,720.076333092685
2096.25,720.060820299818
2096.5,720.464153301089
2096.75,720.90110715234
2097,720.979573837393
2097.25,720.647685539368
2097.5,720.156557041346
2097.75,719.760817720515
2098,719.630993845598
2098.25,719.882445983776
2098.5,720.60330951518
2098.75,721.674977196419
2099,722.880993781077
2099.25,724.060632710941
2099.5,725.357261585448
2099.75,727.016431621028
2100,729.152599326934
2100.25,731.368839080017
2100.5,733.143692870048
2100.75,734.049641521981
2101,733.937809629613
2101.25,732.711560659156
2101.5,730.542232894708
2101.75,728.254413712849
2102,726.766151437065
2102.25,726.413241835805
2102.5,726.358335438172
2102.75,725.633736321346
2103,723.925915316437
2103.25,721.947968653968
2103.5,720.489094774135
2103.75,719.875928169054
2104,719.871985889052
2104.25,720.208151887206
2104.5,720.642644093435
2104.75,720.958256431465
2105,720.955462082816
2105.25,720.634311764419
2105.5,720.125653453668
2105.75,719.586253535275
2106,719.361250792869
2106.25,719.885853922682
2106.5,721.468857982458
2106.75,723.725638014505
2107,726.036040149013
2107.25,727.894065661676
2107.5,729.228532304085
2107.75,730.071646440396
2108,730.505915502042
2108.25,730.757781802338
2108.5,731.078309792364
2108.75,731.495790673259
2109,731.531533461504
2109.25,730.64165229537
2109.5,728.784420059402
2109.75,726.84402521297
2110,725.790951099104
2110.25,725.849350223508
2110.5,726.122021625161
2110.75,725.644567248316
2111,724.23187912189
2111.25,722.607851506009
2111.5,721.523917186715
2111.75,721.268184620752
2112,721.708163016421
2112.25,722.671827000215
2112.5,723.686204514941
2112.75,724.074861578858
2113,723.290213351019
2113.25,721.897593780695
2113.5,721.018074998543
2113.75,721.590715817707
2114,723.434229196615
2114.25,725.950120729497
2114.5,728.596226205645
2114.75,731.071760473584
2115,733.139825299354
2115.25,734.677842293668
2115.5,735.926430342097
2115.75,737.197507675746
2116,738.480083415473
2116.25,738.921684447809
2116.5,737.538034295346
2116.75,734.120737985404
2117,730.205675281858
2117.25,727.559463359241
2117.5,727.019177467944
2117.75,727.59325003285
2118,728.085091735553
2118.25,727.800291606266
2118.5,726.822758962971
2118.75,725.305905602088
2119,723.491039428627
2119.25,721.727409309121
2119.5,720.360223767222
2119.75,719.508481632244
2120,719.075025082463
2120.25,718.961797718528
2120.5,719.172610466866
2120.75,719.783063774065
2121,720.850086374514
2121.25,722.259345724707
2121.5,723.810125492174
2121.75,725.348168566366
2122,726.992262315689
2122.25,728.959305460637
2122.5,731.36501039403
2122.75,733.896765594841
2123,736.128798457125
2123.25,737.681968404427
2123.5,738.330481571057
2123.75,737.880301327751
2124,736.35830663877
2124.25,734.407728693509
2124.5,732.777455760548
2124.75,731.894461311353
2125,731.403260571298
2125.25,730.833248331672
2125.5,729.916635715561
2125.75,728.79312170521
2126,727.649991139278
2126.25,726.592193862984
2126.5,725.59017444159
2126.75,724.604838367727
2127,723.7077238537
2127.25,723.113426550468
2127.5,723.033770130449
2127.75,723.400782360871
2128,723.867989328053
2128.25,724.10809019779
2128.5,724.242690154443
2128.75,724.730150520449
2129,725.977121209807
2129.25,727.801089609118
2129.5,729.684737285058
2129.75,731.166233734288
2130,732.203324827644
2130.25,732.934617716587
2130.5,733.507486507288
2130.75,734.113703643705
2131,734.960252223626
2131.25,736.081112216133
2131.5,736.734408881135
2131.75,735.960885997945
2132,733.282052509204
2132.25,730.019923167713
2132.5,727.917660309903
2132.75,728.033287918171
2133,729.253069302472
2133.25,730.035749098324
2133.5,729.452100412848
2133.75,728.075879225552
2134,726.705455304756
2134.25,725.897981933355
2134.5,725.737041802259
2134.75,726.246582428621
2135,727.189156837383
2135.25,727.927277482329
2135.5,727.808332574221
2135.75,726.778923319962
2136,725.497357287672
2136.25,724.642458569999
2136.5,724.459174045481
2136.75,724.782950340856
2137,725.431527312764
2137.25,726.199317116138
2137.5,726.863794897261
2137.75,727.25226051834
2138,727.671961963825
2138.25,728.696751377541
2138.5,730.708176423307
2138.75,732.709675009277
2139,733.111287224153
2139.25,730.775289063594
2139.5,727.035391345853
2139.75,724.061225237203
2140,723.418097429844
2140.25,723.993935124347
2140.5,723.936440237535
2140.75,722.036618153652
2141,719.171313749032
2141.25,716.637873868037
2141.5,715.287370477591
2141.75,714.90062993143
2142,715.101745093931
2142.25,715.54301425805
2142.5,715.923725922837
2142.75,715.956220551083
2143,715.610963455136
2143.25,715.15527809732
2143.5,714.85272379063
2143.75,714.643241692396
2144,714.205915975547
2144.25,713.281678658959
2144.5,712.273036830631
2144.75,711.94970671284
2145,712.925400257916
2145.25,714.855207346491
2145.5,717.038651151024
2145.75,718.799926917322
2146,719.558781200382
2146.25,718.758674190381
2146.5,716.338382538656
2146.75,713.507816349367
2147,711.668572397424
2147.25,711.322067976831
2147.5,711.335320076878
2147.75,710.431919415456
2148,708.316344803676
2148.25,705.881101793171
2148.5,704.05164755104
2148.75,703.138618731994
2149,702.9573537775
2149.25,703.29200515439
2149.5,703.783997254337
2149.75,704.003796488054
2150,703.665129338801
2150.25,703.148501323115
2150.5,703.027125913182
2150.75,703.609581272924
2151,704.493677491187
2151.25,705.164446422232
2151.5,705.45101208409
2151.75,705.731044100117
2152,706.419677486078
2152.25,707.670063264379
2152.5,709.375313949255
2152.75,711.397966463395
2153,713.384519714633
2153.25,714.84657727214
2153.5,715.341844772036
2153.75,714.742609638974
2154,713.047465097069
2154.25,710.373827547302
2154.5,707.343942754122
2154.75,704.714165454992
2155,703.018058260026
2155.25,702.177182683816
2155.5,702.007194798728
2155.75,702.196243564122
2156,702.220391307363
2156.25,701.562253322561
2156.5,700.31893191905
2156.75,699.20354980835
2157,698.871868013085
2157.25,699.082007393082
2157.5,699.049642803803
2157.75,698.171107407388
2158,696.875916090673
2158.25,695.946113017894
2158.5,695.899970595456
2158.75,696.469115321782
2159,697.241726765165
2159.25,697.969074334377
2159.5,698.667817770216
2159.75,699.377275640065
2160,700.102048254707
2160.25,700.814396157876
2160.5,701.492104559918
2160.75,702.17560947122
2161,702.939305813872
2161.25,703.740548045713
2161.5,703.952304103014
2161.75,702.766626049813
2162,699.916617875555
2162.25,696.673060877598
2162.5,694.564730146637
2162.75,694.118323335921
2163,694.177096072789
2163.25,693.477380959349
2163.5,691.876532531837
2163.75,690.286662360685
2164,689.557838175994
2164.25,689.635494330527
2164.5,689.995917653567
2164.75,690.199166098832
2165,690.169804164413
2165.25,689.927315791178
2165.5,689.535134238932
2165.75,689.147528479721
2166,688.925314188839
2166.25,688.902783275376
2166.5,688.976496369783
2166.75,689.059287187243
2167,689.294275066275
2167.25,689.956275549353
2167.5,691.261403814066
2167.75,693.150351201919
2168,695.484241964643
2168.25,697.920400759729
2168.5,699.655769510556
2168.75,699.847666760796
2169,698.490278087134
2169.25,696.621252511786
2169.5,695.269455411128
2169.75,694.418065196454
2170,693.277761760452
2170.25,691.242367033474
2170.5,689.05051650208
2170.75,687.99197101567
2171,688.7980936482
2171.25,690.326038920244
2171.5,691.052861470161
2171.75,690.29145273494
2172,688.742341339838
2172.25,687.219920883195
2172.5,686.218423554607
2172.75,685.946469831028
2173,686.523086621298
2173.25,687.463396460703
2173.5,688.005580622575
2173.75,687.690771957096
2174,687.115375575682
2174.25,687.098521401966
2174.5,687.995198844867
2174.75,689.36476185157
2175,690.705068153539
2175.25,691.823787027661
2175.5,692.802005737536
2175.75,693.689335632583
2176,694.221379050033
2176.25,693.988156727911
2176.5,692.775372660082
2176.75,691.117983720288
2177,689.726762047398
2177.25,688.943423489243
2177.5,688.372846815791
2177.75,687.54795499839
2178,686.395879359107
2178.25,685.259083502912
2178.5,684.470117104894
2178.75,684.083024688951
2179,683.999566200593
2179.25,684.095436280332
2179.5,684.144686865367
2179.75,683.89632261941
2180,683.252319594552
2180.25,682.410052801147
2180.5,681.606837384627
2180.75,681.213119440268
2181,681.726995441412
2181.25,683.524068582205
2181.5,685.999901489616
2181.75,688.09604922327
2182,689.059720618413
2182.25,689.167777461723
2182.5,688.912141690023
2182.75,688.802389480802
2183,689.377367959611
2183.25,691.121102669051
2183.5,693.469291034602
2183.75,694.942944015731
2184,694.282729793419
2184.25,692.126210582241
2184.5,689.979747433357
2184.75,688.937555630946
2185,688.487559853985
2185.25,687.734820003769
2185.5,686.276825497711
2185.75,684.661350520789
2186,683.518807643407
2186.25,682.889529148812
2186.5,682.224314823705
2186.75,681.048334169869
2187,679.716236833378
2187.25,678.993160385779
2187.5,679.315794133364
2187.75,679.9323132301
2188,679.836765779941
2188.25,678.829885829184
2188.5,678.006640336282
2188.75,678.49368618682
2189,680.149239002947
2189.25,681.856288443875
2189.5,682.682122743897
2189.75,682.866665445001
2190,683.057524847421
2190.25,683.742075084685
2190.5,685.006953725696
2190.75,686.863360406116
2191,688.860387830067
2191.25,689.990209695696
2191.5,689.33402456436
2191.75,687.304800732288
2192,685.134434602303
2192.25,683.83662400942
2192.5,683.270047569901
2192.75,682.932235272968
2193,682.428423188772
2193.25,681.615041206809
2193.5,680.395839385154
2193.75,679.012216669079
2194,678.08760658795
2194.25,678.18038698683
2194.5,679.048541625759
2194.75,680.01323216519
2195,680.509109800545
2195.25,680.419347171274
2195.5,679.736948956759
2195.75,678.708842078513
2196,678.016130173048
2196.25,678.333883401714
2196.5,679.539286036967
2196.75,680.856730495681
2197,681.646979123999
2197.25,682.208112528395
2197.5,683.18700577659
2197.75,684.921351137641
2198,686.931317110454
2198.25,688.611244203796
2198.5,689.630984409766
2198.75,690.010013723519
2199,689.796259145691
2199.25,689.108708148299
2199.5,688.113400291942
2199.75,686.974986254024
2200,685.84594736403
2200.25,684.874462464913
2200.5,684.125496229331
2200.75,683.446999509093
2201,682.657506185263
2201.25,681.783758916066
2201.5,681.119424497511
2201.75,680.936075578444
2202,681.055653155687
2202.25,681.014920348888
2202.5,680.466102609847
2202.75,679.620776171987
2203,678.852958351365
2203.25,678.472460662656
2203.5,678.655490898432
2203.75,679.54241221638
2204,680.850829525408
2204.25,681.885548773678
2204.5,682.067511151068
2204.75,681.824898640917
2205,682.045994267542
2205.25,683.345001171478
2205.5,685.426027051796
2205.75,687.804586376433
2206,689.904003716485
2206.25,691.006187434883
2206.5,690.443536007181
2206.75,688.52435125779
2207,686.329703505412
2207.25,684.807190845548
2207.5,683.85000187323
2207.75,682.91134490093
2208,681.665848404271
2208.25,680.487773617809
2208.5,679.880344185934
2208.75,679.920256329127
2209,680.050715876963
2209.25,679.706868156449
2209.5,678.902331822601
2209.75,678.062820187599
2210,677.538787825382
2210.25,677.238635737293
2210.5,676.926615509789
2210.75,676.492553070569
2211,676.108653591244
2211.25,675.981519774748
2211.5,676.218008306127
2211.75,676.822451587736
2212,677.777547388842
2212.25,678.934694063106
2212.5,680.084041673795
2212.75,681.107416378804
2213,682.178742659127
2213.25,683.520326260952
2213.5,684.875436193833
2213.75,685.291213375295
2214,683.872358996169
2214.25,681.245158198916
2214.5,679.130770480125
2214.75,678.887569619789
2215,679.687325322138
2215.25,679.936293476595
2215.5,678.660478452327
2215.75,676.394292881043
2216,673.890618889068
2216.25,671.716253274576
2216.5,670.225783457205
2216.75,669.695627267754
2217,669.821889078158
2217.25,670.001663755639
2217.5,669.73507724428
2217.75,668.864969907442
2218,667.310838412744
2218.25,665.289477194826
2218.5,663.414429679647
2218.75,662.270457501893
2219,661.895044913768
2219.25,662.018011805592
2219.5,662.449962342849
2219.75,663.278219609064
2220,664.637492882134
2220.25,666.33396869314
2220.5,667.766630170662
2220.75,668.364710415159
2221,668.022498212659
2221.25,666.86602788724
2221.5,665.02112055489
2221.75,662.607751689103
2222,659.751396826227
2222.25,656.804226963448
2222.5,654.39640456214
2222.75,653.06504282813
2223,652.473772479043
2223.25,651.870719872933
2223.5,650.796934553755
2223.75,649.527472231874
2224,648.435212895778
2224.25,647.636180429723
2224.5,647.023337102896
2224.75,646.459034260188
2225,645.70038283639
2225.25,644.48129846226
2225.5,642.845813011081
2225.75,641.273897678319
2226,640.204599050028
2226.25,639.515088485586
2226.5,638.824293871678
2226.75,637.85088634623
2227,636.523297624208
2227.25,634.826653836185
2227.5,633.097526328511
2227.75,631.896792563643
2228,631.563952470935
2228.25,631.818967048172
2228.5,632.285357417594
2228.75,632.726180196577
2229,633.0124243535
2229.25,633.07382546195
2229.5,633.021548892194
2229.75,632.99716288736
2230,633.020153990511
2230.25,632.99953515208
2230.5,632.833089497928
2230.75,632.390160340564
2231,631.540437597066
2231.25,630.344217731751
2231.5,629.065602133961
2231.75,627.961801664125
2232,627.210807051173
2232.25,626.958480486824
2232.5,627.060309957386
2232.75,627.023509065071
2233,626.451707967105
2233.25,625.539624048242
2233.5,624.660690777402
2233.75,623.919433479074
2234,623.083987328533
2234.25,621.964724003715
2234.5,620.700425416178
2234.75,619.533356028071
2235,618.622316853601
2235.25,618.023846772501
2235.5,617.774703042449
2235.75,617.847273627638
2236,618.191187102345
2236.25,618.6592522177
2236.5,618.999730571031
2236.75,619.044779473483
2237,618.98445018964
2237.25,619.080882588319
2237.5,619.227951774011
2237.75,618.972389999905
2238,618.08878082998
2238.25,617.191466304707
2238.5,617.029581284634
2238.75,617.548509243077
2239,618.025618196115
2239.25,618.012848027457
2239.5,617.93146131259
2239.75,618.304998663005
2240,618.898154172338
2240.25,618.938125089804
2240.5,618.091875842503
2240.75,617.157719137501
2241,617.017977033761
2241.25,617.562677734468
2241.5,618.070491145821
2241.75,618.130281945374
2242,618.014368706106
2242.25,618.037220005257
2242.5,618.10311925851
2242.75,617.903629569329
2243,617.393916862814
2243.25,617.016207629519
2243.5,617.182739527569
2243.75,617.696411140335
2244,618.092610333867
2244.25,618.299226933673
2244.5,618.858517869458
2244.75,620.185296486448
2245,621.585080512012
2245.25,621.963607835921
2245.5,621.12154173646
2245.75,620.076537735632
2246,619.733091612364
2246.25,619.896747982714
2246.5,620.009172640812
2246.75,619.918601453478
2247,619.981375980626
2247.25,620.452537029063
2247.5,620.939032875903
2247.75,620.866631468625
2248,620.106707972957
2248.25,619.03173110802
2248.5,618.005421547635
2248.75,617.236992443266
2249,616.884564064144
2249.25,616.895111003251
2249.5,617.001766711415
2249.75,617.004010848957
2250,616.981029280622
2250.25,617.06358505838
2250.5,617.154828385165
2250.75,616.962961734712
2251,616.308482180532
2251.25,615.373490642414
2251.5,614.418598538825
2251.75,613.838927771567
2252,614.125894064212
2252.25,615.380634740387
2252.5,616.732908860807
2252.75,617.245125000892
2253,616.788205160885
2253.25,615.700963527434
2253.5,614.35770699709
2253.75,613.192342813609
2254,612.603786005294
2254.25,612.654049205064
2254.5,613.23919885306
2254.75,613.983180032808
2255,614.07839662179
2255.25,612.932042303146
2255.5,611.446803392544
2255.75,611.034476318291
2256,611.761808502886
2256.25,612.016706113057
2256.5,610.60773287313
2256.75,608.636208923925
2257,607.76048322918
2257.25,608.248158990019
2257.5,609.058953019121
2257.75,609.458159291054
2258,609.796676548594
2258.25,610.571282235147
2258.5,611.551198401232
2258.75,612.024469294304
2259,611.682620526109
2259.25,611.097709257716
2259.5,610.874779995656
2259.75,610.959404208147
2260,610.978207491272
2260.25,610.848151433708
2260.5,610.951609172953
2260.75,611.60839109845
2261,612.539457254317
2261.25,613.257430428259
2261.5,613.450114842632
2261.75,613.012860044661
2262,612.004977213124
2262.25,611.124104595473
2262.5,611.190627360443
2262.75,612.132633856433
2263,613.057006315541
2263.25,613.403687628119
2263.5,613.732769173362
2263.75,614.727810413651
2264,615.879995132303
2264.25,615.848459112803
2264.5,614.1383627525
2264.75,612.293499557038
2265,611.968141049131
2265.25,613.021381926407
2265.5,614.302616455951
2265.75,615.154731535144
2266,615.85456978715
2266.25,616.751009492896
2266.5,617.986494565045
2266.75,619.60948211206
2267,621.424219832775
2267.25,622.871402298989
2267.5,623.464084752866
2267.75,623.316652893805
2268,622.763914620147
2268.25,622.177565864173
2268.5,621.979376751823
2268.75,622.534120497456
2269,623.866457395454
2269.25,625.874623123608
2269.5,628.150457638014
2269.75,629.887968156777
2270,630.44560127376
2270.25,630.214840589052
2270.5,629.922434853248
2270.75,629.753850614501
2271,629.153147638349
2271.25,627.675920977121
2271.5,625.887258041587
2271.75,624.726201180851
2272,624.71623858147
2272.25,625.753975520926
2272.5,627.55236974544
2272.75,628.977378545833
2273,628.581650216565
2273.25,626.157554143058
2273.5,623.385436156179
2273.75,621.840481783097
2274,621.294664010591
2274.25,620.776903682281
2274.5,620.028984796439
2274.75,619.904811445767
2275,621.091508072275
2275.25,622.608843185099
2275.5,622.848943414209
2275.75,621.344204573424
2276,619.239637271743
2276.25,617.622533640386
2276.5,616.535845793132
2276.75,615.654548042491
2277,614.985737645002
2277.25,614.968200661312
2277.5,615.851439572058
2277.75,616.828676185539
2278,616.816038830788
2278.25,615.818130700402
2278.5,614.997196242365
2278.75,615.1319216444
2279,615.286365606454
2279.25,614.181712288266
2279.5,611.928149207537
2279.75,609.85957550352
2280,608.945089542
2280.25,608.903894546114
2280.5,609.234404060564
2280.75,609.665396928993
2281,610.081381626264
2281.25,610.323342334285
2281.5,610.132143965368
2281.75,609.285400309743
2282,607.962671410921
2282.25,606.535710412096
2282.5,605.240546602829
2282.75,604.100453896837
2283,603.122788845672
2283.25,602.327882522649
2283.5,601.738000501216
2283.75,601.317804997191
2284,600.972624520865
2284.25,600.612468300861
2284.5,600.170618116064
2284.75,599.583639783592
2285,598.773757641345
2285.25,597.655934060004
2285.5,596.309412315972
2285.75,595.110267748552
2286,594.392695578542
2286.25,594.076967347549
2286.5,593.943763147396
2286.75,593.909596769961
2287,594.025110563793
2287.25,594.226837649486
2287.5,594.123914312111
2287.75,593.361105973711
2288,592.368089966897
2288.25,591.962304750142
2288.5,592.371490478164
2288.75,593.00471397587
2289,593.393517706414
2289.25,593.7796467811
2289.5,594.535777944878
2289.75,595.490306556627
2290,596.093328047489
2290.25,595.980146023855
2290.5,595.149783689398
2290.75,593.732308449073
2291,592.38459098379
2291.25,591.920360371416
2291.5,592.389921870207
2291.75,593.074136779251
2292,593.379330617279
2292.25,593.147124375627
2292.5,592.345309373741
2292.75,591.388439539159
2293,590.904056980438
2293.25,590.984166250569
2293.5,590.994840701808
2293.75,590.422953505216
2294,589.4020887755
2294.25,588.225472130467
2294.5,587.281219537117
2294.75,587.014931665175
2295,587.466074685401
2295.25,587.985932257593
2295.5,587.976630523678
2295.75,587.380053852774
2296,586.318334620681
2296.25,585.286057330062
2296.5,585.058960488184
2296.75,585.875880273976
2297,586.92805999
2297.25,587.479580526425
2297.5,587.791443356649
2297.75,588.401399311007
2298,589.055376102267
2298.25,588.83517071988
2298.5,587.468061054079
2298.75,586.113826690815
2299,585.896510584371
2299.25,586.574519269694
2299.5,587.399826791002
2299.75,587.920006857171
2300,587.969550708477
2300.25,587.55276393025
2300.5,587.062988469411
2300.75,586.88764401355
2301,586.956199779035
2301.25,586.999893018474
2301.5,586.733618679158
2301.75,585.855597713847
2302,584.368661397796
2302.25,583.138257077686
2302.5,583.028112307063
2302.75,583.670514231891
2303,584.131081649519
2303.25,584.321838712895
2303.5,585.14487313768
2303.75,587.015820652505
2304,588.764779980222
2304.25,589.127397430328
2304.5,588.441027972694
2304.75,587.816581057014
2305,587.762608116194
2305.25,588.017627492806
2305.5,588.353514421867
2305.75,588.821234811475
2306,589.516441458363
2306.25,590.393167553976
2306.5,591.320465947246
2306.75,592.02212451186
2307,592.007870105322
2307.25,590.979087072359
2307.5,589.50982627229
2307.75,588.37098298231
2308,587.902252057643
2308.25,588.125292137324
2308.5,588.920134463497
2308.75,589.914229085414
2309,590.725384523762
2309.25,591.067262685119
2309.5,590.706073159116
2309.75,589.798085353892
2310,588.841549539044
2310.25,588.215455188246
2310.5,587.994860213098
2310.75,588.191851352727
2311,588.684483092816
2311.25,589.302732888162
2311.5,590.059137498844
2311.75,591.159549945716
2312,592.607932867177
2312.25,593.81947077937
2312.5,594.176897736351
2312.75,593.650755726814
2313,592.50996237139
2313.25,591.123136271514
2313.5,589.99164166203
2313.75,589.528105745893
2314,589.763720678255
2314.25,590.607199523993
2314.5,591.597366031083
2314.75,592.029091597178
2315,591.656158758378
2315.25,591.03960809508
2315.5,590.672791818822
2315.75,590.297252650092
2316,589.457427045303
2316.25,588.408583682653
2316.5,588.014130404072
2316.75,588.563930048113
2317,589.016821478371
2317.25,588.399070765147
2317.5,587.324740716165
2317.75,586.988738853576
2318,587.535463012945
2318.25,588.030616429571
2318.5,587.827155177948
2318.75,587.162390815072
2319,586.417377402448
2319.25,585.974265408849
2319.5,586.202702216634
2319.75,587.07318973421
2320,588.092161796657
2320.25,588.818049954039
2320.5,589.042510858131
2320.75,588.630032393132
2321,587.704911523272
2321.25,586.528966417636
2321.5,585.463187658595
2321.75,584.999159956466
2322,585.378632028953
2322.25,585.931057548013
2322.5,585.872828929022
2322.75,585.31904409018
2323,584.9041356699
2323.25,584.892287458646
2323.5,585.001154890818
2323.75,584.912691625
2324,584.335968963887
2324.25,583.053019938922
2324.5,581.587320897103
2324.75,580.913413471868
2325,581.31325003558
2325.25,582.010414294809
2325.5,582.390728678248
2325.75,582.787165901206
2326,583.703313610991
2326.25,585.072949755584
2326.5,586.485803494227
2326.75,587.567044907415
2327,588.000176734997
2327.25,587.655834455739
2327.5,587.103656372522
2327.75,587.006672074149
2328,587.156250117277
2328.25,586.784642528811
2328.5,585.761042378928
2328.75,585.008512272186
2329,585.24675424692
2329.25,585.867746161565
2329.5,585.958834018372
2329.75,585.446056759465
2330,584.854203898353
2330.25,584.452025036417
2330.5,584.030126391604
2330.75,583.434916685892
2331,583.011599530331
2331.25,583.206269185257
2331.5,583.778873040369
2331.75,583.97555699044
2332,583.518391810067
2332.25,583.016485988112
2332.5,582.989173975522
2332.75,583.073460852217
2333,582.697012795139
2333.25,582.09588554954
2333.5,582.111179019286
2333.75,583.005607746575
2334,583.964988330666
2334.25,584.259587736674
2334.5,584.089786610412
2334.75,583.909735288105
2335,583.904174327122
2335.25,584.055038253312
2335.5,584.21849636878
2335.75,584.0313687476
2336,583.246935009744
2336.25,582.289482626399
2336.5,581.753282901227
2336.75,581.769267900637
2337,582.114665579015
2337.25,582.577809140024
2337.5,582.983396596724
2337.75,583.179605251744
2338,583.106720567241
2338.25,582.745032790601
2338.5,582.258560504137
2338.75,581.945220606303
2339,581.925308239213
2339.25,581.998278973219
2339.5,581.987185165808
2339.75,581.973930877272
2340,582.111537539128
2340.25,582.513967323251
2340.5,583.26458372542
2340.75,584.243291940615
2341,584.985382614458
2341.25,585.141406044409
2341.5,585.018436117044
2341.75,585.082643372981
2342,585.504221936876
2342.25,586.240290289896
2342.5,587.15607336947
2342.75,587.963664496616
2343,588.383243774313
2343.25,588.246902776408
2343.5,587.453654122871
2343.75,586.425672448647
2344,585.993100994613
2344.25,586.447028481897
2344.5,586.978096480311
2344.75,586.884498290097
2345,586.773146919432
2345.25,587.62978529144
2345.5,589.182985024802
2345.75,590.053157890317
2346,589.485793233118
2346.25,588.2088292487
2346.5,587.1041306083
2346.75,586.74673775756
2347,587.55384113858
2347.25,589.091791795203
2347.5,590.049516983517
2347.75,589.825600138901
2348,589.806262208487
2348.25,591.386993574374
2348.5,593.466201869448
2348.75,593.810021854243
2349,592.012172862092
2349.25,589.930520138961
2349.5,589.039038853334
2349.75,588.972704984129
2350,589.037084302994
2350.25,589.346864895896
2350.5,590.504639151432
2350.75,592.432674635068
2351,593.970931099188
2351.25,594.167845273668
2351.5,593.409833415539
2351.75,592.426944754513
2352,591.563669105225
2352.25,590.861866272802
2352.5,590.482684625749
2352.75,590.856492601385
2353,592.249644651038
2353.25,593.699932788472
2353.5,593.835862698696
2353.75,592.740108124309
2354,591.981338706312
2354.25,592.4655289071
2354.5,593.027415869564
2354.75,592.335626241409
2355,590.80180898974
2355.25,589.723448837744
2355.5,589.635450133072
2355.75,590.006309493852
2356,590.36873155564
2356.25,590.799020453683
2356.5,591.461907808616
2356.75,592.024359626544
2357,591.830200472667
2357.25,590.827541939581
2357.5,590.02177784116
2357.75,590.298219771296
2358,591.408422953928
2358.25,592.75088213336
2358.5,593.768776798429
2358.75,593.944944249548
2359,593.151886693262
2359.25,592.138677781525
2359.5,591.628444657079
2359.75,591.331329308626
2360,590.556492197594
2360.25,589.432941908241
2360.5,589.02037162666
2360.75,589.88078554362
2361,590.890124548862
2361.25,590.762074155075
2361.5,589.698880347999
2361.75,588.696487429481
2362,588.224456396543
2362.25,587.997352898122
2362.5,587.793233348481
2362.75,587.855248905673
2363,588.492113379233
2363.25,589.458346498381
2363.5,590.148948459377
2363.75,590.263588837082
2364,590.017642917922
2364.25,589.640147532121
2364.5,589.1971416735
2364.75,588.710472970567
2365,588.255100554687
2365.25,587.947844274264
2365.5,587.861137682605
2365.75,587.974520895433
2366,588.26093315571
2366.25,588.720419208722
2366.5,589.350948495554
2366.75,589.91331597114
2367,589.949225361628
2367.25,589.366352388031
2367.5,588.97530089041
2367.75,589.585266289446
2368,591.047647336551
2368.25,592.799915606636
2368.5,594.29775384067
2368.75,595.01927029073
2369,594.736411619042
2369.25,594.120777954837
2369.5,593.929501956251
2369.75,594.049858991238
2370,593.875874862897
2370.25,593.299483640061
2370.5,592.995558295271
2370.75,593.516840059764
2371,594.551390990679
2371.25,595.564247277712
2371.5,596.390018047886
2371.75,597.158806494423
2372,597.842974915808
2372.25,598.049032466486
2372.5,597.443201036788
2372.75,596.452222789768
2373,595.813761571087
2373.25,595.779858381212
2373.5,596.009684302492
2373.75,596.172693240338
2374,596.101836510109
2374.25,595.673105761409
2374.5,594.845213146581
2374.75,593.633368298046
2375,592.218309442114
2375.25,591.081133025431
2375.5,590.64038081438
2375.75,590.798160285643
2376,591.279915357189
2376.25,591.787625472696
2376.5,592.002270472735
2376.75,591.739010363075
2377,591.141910750962
2377.25,590.387511382394
2377.5,589.529416756182
2377.75,588.569964794164
2378,587.628512547898
2378.25,586.962659872998
2378.5,586.655510655137
2378.75,586.216638901824
2379,585.132419807872
2379.25,583.711682276211
2379.5,582.694135925488
2379.75,582.286187961511
2380,581.975130182014
2380.25,581.324154608064
2380.5,580.321949189624
2380.75,579.088759848752
2381,578.136403255202
2381.25,578.169865085428
2381.5,579.143466996079
2381.75,580.056626315091
2382,580.215027135188
2382.25,580.027080828747
2382.5,580.025107357383
2382.75,580.089782332896
2383,579.807375470639
2383.25,579.245146962813
2383.5,579.0100236552
2383.75,579.419852838297
2384,579.945117806277
2384.25,579.988572018339
2384.5,579.45093886539
2384.75,578.445522276079
2385,577.138068365665
2385.25,575.746122787465
2385.5,574.554885998554
2385.75,574.001759498663
2386,574.371516985081
2386.25,574.950660105542
2386.5,574.734828343383
2386.75,573.736356954785
2387,572.77697077671
2387.25,572.293263036064
2387.5,572.002123042087
2387.75,571.699819037968
2388,571.806186628299
2388.25,572.810429562129
2388.5,574.292432886921
2388.75,575.317714394581
2389,575.455458268264
2389.25,574.908255660857
2389.5,573.974515144559
2389.75,573.111770097489
2390,572.742196770732
2390.25,572.845643657248
2390.5,573.214783454839
2390.75,573.675026710178
2391,574.082925740019
2391.25,574.27327922851
2391.5,574.034210666254
2391.75,573.249061145517
2392,572.2882493213
2392.25,571.652177124421
2392.5,571.626660682969
2392.75,572.344374695167
2393,573.6709988007
2393.25,575.084308118977
2393.5,576.057537946089
2393.75,576.150922774633
2394,575.06837374752
2394.25,573.55394724483
2394.5,572.832902493185
2394.75,573.247588861478
2395,574.160807415201
2395.25,575.066342492194
2395.5,575.899725747882
2395.75,576.627832968214
2396,577.015205546478
2396.25,576.785419716581
2396.5,576.213113109685
2396.75,576.028019459681
2397,576.496968541207
2397.25,576.989582747396
2397.5,576.985276862441
2397.75,576.91244652461
2398,577.431905508793
2398.25,578.748224544913
2398.5,580.747290848558
2398.75,582.70399860361
2399,582.975940103169
2399.25,580.708922717637
2399.5,578.289352009362
2399.75,578.537670689498
2400,580.797146042178
2400.25,582.343106846857
2400.5,582.231820608362
2400.75,582.013151992798
2401,582.837914193773
2401.25,583.855595961789
2401.5,583.928972267933
2401.75,583.29971016432
2402,582.962359908907
2402.25,583.333528567153
2402.5,584.039502818342
2402.75,584.778492650691
2403,585.683621050594
2403.25,586.937156770918
2403.5,588.301072280727
2403.75,589.303780479955
2404,589.591875174667
2404.25,588.980045072463
2404.5,587.532369973109
2404.75,586.211010220346
2405,586.092986490401
2405.25,587.098169362135
2405.5,588.394538192138
2405.75,589.405674877563
2406,589.988939195773
2406.25,590.107452176931
2406.5,590.018138899375
2406.75,590.034364924187
2407,590.106153870635
2407.25,589.910421993158
2407.5,589.387799415554
2407.75,589.009995162167
2408,589.198597855724
2408.25,589.743545754897
2408.5,590.242307085021
2408.75,590.871056381382
2409,592.338817412124
2409.25,594.644700092526
2409.5,596.016129534981
2409.75,594.803411392921
2410,592.192650196852
2410.25,590.589534473398
2410.5,590.881495054816
2410.75,592.068843919841
2411,593.20300283695
2411.25,593.907821186993
2411.5,593.98418670377
2411.75,593.83392529476
2412,594.217612451218
2412.25,595.252686708574
2412.5,595.987578386854
2412.75,595.615861994519
2413,594.525053067422
2413.25,593.452361451113
2413.5,592.888089161649
2413.75,593.10532800183
2414,594.173082299916
2414.25,595.688532126833
2414.5,597.204859370501
2414.75,598.460524638082
2415,599.277011491848
2415.25,599.495173767326
2415.5,598.979372929654
2415.75,597.825962994168
2416,596.993334607985
2416.25,597.570527977383
2416.5,599.690881224981
2416.75,602.800499651338
2417,606.166158211612
2417.25,608.725243930267
2417.5,609.547880775845
2417.75,608.858022386491
2418,607.355392444561
2418.25,605.795179905924
2418.5,605.003734710091
2418.75,605.524579523892
2419,606.613783438304
2419.25,607.224726057538
2419.5,607.398374646862
2419.75,608.148138202162
2420,609.955838627627
2420.25,611.692217579975
2420.5,612.064052996676
2420.75,611.104128103319
2421,609.663829800715
2421.25,608.470694484013
2421.5,607.97680408162
2421.75,608.561419769525
2422,610.30668412326
2422.25,613.145158577836
2422.5,616.301114516132
2422.75,617.984659095607
2423,616.850365004895
2423.25,614.255499882375
2423.5,612.380651939358
2423.75,611.950829649735
2424,612.000608309926
2424.25,611.770181591847
2424.5,611.734900934507
2424.75,612.642872924879
2425,614.39633335542
2425.25,616.141375940644
2425.5,617.249325192706
2425.75,617.851158501689
2426,618.200402979139
2426.25,618.283852287674
2426.5,617.900106932685
2426.75,617.243793921925
2427,617.511957472304
2427.25,619.873823520005
2427.5,623.528438850797
2427.75,626.475768378385
2428,627.520098902097
2428.25,627.223415548865
2428.5,626.329427575343
2428.75,625.136256082864
2429,623.688165383463
2429.25,622.28864903176
2429.5,621.821279263584
2429.75,623.098693596591
2430,625.436400233642
2430.25,627.288615734756
2430.5,627.967137410822
2430.75,628.619995324321
2431,630.42279627961
2431.25,632.505573983119
2431.5,632.832398971683
2431.75,630.476495296836
2432,627.050657875215
2432.25,624.409800988561
2432.5,623.150987536718
2432.75,623.051975553824
2433,623.776257926571
2433.25,624.736268916138
2433.5,625.338887849849
2433.75,625.374955235577
2434,624.8826580312
2434.25,623.912575941369
2434.5,622.535570243981
2434.75,620.823641054483
2435,618.826684257257
2435.25,616.581629452994
2435.5,614.481113469524
2435.75,613.759483602074
2436,615.508219750924
2436.25,618.193994604708
2436.5,618.79917702526
2436.75,616.274934064307
2437,613.373694617109
2437.25,612.856461714249
2437.5,614.163869565352
2437.75,615.176023862907
2438,614.741576634535
2438.25,613.249201573898
2438.5,611.213996662947
2438.75,609.097884676277
2439,607.339605852825
2439.25,606.253051239779
2439.5,605.996445296938
2439.75,606.599540398408
2440,607.593264852353
2440.25,608.387277236752
2440.5,608.563293480405
2440.75,607.850682873708
2441,606.244374913741
2441.25,604.45446276674
2441.5,603.282041638526
2441.75,603.208555153612
2442,604.517925645562
2442.25,606.876123489568
2442.5,608.846879052664
2442.75,609.179017217833
2443,608.43359089613
2443.25,607.821434777829
2443.5,607.62518547946
2443.75,607.004864739631
2444,605.389156917406
2444.25,603.567044789138
2444.5,602.616392431968
2444.75,602.667065084194
2445,603.055345862511
2445.25,603.356993451563
2445.5,603.81533684975
2445.75,604.705762317099
2446,605.665218402555
2446.25,606.004829618854
2446.5,605.566032650215
2446.75,605.02904736358
2447,605.081875570585
2447.25,606.060664221302
2447.5,608.157450308203
2447.75,610.892929295566
2448,613.087768681385
2448.25,613.935319811493
2448.5,614.001139757856
2448.75,614.073927036697
2449,613.957558897925
2449.25,612.70731921016
2449.5,610.150405113531
2449.75,608.158797867754
2450,608.688386984623
2450.25,611.159213493617
2450.5,613.48810586275
2450.75,614.52956716509
2451,614.928329441419
2451.25,615.37525506681
2451.5,615.493783535421
2451.75,614.466439741354
2452,612.609930100586
2452.25,611.916073092551
2452.5,613.974016055835
2452.75,617.396356640862
2453,619.82032881118
2453.25,620.394371510482
2453.5,620.016589645946
2453.75,619.535472893868
2454,619.151600155514
2454.25,618.896508052627
2454.5,619.024444701412
2454.75,620.019348430583
2455,622.012954219025
2455.25,623.73815688817
2455.5,623.690744498896
2455.75,622.352989116725
2456,622.033347224819
2456.25,624.278903666611
2456.5,627.661103975259
2456.75,630.15708967064
2457,631.09335210874
2457.25,630.985918517899
2457.5,630.404946421924
2457.75,629.969190204092
2458,630.268293048119
2458.25,631.003940221907
2458.5,631.008983358706
2458.75,629.524855120349
2459,627.635728301011
2459.25,626.854907021003
2459.5,627.385347296059
2459.75,627.992092191161
2460,627.705467968866
2460.25,627.100314995214
2460.5,627.15842720526
2460.75,627.861614195121
2461,628.035599313075
2461.25,626.786347701303
2461.5,624.888485393463
2461.75,623.598724064639
2462,623.422083973285
2462.25,623.947859250969
2462.5,624.74777758622
2462.75,625.581389981426
2463,626.264174030296
2463.25,626.540743531126
2463.5,626.071178977138
2463.75,624.663355701682
2464,622.882561923989
2464.25,621.515961721261
2464.5,620.930160311618
2464.75,620.97956603309
2465,621.446522955722
2465.25,621.914621756248
2465.5,621.922800806216
2465.75,621.457020257468
2466,621.0090528502
2466.25,620.955809420692
2466.5,621.042427524321
2466.75,620.854229167291
2467,620.373622024893
2467.25,620.0005783432
2467.5,620.138506737556
2467.75,621.12455585353
2468,623.223671371151
2468.25,625.520064990704
2468.5,625.967829048405
2468.75,623.397537953606
2469,620.022020958757
2469.25,618.70465814678
2469.5,619.744206466792
2469.75,621.035834925833
2470,621.161163976734
2470.25,621.394507824131
2470.5,623.460865130483
2470.75,626.831632222576
2471,629.076303513886
2471.25,628.615407279328
2471.5,626.765423052847
2471.75,625.357155793288
2472,625.168383555846
2472.25,626.078789427668
2472.5,627.788157002315
2472.75,629.486454661246
2473,630.293022005857
2473.25,629.994386204463
2473.5,628.958034324569
2473.75,627.591985759793
2474,626.380768654441
2474.25,625.811685579752
2474.5,626.062813507749
2474.75,627.016466855936
2475,628.568659173996
2475.25,630.713676408249
2475.5,633.445617295269
2475.75,636.223908378578
2476,637.980394482183
2476.25,638.065389228754
2476.5,637.717834297308
2476.75,638.644969082981
2477,641.296864105674
2477.25,644.594944707949
2477.5,647.50217318723
2477.75,649.76737277507
2478,651.422262715601
2478.25,652.250606065128
2478.5,651.607399524878
2478.75,648.936577546482
2479,645.091498780733
2479.25,641.78115589347
2479.5,640.199538733702
2479.75,639.905477147536
2480,640.149059761403
2480.25,640.338012819816
2480.5,640.030737310503
2480.75,638.908201646842
2481,637.181228688637
2481.25,635.207918786161
2481.5,633.218785241101
2481.75,631.277437533001
2482,629.52409562654
2482.25,628.647669294555
2482.5,629.532519824857
2482.75,632.08137775672
2483,634.658785290935
2483.25,635.735960427709
2483.5,635.489406207258
2483.75,634.827026115779
2484,634.21940585918
2484.25,633.335327710488
2484.5,631.859299209572
2484.75,630.403472606862
2485,630.076181650181
2485.25,631.260241822467
2485.5,632.715968603613
2485.75,633.113588179005
2486,632.537643284933
2486.25,631.948589339622
2486.5,631.92709973685
2486.75,632.042687622806
2487,631.753919023249
2487.25,631.200161845517
2487.5,631.015667791711
2487.75,631.595770124955
2488,632.578762264319
2488.25,633.449318776542
2488.5,633.50738601898
2488.75,631.898954250046
2489,628.383200519825
2489.25,624.92691432375
2489.5,623.885019487561
2489.75,625.311094057523
2490,627.015079217876
2490.25,627.336481156109
2490.5,627.004941647703
2490.75,627.264906604855
2491,628.049874175486
2491.25,628.002046198993
2491.5,626.347411674637
2491.75,624.882400307463
2492,625.952522939353
2492.25,629.498231890617
2492.5,632.96444640712
2492.75,634.320178918527
2493,634.205061940707
2493.25,633.92181383202
2493.5,633.807157388817
2493.75,633.108293158932
2494,631.317691616945
2494.25,629.482504204639
2494.5,629.119152614886
2494.75,630.597151067339
2495,632.739692150137
2495.25,634.425407121071
2495.5,635.509308771052
2495.75,636.20163390516
2496,636.518747150778
2496.25,636.179399574894
2496.5,635.018266719538
2496.75,633.932981982117
2497,634.298845249326
2497.25,636.674915827346
2497.5,640.030507488791
2497.75,643.16945885248
2498,645.064052947553
2498.25,644.783943333148
2498.5,642.163764802602
2498.75,639.001222300254
2499,637.314237133924
2499.25,637.588034327604
2499.5,639.031799542555
2499.75,640.92239912599
2500,642.940384800109
2500.25,644.852654217954
2500.5,646.17115183717
2500.75,646.126442151655
2501,644.21361494267
2501.25,641.50195175452
2501.5,639.604282025421
2501.75,639.529905959309
2502,641.270337851659
2502.25,644.596753255403
2502.5,648.185998376533
2502.75,650.142612879277
2503,649.528755824133
2503.25,647.715845148074
2503.5,646.334704174323
2503.75,645.693921753138
2504,645.013310327825
2504.25,643.689038338066
2504.5,641.987252057783
2504.75,640.401872800244
2505,639.472181402451
2505.25,639.795396973394
2505.5,641.695385890526
2505.75,643.705540660209
2506,643.66611401986
2506.25,641.078839888779
2506.5,638.40185033873
2506.75,638.128035506493
2507,640.029697657038
2507.25,642.303506270069
2507.5,643.73348391242
2507.75,644.643243326955
2508,645.563245955966
2508.25,646.491427500678
2508.5,647.001032346887
2508.75,646.75435795173
2509,645.809278098943
2509.25,644.337800181238
2509.5,643.111568659878
2509.75,643.644015055035
2510,647.056567324501
2510.25,651.606844116965
2510.5,654.41640746069
2510.75,654.178815401087
2511,652.542421311994
2511.25,651.349261880477
2511.5,650.794010261604
2511.75,649.950466873106
2512,648.387132846464
2512.25,647.511126428019
2512.5,649.07242282022
2512.75,652.746882517519
2513,655.776472819254
2513.25,655.71419583543
2513.5,652.980693578563
2513.75,649.120214625447
2514,645.323502086881
2514.25,642.035620497855
2514.5,639.598337167174
2514.75,638.222251917068
2515,638.022862570683
2515.25,638.942986006231
2515.5,640.35329959494
2515.75,641.513349579917
2516,641.87661413295
2516.25,641.087047868791
2516.5,638.995431429641
2516.75,636.396620973446
2517,634.358748485916
2517.25,633.655579632194
2517.5,634.656604974663
2517.75,637.466206895074
2518,640.64885275562
2518.25,642.165857313435
2518.5,641.149126377869
2518.75,638.722970730054
2519,636.141961484953
2519.25,634.072426714071
2519.5,632.861190471596
2519.75,632.715503619133
2520,633.519770834271
2520.25,635.083559092042
2520.5,636.864950936081
2520.75,638.083387160451
2521,638.216045841023
2521.25,637.494606007512
2521.5,636.297413723743
2521.75,635.212047363667
2522,635.005373906904
2522.25,636.159346368375
2522.5,638.031386958333
2522.75,639.722306796631
2523,640.736185035427
2523.25,641.011840781245
2523.5,640.560685124936
2523.75,639.657647230682
2524,638.660066287243
2524.25,637.79835298375
2524.5,637.115294160686
2524.75,636.657287910363
2525,636.611228049242
2525.25,637.225503611223
2525.5,638.461431677874
2525.75,639.718036758154
2526,640.380800264615
2526.25,640.369562692071
2526.5,639.920052255866
2526.75,639.317658186464
2527,638.968518578697
2527.25,639.279801657294
2527.5,640.35390033286
2527.75,642.045541889193
2528,644.069770590303
2528.25,645.647537576603
2528.5,645.912976369185
2528.75,644.811119454052
2529,643.197883837707
2529.25,641.846645568042
2529.5,640.757781700925
2529.75,639.654475494218
2530,638.683715998018
2530.25,638.712533408359
2530.5,640.477996946523
2530.75,642.915884109048
2531,644.011461667401
2531.25,642.781762697495
2531.5,640.675141228572
2531.75,639.398028958942
2532,639.369911269527
2532.25,640.039203372643
2532.5,640.90041450273
2532.75,641.690743035569
2533,642.20378921622
2533.25,642.326253624783
2533.5,642.040985014038
2533.75,641.325127497597
2534,640.104211028499
2534.25,638.295895029869
2534.5,636.267630855049
2534.75,635.050745487242
2535,635.524163545929
2535.25,637.024927738563
2535.5,638.196545466487
2535.75,638.347015479342
2536,638.061280801439
2536.25,637.998727429462
2536.5,638.11101373373
2536.75,637.937256023103
2537,637.32533666797
2537.25,636.926021323976
2537.5,637.471615365019
2537.75,639.020995578736
2538,641.114413195616
2538.25,643.165962743076
2538.5,644.203382845721
2538.75,643.221282870768
2539,640.420586070156
2539.25,637.247197259034
2539.5,635.010430181915
2539.75,634.008557696481
2540,634.206403196227
2540.25,635.330630373215
2540.5,636.767890996998
2540.75,637.941484856689
2541,638.699054380693
2541.25,639.063262996113
2541.5,638.990163721819
2541.75,638.315618084394
2542,636.963174878105
2542.25,635.807980923517
2542.5,636.248111360363
2542.75,638.732043410634
2543,641.402581853373
2543.25,642.217078290986
2543.5,641.219248360548
2543.75,639.944026881833
2544,639.403132122522
2544.25,638.751805404705
2544.5,636.831297169836
2544.75,634.169241308184
2545,632.978955186303
2545.25,634.869885938576
2545.5,638.286817792845
2545.75,640.788193498155
2546,641.258463199587
2546.25,640.232889623552
2546.5,638.388133916854
2546.75,636.636112756366
2547,635.9712468509
2547.25,636.799313568692
2547.5,638.517897385394
2547.75,640.423184306067
2548,641.790111612229
2548.25,641.885551242982
2548.5,640.600073119465
2548.75,639.230407933018
2549,639.135054349382
2549.25,639.920052512814
2549.5,639.939865631306
2549.75,638.26979276986
2550,636.395468913257
2550.25,636.208242251062
2550.5,637.885610896868
2550.75,639.945831527742
2551,641.0541782878
2551.25,640.821486741896
2551.5,639.139299159224
2551.75,636.671287312518
2552,635.062048966126
2552.25,635.711423289698
2552.5,638.065753349355
2552.75,640.812482827915
2553,642.945591448846
2553.25,643.969766433263
2553.5,643.512039688018
2553.75,641.849562175999
2554,639.595416849071
2554.25,637.321340127624
2554.5,635.492611705408
2554.75,634.53152103248
2555,634.471983723504
2555.25,635.058721438886
2555.5,636.059590935961
2555.75,637.339163555789
2556,638.765836656446
2556.25,639.898676764647
2556.5,640.012694756142
2556.75,638.685992733944
2557,636.8260152146
2557.25,635.672295337098
2557.5,635.772335482381
2557.75,636.822290013141
2558,638.442938101708
2558.25,640.121305938798
2558.5,641.297859009153
2558.75,641.512674115709
2559,640.462217166906
2559.25,637.980423750613
2559.5,634.927071576524
2559.75,632.666834393196
2560,632.130065839196
2560.25,633.283200667754
2560.5,635.899292194563
2560.75,639.012859799353
2561,641.190578310389
2561.25,641.447847236356
2561.5,640.017851687426
2561.75,637.379694780034
2562,634.762053724931
2562.25,634.013150644023
2562.5,636.298655138005
2562.75,640.118605228902
2563,643.387169243172
2563.25,645.215148969241
2563.5,645.970874534598
2563.75,645.994149899776
2564,645.166176192114
2564.25,643.229210393587
2564.5,640.52087613293
2564.75,638.312405492376
2565,637.794891651308
2565.25,638.766231570433
2565.5,640.314459479222
2565.75,641.830952791465
2566,643.394509784227
2566.25,645.116740771209
2566.5,646.344467555005
2566.75,645.896575406406
2567,643.464206615322
2567.25,641.645144583957
2567.5,643.502508542345
2567.75,648.776186287635
2568,653.715527210042
2568.25,655.098871603581
2568.5,653.313025882949
2568.75,649.910940106902
2569,646.277661172436
2569.25,643.510474378235
2569.5,642.559324274645
2569.75,643.114160997312
2570,644.108539203702
2570.25,644.906683694557
2570.5,646.104365016403
2570.75,648.439851658104
2571,651.323066245384
2571.25,652.983772278057
2571.5,652.111435819009
2571.75,649.672294822867
2572,647.273645719426
2572.25,646.210114014789
2572.5,647.30693124201
2572.75,651.102615325462
2573,656.000851357243
2573.25,659.319225151676
2573.5,659.429202895077
2573.75,657.346110964343
2574,654.463176015519
2574.25,651.633565822127
2574.5,649.205098653604
2574.75,647.497114242293
2575,646.780259657402
2575.25,647.304685592115
2575.5,649.011077737385
2575.75,651.32331971921
2576,653.601976135495
2576.25,655.069489232332
2576.5,654.871226769501
2576.75,652.805664570546
2577,650.560887991616
2577.25,650.094086267503
2577.5,651.666706584795
2577.75,653.797829895497
2578,655.164691274648
2578.25,655.771379760628
2578.5,656.078514248606
2578.75,656.18451915628
2579,655.527624036875
2579.25,653.568946573269
2579.5,650.91922824213
2579.75,648.965219896211
2580,648.677987858499
2580.25,649.454245736093
2580.5,650.353990402674
2580.75,651.185011128263
2581,652.644169721091
2581.25,655.179167529279
2581.5,657.239666569037
2581.75,656.472866634325
2582,652.415745775612
2582.25,648.577752650511
2582.5,648.699501403139
2582.75,652.385533313611
2583,656.00437423102
2583.25,656.897278992157
2583.5,656.618044104818
2583.75,657.714058344518
2584,660.345237691222
2584.25,661.383922924057
2584.5,657.99998764264
2584.75,652.038676183275
2585,647.751713626736
2585.25,647.85891758748
2585.5,650.548562145519
2585.75,653.255893901453
2586,654.918680857424
2586.25,655.923410339897
2586.5,656.597417655293
2586.75,656.640936873817
2587,655.555950200516
2587.25,653.663978895166
2587.5,652.745155242454
2587.75,654.532796493655
2588,658.394920489509
2588.25,662.138163213205
2588.5,664.074300003861
2588.75,664.371669862147
2589,663.599600178023
2589.25,662.203867019521
2589.5,660.468953681657
2589.75,658.667398887832
2590,657.062048787607
2590.25,655.910724249288
2590.5,655.56371175202
2590.75,656.644434337241
2591,659.766595024262
2591.25,664.014695883448
2591.5,666.854578733999
2591.75,666.164461668187
2592,662.952050403166
2592.25,659.453764792706
2592.5,657.396962198329
2592.75,657.294548121106
2593,659.415094207401
2593.25,662.70793952057
2593.5,664.928668437942
2593.75,664.313129240785
2594,661.873582559231
2594.25,659.532317764358
2594.5,658.308527188246
2594.75,657.448661511733
2595,656.075301308914
2595.25,654.511795275922
2595.5,653.990439622416
2595.75,655.403990753115
2596,658.100095112334
2596.25,661.017396185846
2596.5,663.246970828643
2596.75,664.098564177847
2597,663.034519593891
2597.25,660.813402576004
2597.5,658.91323859211
2597.75,658.43057104316
2598,659.185655045752
2598.25,660.742730036702
2598.5,662.836510433516
2598.75,665.406108634776
2599,668.21986520439
2599.25,669.65307000223
2599.5,667.442287870854
2599.75,660.97223570515
2600,654.169541570864
2600.25,651.605473454955
2600.5,654.131986350274
2600.75,658.413972960161
2601,661.369731821107
2601.25,662.957188412496
2601.5,664.323575149799
2601.75,665.786887977918
2602,665.863274750677
2602.25,662.991034983598
2602.5,658.449912024613
2602.75,655.982900945483
2603,658.483404440904
2603.25,663.726608082794
2603.5,667.756629945542
2603.75,668.422029499029
2604,666.885134603557
2604.25,664.612286677975
2604.5,662.314915347609
2604.75,660.127572069292
2605,658.228278976952
2605.25,657.074226083248
2605.5,657.201208812847
2605.75,658.7399070702
2606,661.132140836788
2606.25,663.717496353504
2606.5,665.432113142173
2606.75,664.954765855858
2607,661.792618109462
2607.25,658.561979861481
2607.5,658.553728159228
2607.75,662.558000936415
2608,667.782387565389
2608.25,671.385027377326
2608.5,672.62854113976
2608.75,671.917079597337
2609,669.740903782371
2609.25,666.844110101972
2609.5,664.018907480824
2609.75,661.786789749362
2610,660.285603774951
2610.25,659.640792792996
2610.5,660.146277717837
2610.75,662.193392513284
2611,665.758095015847
2611.25,669.452587581675
2611.5,671.636865801238
2611.75,671.591397489504
2612,669.73381538263
2612.25,666.688398967626
2612.5,664.326106429043
2612.75,665.186231117615
2613,670.502388440245
2613.25,677.11081148522
2613.5,680.999098400695
2613.75,680.950192626404
2614,679.385924529964
2614.25,678.725264861188
2614.5,678.644876263342
2614.75,677.110684697965
2615,672.886974223181
2615.25,668.419969468917
2615.5,667.164595926013
2615.75,670.408232333162
2616,675.289148622611
2616.25,678.645586941672
2616.5,679.965267026086
2616.75,680.844599649465
2617,682.583438281707
2617.25,684.436442833161
2617.5,684.929754967551
2617.75,683.596294733856
2618,682.519955260614
2618.25,684.121460188032
2618.5,688.662888810603
2618.75,693.713463229228
2619,696.843085199444
2619.25,697.480889218082
2619.5,696.202835021238
2619.75,693.594786884494
2620,690.20527507854
2620.25,686.570574114407
2620.5,683.375637064682
2620.75,681.722804660015
2621,682.757332324496
2621.25,686.245473954089
2621.5,690.022392455498
2621.75,691.976930755471
2622,692.501622479159
2622.25,693.70677982246
2622.5,697.234266010886
2622.75,701.83526930502
2623,705.229251713059
2623.25,706.016364373761
2623.5,705.389805992862
2623.75,705.007229636393
2624,705.667528806222
2624.25,706.648130222241
2624.5,707.08915008419
2624.75,706.643107021204
2625,705.525856899122
2625.25,703.955622130217
2625.5,701.805033436928
2625.75,698.704625406069
2626,694.499890732769
2626.25,690.582117656741
2626.5,689.00539511086
2626.75,691.099808520283
2627,695.48925993134
2627.25,700.174925177663
2627.5,703.895421050503
2627.75,706.753440784459
2628,708.997835383516
2628.25,710.83907098658
2628.5,712.446302257148
2628.75,713.986754492882
2629,715.629109874231
2629.25,717.543059987055
2629.5,719.775098619218
2629.75,721.424838685969
2630,721.152897940725
2630.25,718.099771195277
2630.5,713.890995405366
2630.75,710.95018773937
2631,710.730812659027
2631.25,711.158838635545
2631.5,709.366529638802
2631.75,704.344179602883
2632,699.36981779716
2632.25,698.274949013851
2632.5,702.218825114911
2632.75,708.37782686142
2633,713.714851990889
2633.25,717.184507591504
2633.5,719.461905675987
2633.75,721.21636013572
2634,722.499737656277
2634.25,723.011357908875
2634.5,722.527648042932
2634.75,721.367114007905
2635,720.070161092291
2635.25,719.156053870021
2635.5,719.039632237121
2635.75,720.104427176554
2636,722.246017187747
2636.25,723.729525278867
2636.5,722.485265372206
2636.75,717.921911188239
2637,712.935456595286
2637.25,710.902880153215
2637.5,713.358538449781
2637.75,718.612618932482
2638,724.660389620937
2638.25,729.813214153347
2638.5,732.748051852302
2638.75,732.27129441872
2639,729.140772703678
2639.25,725.798918449527
2639.5,724.582513532675
2639.75,725.637486456296
2640,727.528119336272
2640.25,728.888956098465
2640.5,729.354038121144
2640.75,729.10937515815
2641,728.327134105692
2641.25,727.039942512991
2641.5,725.220029856645
2641.75,722.979098128514
2642,721.192789550658
2642.25,720.996536641476
2642.5,723.165532347444
2642.75,727.017815526178
2643,731.50317782058
