2608,37.528582866293
2608.25,37.4935948759007
2608.5,37.4586068855084
2608.75,37.4236188951161
2609,37.3886309047237
2609.25,37.3536429143315
2609.5,37.3186549239391
2609.75,37.2836669335468
2610,37.2486789431545
2610.25,37.2136909527622
2610.5,37.1787029623699
2610.75,37.1437149719776
2611,37.1087269815853
2611.25,37.0737389911929
2611.5,37.0387510008007
2611.75,37.0037630104083
2612,36.968775020016
2612.25,36.9337870296237
2612.5,36.8987990392314
2612.75,36.8638110488391
2613,36.8288230584468
2613.25,36.7938350680544
2613.5,36.7588470776621
2613.75,36.7238590872698
2614,36.6888710968775
2614.25,36.6538831064852
2614.5,36.6188951160929
2614.75,36.5839071257005
2615,36.5489191353083
2615.25,36.5139311449159
2615.5,36.4789431545236
2615.75,36.4439551641313
2616,36.408967173739
2616.25,36.3739791833467
2616.5,36.3389911929544
2616.75,36.304003202562
2617,36.2690152121697
2617.25,36.2340272217774
2617.5,36.2013725265927
2617.75,36.2513553700103
2618,36.3013382134279
2618.25,36.3513210568455
2618.5,36.4013039002631
2618.75,36.4512867436807
2619,36.5012695870983
2619.25,36.5512524305159
2619.5,36.6012352739334
2619.75,36.651218117351
2620,36.7012009607686
2620.25,36.7511838041862
2620.5,36.8011666476038
2620.75,36.8511494910214
2621,36.901132334439
2621.25,36.9511151778565
2621.5,37.0010980212742
2621.75,37.0510808646917
2622,37.1010637081094
2622.25,37.1510465515269
2622.5,37.2013382134279
2622.75,37.2663159098707
2623,37.3312936063137
2623.25,37.3962713027565
2623.5,37.4612489991994
2623.75,37.5262266956422
2624,37.5912043920851
2624.25,37.6561820885279
2624.5,37.7211597849709
2624.75,37.7861374814137
2625,37.8511151778566
2625.25,37.9160928742994
2625.5,37.9810705707424
2625.75,38.0460482671852
2626,38.1110259636281
2626.25,38.1760036600709
2626.5,38.2409813565138
2626.75,38.3059590529566
2627,38.3709367493996
2627.25,38.4359144458424
2627.5,38.5001372526593
2627.75,38.5101338213428
2628,38.5201303900263
2628.25,38.5301269587098
2628.5,38.5401235273934
2628.75,38.5501200960769
2629,38.5601166647604
2629.25,38.5701132334439
2629.5,38.5801098021274
2629.75,38.5901063708109
2630,38.6001029394944
2630.25,38.610099508178
2630.5,38.6200960768615
2630.75,38.630092645545
2631,38.6400892142285
2631.25,38.6500857829121
2631.5,38.6600823515956
2631.75,38.6700789202791
2632,38.6800754889626
2632.25,38.6900720576461
2632.5,38.6999313736704
2632.75,38.6899348049868
2633,38.6799382363033
2633.25,38.6699416676198
2633.5,38.6599450989363
2633.75,38.6499485302528
2634,38.6399519615693
2634.25,38.6299553928857
2634.5,38.6199588242022
2634.75,38.6099622555187
2635,38.5999656868352
2635.25,38.5899691181517
2635.5,38.5799725494682
2635.75,38.5699759807846
2636,38.5599794121011
2636.25,38.5499828434176
2636.5,38.5399862747341
2636.75,38.5299897060506
2637,38.519993137367
2637.25,38.5099965686835
2637.5,38.5
2637.75,38.6349536772276
2638,38.769907354455
2638.25,38.9048610316824
2638.5,39.03981470891
2638.75,39.1747683861374
2639,39.309722063365
2639.25,39.4446757405924
2639.5,39.57962941782
2639.75,39.7145830950474
2640,39.849536772275
2640.25,39.9844904495024
2640.5,40.11944412673
2640.75,40.2543978039574
2641,40.389351481185
2641.25,40.5243051584124
2641.5,40.65925883564
2641.75,40.7942125128674
2642,40.929166190095
2642.25,41.0641198673224
2642.5,41.19907354455
2642.75,41.5127301841472
2643,41.8276220976783
2643.25,42.1425140112089
2643.5,42.45740592474
2643.75,42.7722978382705
2644,43.0871897518016
2644.25,43.4020816653322
2644.5,43.7169735788633
2644.75,44.0318654923939
2645,44.346757405925
2645.25,44.6616493194555
2645.5,44.9765412329866
2645.75,45.2914331465172
2646,45.6063250600483
2646.25,45.9212169735789
2646.5,46.23610888711
2646.75,46.5510008006405
2647,46.8658927141716
2647.25,47.1807846277022
2647.5,47.4956765412327
2647.75,47.2190094933089
2648,46.9341072858289
2648.25,46.6492050783484
2648.5,46.3643028708683
2648.75,46.0794006633878
2649,45.7944984559078
2649.25,45.5095962484272
2649.5,45.2246940409472
2649.75,44.9397918334667
2650,44.6548896259867
2650.25,44.3699874185061
2650.5,44.0850852110261
2650.75,43.8001830035456
2651,43.5152807960656
2651.25,43.230378588585
2651.5,42.945476381105
2651.75,42.6605741736245
2652,42.3756719661445
2652.25,42.0907697586639
2652.5,41.8058675511839
2652.75,41.6433489648861
2653,41.4834038659499
2653.25,41.3234587670135
2653.5,41.1635136680774
2653.75,41.0035685691409
2654,40.8436234702048
2654.25,40.6836783712683
2654.5,40.5237332723322
2654.75,40.3637881733957
2655,40.2038430744596
2655.25,40.0438979755231
2655.5,39.883952876587
2655.75,39.7240077776505
2656,39.5640626787144
2656.25,39.404117579778
2656.5,39.2441724808418
2656.75,39.0842273819057
2657,38.9242822829692
2657.25,38.7643371840331
2657.5,38.6043920850966
2657.75,38.5708338099051
2658,38.5408441038545
2658.25,38.510854397804
2658.5,38.4808646917534
2658.75,38.4508749857029
2659,38.4208852796523
2659.25,38.3908955736018
2659.5,38.3609058675512
2659.75,38.3309161615006
2660,38.3009264554501
2660.25,38.2709367493995
2660.5,38.240947043349
2660.75,38.2109573372984
2661,38.1809676312478
2661.25,38.1509779251973
2661.5,38.1209882191467
2661.75,38.0909985130962
2662,38.0610088070456
2662.25,38.0310191009951
2662.5,38.0010293949445
2662.75,38.0530939036944
2663,38.1080750314538
2663.25,38.1630561592131
2663.5,38.2180372869725
2663.75,38.2730184147318
2664,38.3279995424912
2664.25,38.3829806702505
2664.5,38.4379617980099
2664.75,38.4929429257692
2665,38.5479240535286
2665.25,38.6029051812879
2665.5,38.6578863090473
2665.75,38.7128674368066
2666,38.7678485645659
2666.25,38.8228296923253
2666.5,38.8778108200846
2666.75,38.932791947844
2667,38.9877730756033
2667.25,39.0427542033627
2667.5,39.097735331122
2667.75,39.1958481070571
2668,39.2958137938922
2668.25,39.3957794807275
2668.5,39.4957451675626
2668.75,39.5957108543978
2669,39.6956765412329
2669.25,39.7956422280682
2669.5,39.8956079149033
2669.75,39.9955736017386
2670,40.0955392885737
2670.25,40.195504975409
2670.5,40.295470662244
2670.75,40.3954363490793
2671,40.4954020359144
2671.25,40.5953677227497
2671.5,40.6953334095848
2671.75,40.7952990964201
2672,40.8952647832552
2672.25,40.9952304700904
2672.5,41.0951961569255
2672.75,41.0286286171794
2673,40.9536543520531
2673.25,40.8786800869266
2673.5,40.8037058218003
2673.75,40.7287315566739
2674,40.6537572915475
2674.25,40.5787830264211
2674.5,40.5038087612947
2674.75,40.4288344961683
2675,40.353860231042
2675.25,40.2788859659157
2675.5,40.2039117007892
2675.75,40.1289374356629
2676,40.0539631705364
2676.25,39.9789889054101
2676.5,39.9040146402836
2676.75,39.8290403751573
2677,39.7540661100309
2677.25,39.6790918449045
2677.5,39.6041175797781
2677.75,39.6377902321857
2678,39.6777765069198
2678.25,39.7177627816539
2678.5,39.757749056388
2678.75,39.797735331122
2679,39.8377216058561
2679.25,39.8777078805902
2679.5,39.9176941553243
2679.75,39.9576804300583
2680,39.9976667047924
2680.25,40.0376529795265
2680.5,40.0776392542606
2680.75,40.1176255289946
2681,40.1576118037287
2681.25,40.1975980784628
2681.5,40.2375843531969
2681.75,40.2775706279309
2682,40.317556902665
2682.25,40.3575431773991
2682.5,40.3975294521332
2682.75,40.16552670708
2683,39.9156124899918
2683.25,39.665698272904
2683.5,39.4157840558159
2683.75,39.1658698387281
2684,38.9159556216399
2684.25,38.6660414045522
2684.5,38.4161271874645
2684.75,38.1662129703763
2685,37.9162987532885
2685.25,37.6663845362003
2685.5,37.4164703191126
2685.75,37.1665561020244
2686,36.9166418849367
2686.25,36.6667276678485
2686.5,36.4168134507608
2686.75,36.1668992336726
2687,35.9169850165848
2687.25,35.6670707994966
2687.5,35.4171565824089
2687.75,35.4232757634679
2688,35.4482671851767
2688.25,35.4732586068855
2688.5,35.4982500285943
2688.75,35.5232414503031
2689,35.5482328720119
2689.25,35.5732242937207
2689.5,35.5982157154295
2689.75,35.6232071371383
2690,35.6481985588471
2690.25,35.6731899805559
2690.5,35.6981814022647
2690.75,35.7231728239735
2691,35.7481642456823
2691.25,35.7731556673911
2691.5,35.7981470890998
2691.75,35.8231385108087
2692,35.8481299325174
2692.25,35.8731213542263
2692.5,35.898112775935
2692.75,35.9508292348165
2693,36.0058103625758
2693.25,36.0607914903352
2693.5,36.1157726180945
2693.75,36.1707537458538
2694,36.2257348736132
2694.25,36.2807160013725
2694.5,36.3356971291319
2694.75,36.3906782568912
2695,36.4456593846506
2695.25,36.5006405124099
2695.5,36.5556216401693
2695.75,36.6106027679286
2696,36.665583895688
2696.25,36.7205650234473
2696.5,36.7755461512067
2696.75,36.830527278966
2697,36.8855084067254
2697.25,36.9404895344847
2697.5,36.9954706622441
2697.75,37.1880475809218
2698,37.3929772389341
2698.25,37.5979068969461
2698.5,37.8028365549584
2698.75,38.0077662129703
2699,38.2126958709826
2699.25,38.4176255289946
2699.5,38.6225551870069
2699.75,38.8274848450188
2700,39.0324145030311
2700.25,39.2373441610431
2700.5,39.4422738190554
2700.75,39.6472034770673
2701,39.8521331350797
2701.25,40.0570627930916
2701.5,40.2619924511039
2701.75,40.4669221091159
2702,40.6718517671282
2702.25,40.8767814251401
2702.5,41.0817110831524
2702.75,41.1455221319913
2703,41.1955049754089
2703.25,41.2454878188265
2703.5,41.295470662244
2703.75,41.3454535056617
2704,41.3954363490792
2704.25,41.4454191924969
2704.5,41.4954020359144
2704.75,41.5453848793321
2705,41.5953677227496
2705.25,41.6453505661672
2705.5,41.6953334095848
2705.75,41.7453162530024
2706,41.79529909642
2706.25,41.8452819398376
2706.5,41.8952647832552
2706.75,41.9452476266728
2707,41.9952304700903
2707.25,42.045213313508
2707.5,42.0951961569255
2707.75,42.0593388996912
2708,42.0143543406154
2708.25,41.9693697815395
2708.5,41.9243852224637
2708.75,41.8794006633878
2709,41.834416104312
2709.25,41.7894315452362
2709.5,41.7444469861604
2709.75,41.6994624270845
2710,41.6544778680087
2710.25,41.6094933089328
2710.5,41.564508749857
2710.75,41.5195241907812
2711,41.4745396317054
2711.25,41.4295550726295
2711.5,41.3845705135537
2711.75,41.3395859544778
2712,41.294601395402
2712.25,41.2496168363262
2712.5,41.2046322772504
2712.75,41.1461969575661
2713,41.0862175454649
2713.25,41.0262381333639
2713.5,40.9662587212627
2713.75,40.9062793091617
2714,40.8462998970605
2714.25,40.7863204849594
2714.5,40.7263410728583
2714.75,40.6663616607572
2715,40.606382248656
2715.25,40.546402836555
2715.5,40.4864234244538
2715.75,40.4264440123528
2716,40.3664646002516
2716.25,40.3064851881505
2716.5,40.2465057760494
2716.75,40.1865263639483
2717,40.1265469518472
2717.25,40.0665675397461
2717.5,40.0065881276449
2717.75,39.9955507262953
2718,39.9905524419536
2718.25,39.9855541576118
2718.5,39.98055587327
2718.75,39.9755575889283
2719,39.9705593045865
2719.25,39.9655610202448
2719.5,39.960562735903
2719.75,39.9555644515613
2720,39.9505661672195
2720.25,39.9455678828777
2720.5,39.940569598536
2720.75,39.9355713141942
2721,39.9305730298524
2721.25,39.9255747455107
2721.5,39.9205764611689
2721.75,39.9155781768272
2722,39.9105798924854
2722.25,39.9055816081437
2722.5,39.9005833238019
2722.75,39.9264897632392
2723,39.9564794692897
2723.25,39.9864691753403
2723.5,40.0164588813908
2723.75,40.0464485874414
2724,40.0764382934919
2724.25,40.1064279995425
2724.5,40.136417705593
2724.75,40.1664074116436
2725,40.1963971176941
2725.25,40.2263868237447
2725.5,40.2563765297953
2725.75,40.2863662358458
2726,40.3163559418964
2726.25,40.3463456479469
2726.5,40.3763353539975
2726.75,40.4063250600481
2727,40.4363147660986
2727.25,40.4663044721492
2727.5,40.4962941781997
2727.75,40.596374242251
2728,40.7063364977696
2728.25,40.8162987532884
2728.5,40.926261008807
2728.75,41.0362232643258
2729,41.1461855198444
2729.25,41.2561477753632
2729.5,41.3661100308818
2729.75,41.4760722864007
2730,41.5860345419193
2730.25,41.6959967974381
2730.5,41.8059590529567
2730.75,41.9159213084753
2731,42.0258835639941
2731.25,42.1358458195127
2731.5,42.2458080750315
2731.75,42.3557703305501
2732,42.4657325860689
2732.25,42.5756948415875
2732.5,42.6856570971063
2732.75,42.6652293263182
2733,42.6252430515841
2733.25,42.5852567768501
2733.5,42.545270502116
2733.75,42.5052842273819
2734,42.4652979526478
2734.25,42.4253116779138
2734.5,42.3853254031797
2734.75,42.3453391284456
2735,42.3053528537115
2735.25,42.2653665789775
2735.5,42.2253803042434
2735.75,42.1853940295093
2736,42.1454077547752
2736.25,42.1054214800412
2736.5,42.0654352053071
2736.75,42.025448930573
2737,41.9854626558389
2737.25,41.9454763811049
2737.5,41.9054901063708
2737.75,41.9344961683633
2738,41.9744824430974
2738.25,42.0144687178314
2738.5,42.0544549925655
2738.75,42.0944412672996
2739,42.1344275420337
2739.25,42.1744138167677
2739.5,42.2144000915018
2739.75,42.2543863662358
2740,42.2943726409699
2740.25,42.334358915704
2740.5,42.374345190438
2740.75,42.4143314651721
2741,42.4543177399062
2741.25,42.4943040146403
2741.5,42.5342902893743
2741.75,42.5742765641084
2742,42.6142628388425
2742.25,42.6542491135766
2742.5,42.6942353883106
2742.75,42.6657783369553
2743,42.6257920622212
2743.25,42.5858057874871
2743.5,42.5458195127531
2743.75,42.505833238019
2744,42.4658469632849
2744.25,42.4258606885508
2744.5,42.3858744138168
2744.75,42.3458881390827
2745,42.3059018643486
2745.25,42.2659155896145
2745.5,42.2259293148805
2745.75,42.1859430401464
2746,42.1459567654123
2746.25,42.1059704906782
2746.5,42.0659842159442
2746.75,42.0259979412101
2747,41.986011666476
2747.25,41.9460253917419
2747.5,41.9060391170079
2747.75,41.9042433947158
2748,41.9092416790575
2748.25,41.9142399633993
2748.5,41.919238247741
2748.75,41.9242365320828
2749,41.9292348164246
2749.25,41.9342331007663
2749.5,41.9392313851081
2749.75,41.9442296694498
2750,41.9492279537916
2750.25,41.9542262381334
2750.5,41.9592245224751
2750.75,41.9642228068169
2751,41.9692210911586
2751.25,41.9742193755004
2751.5,41.9792176598422
2751.75,41.9842159441839
2752,41.9892142285257
2752.25,41.9942125128674
2752.5,41.9992107972092
2752.75,41.9410728582867
2753,41.871096877502
2753.25,41.8011208967174
2753.5,41.7311449159327
2753.75,41.6611689351481
2754,41.5911929543635
2754.25,41.5212169735789
2754.5,41.4512409927942
2754.75,41.3812650120096
2755,41.3112890312249
2755.25,41.2413130504404
2755.5,41.1713370696557
2755.75,41.1013610888711
2756,41.0313851080864
2756.25,40.9614091273018
2756.5,40.8914331465172
2756.75,40.8214571657326
2757,40.7514811849479
2757.25,40.6815052041633
2757.5,40.6115292233786
2757.75,40.4330092645545
2758,40.2330778908839
2758.25,40.0331465172138
2758.5,39.8332151435436
2758.75,39.633283769873
2759,39.4333523962028
2759.25,39.2334210225323
2759.5,39.0334896488621
2759.75,38.8335582751915
2760,38.6336269015213
2760.25,38.4336955278508
2760.5,38.2337641541806
2760.75,38.0338327805101
2761,37.8339014068399
2761.25,37.6339700331693
2761.5,37.4340386594991
2761.75,37.2341072858286
2762,37.0341759121584
2762.25,36.8342445384878
2762.5,36.6343131648176
2762.75,36.6538259178772
2763,36.71880361432
2763.25,36.7837813107629
2763.5,36.8487590072057
2763.75,36.9137367036487
2764,36.9787144000915
2764.25,37.0436920965344
2764.5,37.1086697929772
2764.75,37.1736474894202
2765,37.238625185863
2765.25,37.3036028823059
2765.5,37.3685805787487
2765.75,37.4335582751916
2766,37.4985359716344
2766.25,37.5635136680774
2766.5,37.6284913645202
2766.75,37.6934690609631
2767,37.7584467574059
2767.25,37.8234244538489
2767.5,37.8884021502917
2767.75,37.793240306531
2768,37.6632849136452
2768.25,37.5333295207596
2768.5,37.4033741278737
2768.75,37.2734187349881
2769,37.1434633421022
2769.25,37.0135079492166
2769.5,36.8835525563307
2769.75,36.7535971634451
2770,36.6236417705593
2770.25,36.4936863776736
2770.5,36.3637309847878
2770.75,36.2337755919022
2771,36.1038201990163
2771.25,35.9738648061307
2771.5,35.8439094132448
2771.75,35.7139540203592
2772,35.5839986274733
2772.25,35.4540432345877
2772.5,35.3240878417019
2772.75,35.3977238934004
2773,35.5176827176027
2773.25,35.6376415418048
2773.5,35.7576003660072
2773.75,35.8775591902093
2774,35.9975180144116
2774.25,36.1174768386137
2774.5,36.2374356628161
2774.75,36.3573944870182
2775,36.4773533112205
2775.25,36.5973121354226
2775.5,36.7172709596249
2775.75,36.8372297838271
2776,36.9571886080294
2776.25,37.0771474322315
2776.5,37.1971062564338
2776.75,37.3170650806359
2777,37.4370239048381
2777.25,37.5569827290404
2777.5,37.6769415532425
2777.75,37.6919249685463
2778,37.6819283998628
2778.25,37.6719318311792
2778.5,37.6619352624957
2778.75,37.6519386938122
2779,37.6419421251287
2779.25,37.6319455564452
2779.5,37.6219489877616
2779.75,37.6119524190781
2780,37.6019558503946
2780.25,37.5919592817111
2780.5,37.5819627130276
2780.75,37.571966144344
2781,37.5619695756605
2781.25,37.551973006977
2781.5,37.5419764382935
2781.75,37.53197986961
2782,37.5219833009265
2782.25,37.5119867322429
2782.5,37.5019901635594
2782.75,37.6561248999201
2783,37.8510579892485
2783.25,38.0459910785773
2783.5,38.2409241679057
2783.75,38.4358572572345
2784,38.6307903465629
2784.25,38.8257234358917
2784.5,39.0206565252202
2784.75,39.215589614549
2785,39.4105227038774
2785.25,39.6054557932062
2785.5,39.8003888825346
2785.75,39.995321971863
2786,40.1902550611918
2786.25,40.3851881505203
2786.5,40.580121239849
2786.75,40.7750543291775
2787,40.9699874185063
2787.25,41.1649205078347
2787.5,41.3598535971635
2787.75,41.451595562164
2788,41.5165732586069
2788.25,41.5815509550497
2788.5,41.6465286514926
2788.75,41.7115063479355
2789,41.7764840443784
2789.25,41.8414617408212
2789.5,41.9064394372641
2789.75,41.9714171337069
2790,42.0363948301499
2790.25,42.1013725265927
2790.5,42.1663502230356
2790.75,42.2313279194784
2791,42.2963056159213
2791.25,42.3612833123642
2791.5,42.4262610088071
2791.75,42.4912387052499
2792,42.5562164016928
2792.25,42.6211940981356
2792.5,42.6861717945786
2792.75,42.6291776278166
2793,42.5392085096648
2793.25,42.4492393915132
2793.5,42.3592702733615
2793.75,42.2693011552099
2794,42.1793320370581
2794.25,42.0893629189066
2794.5,41.9993938007548
2794.75,41.9094246826032
2795,41.8194555644516
2795.25,41.7294864462999
2795.5,41.6395173281483
2795.75,41.5495482099966
2796,41.459579091845
2796.25,41.3696099736932
2796.5,41.2796408555416
2796.75,41.1896717373899
2797,41.0997026192383
2797.25,41.0097335010866
2797.5,40.919764382935
2797.75,40.80249342331
2798,40.6775363147662
2798.25,40.5525792062221
2798.5,40.4276220976782
2798.75,40.3026649891341
2799,40.1777078805902
2799.25,40.0527507720461
2799.5,39.9277936635023
2799.75,39.8028365549582
2800,39.6778794464143
2800.25,39.5529223378702
2800.5,39.4279652293264
2800.75,39.3030081207823
2801,39.1780510122384
2801.25,39.0530939036943
2801.5,38.9281367951504
2801.75,38.8031796866063
2802,38.6782225780625
2802.25,38.5532654695184
2802.5,38.4283083609745
2802.75,38.3265469518471
2803,38.2315795493538
2803.25,38.1366121468603
2803.5,38.0416447443669
2803.75,37.9466773418734
2804,37.8517099393801
2804.25,37.7567425368867
2804.5,37.6617751343932
2804.75,37.5668077318999
2805,37.4718403294064
2805.25,37.376872926913
2805.5,37.2819055244195
2805.75,37.1869381219262
2806,37.0919707194327
2806.25,36.9970033169393
2806.5,36.9020359144458
2806.75,36.8070685119525
2807,36.712101109459
2807.25,36.6171337069656
2807.5,36.5221663044721
2807.75,36.5306530939037
2808,36.5706393686378
2808.25,36.6106256433718
2808.5,36.6506119181059
2808.75,36.69059819284
2809,36.7305844675741
2809.25,36.7705707423081
2809.5,36.8105570170422
2809.75,36.8505432917763
2810,36.8905295665104
2810.25,36.9305158412444
2810.5,36.9705021159785
2810.75,37.0104883907126
2811,37.0504746654467
2811.25,37.0904609401807
2811.5,37.1304472149148
2811.75,37.1704334896489
2812,37.210419764383
2812.25,37.250406039117
2812.5,37.2903923138511
2812.75,37.3759464714629
2813,37.4759121582982
2813.25,37.5758778451332
2813.5,37.6758435319683
2813.75,37.7758092188036
2814,37.8757749056387
2814.25,37.975740592474
2814.5,38.0757062793091
2814.75,38.1756719661444
2815,38.2756376529795
2815.25,38.3756033398147
2815.5,38.4755690266498
2815.75,38.5755347134851
2816,38.6755004003202
2816.25,38.7754660871555
2816.5,38.8754317739906
2816.75,38.9753974608258
2817,39.0753631476609
2817.25,39.1753288344962
2817.5,39.2752945213313
2817.75,39.3188150520416
2818,39.3438064737504
2818.25,39.3687978954592
2818.5,39.393789317168
2818.75,39.4187807388768
2819,39.4437721605856
2819.25,39.4687635822944
2819.5,39.4937550040032
2819.75,39.518746425712
2820,39.5437378474208
2820.25,39.5687292691296
2820.5,39.5937206908384
2820.75,39.6187121125472
2821,39.643703534256
2821.25,39.6686949559648
2821.5,39.6936863776736
2821.75,39.7186777993824
2822,39.7436692210912
2822.25,39.7686606428
2822.5,39.7936520645087
2822.75,39.7813565137825
2823,39.7563650920737
2823.25,39.7313736703649
2823.5,39.7063822486561
2823.75,39.6813908269473
2824,39.6563994052385
2824.25,39.6314079835297
2824.5,39.6064165618209
2824.75,39.5814251401121
2825,39.5564337184033
2825.25,39.5314422966945
2825.5,39.5064508749857
2825.75,39.4814594532769
2826,39.4564680315681
2826.25,39.4314766098593
2826.5,39.4064851881505
2826.75,39.3814937664417
2827,39.3565023447329
2827.25,39.3315109230241
2827.5,39.3065195013153
2827.75,39.2926112318426
2828,39.2826146631591
2828.25,39.2726180944756
2828.5,39.2626215257921
2828.75,39.2526249571085
2829,39.242628388425
2829.25,39.2326318197415
2829.5,39.222635251058
2829.75,39.2126386823745
2830,39.2026421136909
2830.25,39.1926455450074
2830.5,39.1826489763239
2830.75,39.1726524076404
2831,39.1626558389569
2831.25,39.1526592702734
2831.5,39.1426627015898
2831.75,39.1326661329063
2832,39.1226695642228
2832.25,39.1126729955393
2832.5,39.1026764268558
2832.75,39.1183003545694
2833,39.1432917762781
2833.25,39.168283197987
2833.5,39.1932746196957
2833.75,39.2182660414046
2834,39.2432574631133
2834.25,39.2682488848222
2834.5,39.2932403065309
2834.75,39.3182317282397
2835,39.3432231499485
2835.25,39.3682145716573
2835.5,39.3932059933661
2835.75,39.4181974150749
2836,39.4431888367837
2836.25,39.4681802584925
2836.5,39.4931716802013
2836.75,39.5181631019101
2837,39.5431545236189
2837.25,39.5681459453277
2837.5,39.5931373670365
2837.75,39.719650005719
2838,39.8845933889969
2838.25,40.0495367722751
2838.5,40.214480155553
2838.75,40.3794235388312
2839,40.5443669221091
2839.25,40.7093103053873
2839.5,40.8742536886652
2839.75,41.0391970719434
2840,41.2041404552213
2840.25,41.3690838384995
2840.5,41.5340272217774
2840.75,41.6989706050556
2841,41.8639139883335
2841.25,42.0288573716114
2841.5,42.1938007548896
2841.75,42.3587441381675
2842,42.5236875214458
2842.25,42.6886309047237
2842.5,42.8535742880019
2842.75,42.9251401120897
2843,42.960128102482
2843.25,42.9951160928743
2843.5,43.0301040832666
2843.75,43.0650920736589
2844,43.1000800640513
2844.25,43.1350680544435
2844.5,43.1700560448359
2844.75,43.2050440352282
2845,43.2400320256205
2845.25,43.2750200160128
2845.5,43.3100080064051
2845.75,43.3449959967974
2846,43.3799839871898
2846.25,43.4149719775821
2846.5,43.4499599679744
2846.75,43.4849479583667
2847,43.519935948759
2847.25,43.5549239391513
2847.5,43.5899119295437
2847.75,43.4612718746426
2848,43.2663387853138
2848.25,43.0714056959854
2848.5,42.8764726066566
2848.75,42.6815395173282
2849,42.4866064279994
2849.25,42.2916733386709
2849.5,42.0967402493422
2849.75,41.9018071600137
2850,41.7068740706849
2850.25,41.5119409813565
2850.5,41.3170078920281
2850.75,41.1220748026993
2851,40.9271417133709
2851.25,40.7322086240421
2851.5,40.5372755347136
2851.75,40.3423424453848
2852,40.1474093560564
2852.25,39.9524762667276
2852.5,39.7575431773992
2852.75,39.5344275420336
2853,39.2995081779711
2853.25,39.0645888139082
2853.5,38.8296694498457
2853.75,38.5947500857828
2854,38.3598307217204
2854.25,38.1249113576575
2854.5,37.889991993595
2854.75,37.6550726295321
2855,37.4201532654696
2855.25,37.1852339014067
2855.5,36.9503145373442
2855.75,36.7153951732813
2856,36.4804758092189
2856.25,36.245556445156
2856.5,36.0106370810935
2856.75,35.7757177170306
2857,35.5407983529681
2857.25,35.3058789889052
2857.5,35.0709596248428
2857.75,35.0174425254489
2858,35.0424339471577
2858.25,35.0674253688665
2858.5,35.0924167905753
2858.75,35.1174082122841
2859,35.1423996339929
2859.25,35.1673910557017
2859.5,35.1923824774105
2859.75,35.2173738991193
2860,35.2423653208281
2860.25,35.2673567425369
2860.5,35.2923481642457
2860.75,35.3173395859545
2861,35.3423310076633
2861.25,35.3673224293721
2861.5,35.3923138510809
2861.75,35.4173052727896
2862,35.4422966944985
2862.25,35.4672881162072
2862.5,35.4922795379161
2862.75,35.4827290403752
2863,35.4577376186664
2863.25,35.4327461969576
2863.5,35.4077547752488
2863.75,35.38276335354
2864,35.3577719318312
2864.25,35.3327805101224
2864.5,35.3077890884136
2864.75,35.2827976667048
2865,35.257806244996
2865.25,35.2328148232872
2865.5,35.2078234015784
2865.75,35.1828319798696
2866,35.1578405581608
2866.25,35.132849136452
2866.5,35.1078577147432
2866.75,35.0828662930344
2867,35.0578748713256
2867.25,35.0328834496168
2867.5,35.007892027908
2867.75,35.0478783026421
2868,35.1178542834268
2868.25,35.1878302642114
2868.5,35.2578062449961
2868.75,35.3277822257806
2869,35.3977582065652
2869.25,35.4677341873499
2869.5,35.5377101681345
2869.75,35.6076861489191
2870,35.6776621297037
2870.25,35.7476381104884
2870.5,35.817614091273
2870.75,35.8875900720577
2871,35.9575660528422
2871.25,36.0275420336269
2871.5,36.0975180144115
2871.75,36.1674939951962
2872,36.2374699759807
2872.25,36.3074459567654
2872.5,36.37742193755
2872.75,36.5320370582181
2873,36.7269701475465
2873.25,36.9219032368753
2873.5,37.1168363262037
2873.75,37.3117694155325
2874,37.506702504861
2874.25,37.7016355941898
2874.5,37.8965686835182
2874.75,38.091501772847
2875,38.2864348621754
2875.25,38.4813679515042
2875.5,38.6763010408326
2875.75,38.8712341301614
2876,39.0661672194898
2876.25,39.2611003088186
2876.5,39.4560333981471
2876.75,39.6509664874759
2877,39.8458995768043
2877.25,40.0408326661331
2877.5,40.2357657554615
2877.75,40.306702504861
2878,40.3166990735445
2878.25,40.3266956422281
2878.5,40.3366922109116
2878.75,40.3466887795951
2879,40.3566853482786
2879.25,40.3666819169621
2879.5,40.3766784856457
2879.75,40.3866750543292
2880,40.3966716230127
2880.25,40.4066681916962
2880.5,40.4166647603797
2880.75,40.4266613290632
2881,40.4366578977468
2881.25,40.4466544664303
2881.5,40.4566510351138
2881.75,40.4666476037973
2882,40.4766441724808
2882.25,40.4866407411644
2882.5,40.4966373098479
2882.75,40.5696557245796
2883,40.6746196957567
2883.25,40.7795836669335
2883.5,40.8845476381106
2883.75,40.9895116092874
2884,41.0944755804644
2884.25,41.1994395516413
2884.5,41.3044035228183
2884.75,41.4093674939952
2885,41.5143314651722
2885.25,41.6192954363491
2885.5,41.7242594075261
2885.75,41.829223378703
2886,41.93418734988
2886.25,42.0391513210568
2886.5,42.1441152922339
2886.75,42.2490792634107
2887,42.3540432345878
2887.25,42.4590072057646
2887.5,42.5639711769415
2887.75,42.6
2888,42.6
2888.25,42.6
2888.5,42.6
2888.75,42.6
2889,42.6
2889.25,42.6
2889.5,42.6
2889.75,42.6
2890,42.6
2890.25,42.6
2890.5,42.6
2890.75,42.6
2891,42.6
2891.25,42.6
2891.5,42.6
2891.75,42.6
2892,42.6
2892.25,42.6
2892.5,42.6
2892.75,42.5122955507262
2893,42.3773418734988
2893.25,42.2423881962712
2893.5,42.1074345190438
2893.75,41.9724808418162
2894,41.8375271645888
2894.25,41.7025734873612
2894.5,41.5676198101338
2894.75,41.4326661329062
2895,41.2977124556788
2895.25,41.1627587784512
2895.5,41.0278051012238
2895.75,40.8928514239962
2896,40.7578977467688
2896.25,40.6229440695412
2896.5,40.4879903923138
2896.75,40.3530367150865
2897,40.2180830378588
2897.25,40.0831293606315
2897.5,39.9481756834038
2897.75,39.9514239963399
2898,40.0313965458081
2898.25,40.1113690952762
2898.5,40.1913416447444
2898.75,40.2713141942125
2899,40.3512867436807
2899.25,40.4312592931488
2899.5,40.511231842617
2899.75,40.5912043920851
2900,40.6711769415533
2900.25,40.7511494910214
2900.5,40.8311220404896
2900.75,40.9110945899576
2901,40.9910671394259
2901.25,41.0710396888939
2901.5,41.1510122383622
2901.75,41.2309847878302
2902,41.3109573372985
2902.25,41.3909298867665
2902.5,41.4709024362348
2902.75,41.4904609401807
2903,41.4754660871554
2903.25,41.4604712341302
2903.5,41.4454763811049
2903.75,41.4304815280796
2904,41.4154866750543
2904.25,41.4004918220291
2904.5,41.3854969690038
2904.75,41.3705021159785
2905,41.3555072629532
2905.25,41.3405124099279
2905.5,41.3255175569027
2905.75,41.3105227038774
2906,41.2955278508521
2906.25,41.2805329978268
2906.5,41.2655381448016
2906.75,41.2505432917763
2907,41.235548438751
2907.25,41.2205535857257
2907.5,41.2055587327005
2907.75,41.159110145259
2908,41.0941324488162
2908.25,41.0291547523733
2908.5,40.9641770559305
2908.75,40.8991993594876
2909,40.8342216630448
2909.25,40.7692439666018
2909.5,40.704266270159
2909.75,40.6392885737161
2910,40.5743108772733
2910.25,40.5093331808303
2910.5,40.4443554843875
2910.75,40.3793777879446
2911,40.3144000915018
2911.25,40.2494223950589
2911.5,40.1844446986161
2911.75,40.1194670021731
2912,40.0544893057303
2912.25,39.9895116092874
2912.5,39.9245339128446
2912.75,39.931110602768
2913,39.9810934461855
2913.25,40.0310762896031
2913.5,40.0810591330207
2913.75,40.1310419764383
2914,40.1810248198559
2914.25,40.2310076632735
2914.5,40.2809905066911
2914.75,40.3309733501087
2915,40.3809561935263
2915.25,40.4309390369438
2915.5,40.4809218803614
2915.75,40.530904723779
2916,40.5808875671966
2916.25,40.6308704106142
2916.5,40.6808532540318
2916.75,40.7308360974494
2917,40.780818940867
2917.25,40.8308017842845
2917.5,40.8807846277022
2917.75,40.8138510808648
2918,40.6738991192954
2918.25,40.5339471577263
2918.5,40.3939951961569
2918.75,40.2540432345877
2919,40.1140912730183
2919.25,39.9741393114492
2919.5,39.8341873498798
2919.75,39.6942353883107
2920,39.5542834267413
2920.25,39.4143314651722
2920.5,39.2743795036028
2920.75,39.1344275420337
2921,38.9944755804643
2921.25,38.8545236188951
2921.5,38.7145716573258
2921.75,38.5746196957566
2922,38.4346677341872
2922.25,38.2947157726181
2922.5,38.1547638110487
2922.75,38.1365092073659
2923,38.1964886194671
2923.25,38.2564680315681
2923.5,38.3164474436693
2923.75,38.3764268557703
2924,38.4364062678715
2924.25,38.4963856799726
2924.5,38.5563650920736
2924.75,38.6163445041748
2925,38.6763239162758
2925.25,38.736303328377
2925.5,38.7962827404781
2925.75,38.8562621525792
2926,38.9162415646803
2926.25,38.9762209767814
2926.5,39.0362003888825
2926.75,39.0961798009837
2927,39.1561592130847
2927.25,39.2161386251859
2927.5,39.2761180372869
2927.75,39.2939837584353
2928,39.2839871897518
2928.25,39.2739906210683
2928.5,39.2639940523848
2928.75,39.2539974837012
2929,39.2440009150177
2929.25,39.2340043463342
2929.5,39.2240077776507
2929.75,39.2140112089672
2930,39.2040146402837
2930.25,39.1940180716001
2930.5,39.1840215029166
2930.75,39.1740249342331
2931,39.1640283655496
2931.25,39.1540317968661
2931.5,39.1440352281825
2931.75,39.134038659499
2932,39.1240420908155
2932.25,39.114045522132
2932.5,39.1040489534485
2932.75,39.0910785771474
2933,39.0760837241222
2933.25,39.0610888710969
2933.5,39.0460940180716
2933.75,39.0310991650463
2934,39.016104312021
2934.25,39.0011094589958
2934.5,38.9861146059705
2934.75,38.9711197529452
2935,38.9561248999199
2935.25,38.9411300468947
2935.5,38.9261351938694
2935.75,38.9111403408441
2936,38.8961454878188
2936.25,38.8811506347936
2936.5,38.8661557817683
2936.75,38.851160928743
2937,38.8361660757177
2937.25,38.8211712226924
2937.5,38.8061763696671
2937.75,38.8852453391284
2938,39.0301955850395
2938.25,39.1751458309504
2938.5,39.3200960768616
2938.75,39.4650463227725
2939,39.6099965686836
2939.25,39.7549468145945
2939.5,39.8998970605056
2939.75,40.0448473064165
2940,40.1897975523277
2940.25,40.3347477982386
2940.5,40.4796980441497
2940.75,40.6246482900606
2941,40.7695985359718
2941.25,40.9145487818826
2941.5,41.0594990277938
2941.75,41.2044492737047
2942,41.3493995196158
2942.25,41.4943497655267
2942.5,41.6393000114379
2942.75,41.6157497426513
2943,41.4707994967404
2943.25,41.3258492508292
2943.5,41.1808990049183
2943.75,41.0359487590072
2944,40.8909985130963
2944.25,40.7460482671851
2944.5,40.6010980212743
2944.75,40.4561477753631
2945,40.3111975294522
2945.25,40.1662472835411
2945.5,40.0212970376302
2945.75,39.876346791719
2946,39.7313965458081
2946.25,39.586446299897
2946.5,39.4414960539861
2946.75,39.296545808075
2947,39.1515955621641
2947.25,39.0066453162529
2947.5,38.861695070342
2947.75,38.7856456593846
2948,38.7606542376759
2948.25,38.735662815967
2948.5,38.7106713942583
2948.75,38.6856799725495
2949,38.6606885508407
2949.25,38.6356971291319
2949.5,38.6107057074231
2949.75,38.5857142857143
2950,38.5607228640055
2950.25,38.5357314422967
2950.5,38.5107400205879
2950.75,38.4857485988791
2951,38.4607571771703
2951.25,38.4357657554615
2951.5,38.4107743337527
2951.75,38.3857829120439
2952,38.3607914903351
2952.25,38.3358000686263
2952.5,38.3108086469175
2952.75,38.3
2953,38.3
2953.25,38.3
2953.5,38.3
2953.75,38.3
2954,38.3
2954.25,38.3
2954.5,38.3
2954.75,38.3
2955,38.3
2955.25,38.3
2955.5,38.3
2955.75,38.3
2956,38.3
2956.25,38.3
2956.5,38.3
2956.75,38.3
2957,38.3
2957.25,38.3
2957.5,38.3
2957.75,38.3084067253803
2958,38.3234015784056
2958.25,38.3383964314309
2958.5,38.3533912844561
2958.75,38.3683861374814
2959,38.3833809905067
2959.25,38.398375843532
2959.5,38.4133706965573
2959.75,38.4283655495825
2960,38.4433604026078
2960.25,38.4583552556331
2960.5,38.4733501086584
2960.75,38.4883449616836
2961,38.5033398147089
2961.25,38.5183346677342
2961.5,38.5333295207595
2961.75,38.5483243737847
2962,38.56331922681
2962.25,38.5783140798353
2962.5,38.5933089328606
2962.75,38.5944641427428
2963,38.5844675740593
2963.25,38.5744710053757
2963.5,38.5644744366922
2963.75,38.5544778680087
2964,38.5444812993252
2964.25,38.5344847306417
2964.5,38.5244881619581
2964.75,38.5144915932746
2965,38.5044950245911
2965.25,38.4944984559076
2965.5,38.4845018872241
2965.75,38.4745053185405
2966,38.464508749857
2966.25,38.4545121811735
2966.5,38.44451561249
2966.75,38.4345190438065
2967,38.424522475123
2967.25,38.4145259064394
2967.5,38.4045293377559
2967.75,38.4218689237104
2968,38.4618551984445
2968.25,38.5018414731786
2968.5,38.5418277479126
2968.75,38.5818140226467
2969,38.6218002973808
2969.25,38.6617865721149
2969.5,38.7017728468489
2969.75,38.741759121583
2970,38.7817453963171
2970.25,38.8217316710511
2970.5,38.8617179457852
2970.75,38.9017042205192
2971,38.9416904952534
2971.25,38.9816767699874
2971.5,39.0216630447215
2971.75,39.0616493194555
2972,39.1016355941897
2972.25,39.1416218689237
2972.5,39.1816081436578
2972.75,39.197300697701
2973,39.1923024133593
2973.25,39.1873041290175
2973.5,39.1823058446757
2973.75,39.177307560334
2974,39.1723092759922
2974.25,39.1673109916505
2974.5,39.1623127073087
2974.75,39.1573144229669
2975,39.1523161386252
2975.25,39.1473178542834
2975.5,39.1423195699417
2975.75,39.1373212855999
2976,39.1323230012582
2976.25,39.1273247169164
2976.5,39.1223264325746
2976.75,39.1173281482329
2977,39.1123298638911
2977.25,39.1073315795494
2977.5,39.1023332952076
2977.75,39.1186549239391
2978,39.1536429143315
2978.25,39.1886309047238
2978.5,39.2236188951161
2978.75,39.2586068855084
2979,39.2935948759008
2979.25,39.328582866293
2979.5,39.3635708566853
2979.75,39.3985588470777
2980,39.4335468374699
2980.25,39.4685348278623
2980.5,39.5035228182546
2980.75,39.5385108086469
2981,39.5734987990392
2981.25,39.6084867894316
2981.5,39.6434747798238
2981.75,39.6784627702162
2982,39.7134507606085
2982.25,39.7484387510008
2982.5,39.7834267413931
2982.75,39.8105227038774
2983,39.8305158412444
2983.25,39.8505089786115
2983.5,39.8705021159785
2983.75,39.8904952533455
2984,39.9104883907126
2984.25,39.9304815280796
2984.5,39.9504746654466
2984.75,39.9704678028137
2985,39.9904609401807
2985.25,40.0104540775478
2985.5,40.0304472149148
2985.75,40.0504403522818
2986,40.0704334896489
2986.25,40.0904266270159
2986.5,40.1104197643829
2986.75,40.13041290175
2987,40.150406039117
2987.25,40.1703991764841
2987.5,40.1903923138511
2987.75,40.238945442068
2988,40.3139197071943
2988.25,40.3888939723208
2988.5,40.4638682374471
2988.75,40.5388425025734
2989,40.6138167676999
2989.25,40.6887910328262
2989.5,40.7637652979527
2989.75,40.838739563079
2990,40.9137138282054
2990.25,40.9886880933318
2990.5,41.0636623584582
2990.75,41.1386366235845
2991,41.213610888711
2991.25,41.2885851538373
2991.5,41.3635594189638
2991.75,41.4385336840901
2992,41.5135079492165
2992.25,41.5884822143429
2992.5,41.6634564794693
2992.75,41.7307445956765
2993,41.7907240077777
2993.25,41.8507034198787
2993.5,41.9106828319799
2993.75,41.970662244081
2994,42.0306416561821
2994.25,42.0906210682832
2994.5,42.1506004803843
2994.75,42.2105798924854
2995,42.2705593045866
2995.25,42.3305387166876
2995.5,42.3905181287888
2995.75,42.4504975408898
2996,42.510476952991
2996.25,42.5704563650921
2996.5,42.6304357771932
2996.75,42.6904151892943
2997,42.7503946013955
2997.25,42.8103740134965
2997.5,42.8703534255977
2997.75,42.9050554729498
2998,42.9150520416333
2998.25,42.9250486103168
2998.5,42.9350451790003
2998.75,42.9450417476839
2999,42.9550383163674
2999.25,42.9650348850509
2999.5,42.9750314537344
2999.75,42.9850280224179
3000,42.9950245911014
3000.25,43.005021159785
3000.5,43.0150177284685
3000.75,43.025014297152
3001,43.0350108658355
3001.25,43.0450074345191
3001.5,43.0550040032026
3001.75,43.0650005718861
3002,43.0749971405696
3002.25,43.0849937092531
3002.5,43.0949902779366
3002.75,43.0950131533798
3003,43.0850165846963
3003.25,43.0750200160128
3003.5,43.0650234473293
3003.75,43.0550268786458
3004,43.0450303099623
3004.25,43.0350337412787
3004.5,43.0250371725952
3004.75,43.0150406039117
3005,43.0050440352282
3005.25,42.9950474665447
3005.5,42.9850508978612
3005.75,42.9750543291776
3006,42.9650577604941
3006.25,42.9550611918106
3006.5,42.9450646231271
3006.75,42.9350680544435
3007,42.92507148576
3007.25,42.9150749170765
3007.5,42.905078348393
3007.75,42.8557360173854
3008,42.7657668992337
3008.25,42.6757977810821
3008.5,42.5858286629303
3008.75,42.4958595447787
3009,42.405890426627
3009.25,42.3159213084754
3009.5,42.2259521903237
3009.75,42.1359830721721
3010,42.0460139540203
3010.25,41.9560448358687
3010.5,41.866075717717
3010.75,41.7761065995654
3011,41.6861374814137
3011.25,41.5961683632621
3011.5,41.5061992451103
3011.75,41.4162301269587
3012,41.326261008807
3012.25,41.2362918906554
3012.5,41.1463227725037
3012.75,41.061203248313
3013,40.9812306988447
3013.25,40.9012581493767
3013.5,40.8212855999084
3013.75,40.7413130504404
3014,40.6613405009721
3014.25,40.5813679515041
3014.5,40.5013954020359
3014.75,40.4214228525678
3015,40.3414503030996
3015.25,40.2614777536315
3015.5,40.1815052041633
3015.75,40.1015326546952
3016,40.021560105227
3016.25,39.9415875557589
3016.5,39.8616150062908
3016.75,39.7816424568226
3017,39.7016699073545
3017.25,39.6216973578863
3017.5,39.5417248084182
3017.75,39.4521903236875
3018,39.3522246368524
3018.25,39.2522589500171
3018.5,39.152293263182
3018.75,39.0523275763468
3019,38.9523618895117
3019.25,38.8523962026764
3019.5,38.7524305158413
3019.75,38.652464829006
3020,38.5524991421709
3020.25,38.4525334553357
3020.5,38.3525677685006
3020.75,38.2526020816653
3021,38.1526363948302
3021.25,38.0526707079949
3021.5,37.9527050211598
3021.75,37.8527393343245
3022,37.7527736474894
3022.25,37.6528079606542
3022.5,37.5528422738191
3022.75,37.5164931945557
3023,37.551481184948
3023.25,37.5864691753403
3023.5,37.6214571657326
3023.75,37.6564451561249
3024,37.6914331465172
3024.25,37.7264211369096
3024.5,37.7614091273018
3024.75,37.7963971176942
3025,37.8313851080865
3025.25,37.8663730984788
3025.5,37.9013610888711
3025.75,37.9363490792634
3026,37.9713370696557
3026.25,38.006325060048
3026.5,38.0413130504404
3026.75,38.0763010408326
3027,38.111289031225
3027.25,38.1462770216173
3027.5,38.1812650120096
3027.75,38.2139311449159
3028,38.2439208509665
3028.25,38.273910557017
3028.5,38.3039002630676
3028.75,38.3338899691181
3029,38.3638796751687
3029.25,38.3938693812192
3029.5,38.4238590872698
3029.75,38.4538487933204
3030,38.4838384993709
3030.25,38.5138282054215
3030.5,38.5438179114721
3030.75,38.5738076175226
3031,38.6037973235732
3031.25,38.6337870296237
3031.5,38.6637767356743
3031.75,38.6937664417248
3032,38.7237561477754
3032.25,38.7537458538259
3032.5,38.7837355598765
3032.75,38.7931373670365
3033,38.7781425140112
3033.25,38.7631476609859
3033.5,38.7481528079606
3033.75,38.7331579549354
3034,38.7181631019101
3034.25,38.7031682488848
3034.5,38.6881733958595
3034.75,38.6731785428343
3035,38.658183689809
3035.25,38.6431888367837
3035.5,38.6281939837584
3035.75,38.6131991307332
3036,38.5982042777079
3036.25,38.5832094246826
3036.5,38.5682145716573
3036.75,38.553219718632
3037,38.5382248656068
3037.25,38.5232300125815
3037.5,38.5082351595562
3037.75,38.5112661557818
3038,38.5362575774906
3038.25,38.5612489991994
3038.5,38.5862404209081
3038.75,38.611231842617
3039,38.6362232643257
3039.25,38.6612146860346
3039.5,38.6862061077433
3039.75,38.7111975294522
3040,38.7361889511609
3040.25,38.7611803728697
3040.5,38.7861717945785
3040.75,38.8111632162873
3041,38.8361546379961
3041.25,38.8611460597049
3041.5,38.8861374814137
3041.75,38.9111289031225
3042,38.9361203248313
3042.25,38.9611117465401
3042.5,38.9861031682489
3042.75,38.9933432460254
3043,38.9783483930001
3043.25,38.9633535399748
3043.5,38.9483586869496
3043.75,38.9333638339243
3044,38.918368980899
3044.25,38.9033741278737
3044.5,38.8883792748484
3044.75,38.8733844218232
3045,38.8583895687979
3045.25,38.8433947157726
3045.5,38.8283998627473
3045.75,38.8134050097221
3046,38.7984101566968
3046.25,38.7834153036715
3046.5,38.7684204506462
3046.75,38.753425597621
3047,38.7384307445957
3047.25,38.7234358915704
3047.5,38.7084410385451
3047.75,38.7502459110145
3048,38.865206450875
3048.25,38.9801669907354
3048.5,39.095127530596
3048.75,39.2100880704563
3049,39.3250486103169
3049.25,39.4400091501772
3049.5,39.5549696900378
3049.75,39.6699302298982
3050,39.7848907697587
3050.25,39.8998513096191
3050.5,40.0148118494797
3050.75,40.12977238934
3051,40.2447329292006
3051.25,40.359693469061
3051.5,40.4746540089215
3051.75,40.5896145487819
3052,40.7045750886424
3052.25,40.8195356285028
3052.5,40.9344961683634
3052.75,41.0193526249571
3053,41.064337184033
3053.25,41.1093217431088
3053.5,41.1543063021846
3053.75,41.1992908612604
3054,41.2442754203362
3054.25,41.2892599794121
3054.5,41.3342445384879
3054.75,41.3792290975638
3055,41.4242136566396
3055.25,41.4691982157154
3055.5,41.5141827747912
3055.75,41.5591673338671
3056,41.6041518929429
3056.25,41.6491364520188
3056.5,41.6941210110946
3056.75,41.7391055701704
3057,41.7840901292462
3057.25,41.8290746883221
3057.5,41.8740592473979
3057.75,41.8555644515612
3058,41.7506004803843
3058.25,41.6456365092073
3058.5,41.5406725380305
3058.75,41.4357085668534
3059,41.3307445956766
3059.25,41.2257806244995
3059.5,41.1208166533227
3059.75,41.0158526821456
3060,40.9108887109688
3060.25,40.8059247397917
3060.5,40.7009607686149
3060.75,40.5959967974379
3061,40.491032826261
3061.25,40.386068855084
3061.5,40.2811048839071
3061.75,40.1761409127301
3062,40.0711769415532
3062.25,39.9662129703762
3062.5,39.8612489991993
3062.75,39.7729383506806
3063,39.7079606542377
3063.25,39.6429829577949
3063.5,39.5780052613519
3063.75,39.5130275649091
3064,39.4480498684662
3064.25,39.3830721720234
3064.5,39.3180944755804
3064.75,39.2531167791376
3065,39.1881390826947
3065.25,39.1231613862519
3065.5,39.058183689809
3065.75,38.9932059933662
3066,38.9282282969232
3066.25,38.8632506004804
3066.5,38.7982729040375
3066.75,38.7332952075947
3067,38.6683175111517
3067.25,38.6033398147089
3067.5,38.538362118266
3067.75,38.5491364520187
3068,38.6690952762211
3068.25,38.7890541004232
3068.5,38.9090129246255
3068.75,39.0289717488276
3069,39.1489305730299
3069.25,39.2688893972321
3069.5,39.3888482214344
3069.75,39.5088070456365
3070,39.6287658698388
3070.25,39.7487246940409
3070.5,39.8686835182433
3070.75,39.9886423424454
3071,40.1086011666477
3071.25,40.2285599908498
3071.5,40.3485188150522
3071.75,40.4684776392543
3072,40.5884364634564
3072.25,40.7083952876587
3072.5,40.8283541118608
3072.75,40.9422738190553
3073,41.0472377902321
3073.25,41.1522017614092
3073.5,41.257165732586
3073.75,41.362129703763
3074,41.4670936749399
3074.25,41.5720576461169
3074.5,41.6770216172938
3074.75,41.7819855884708
3075,41.8869495596477
3075.25,41.9919135308247
3075.5,42.0968775020016
3075.75,42.2018414731786
3076,42.3068054443554
3076.25,42.4117694155325
3076.5,42.5167333867093
3076.75,42.6216973578864
3077,42.7266613290632
3077.25,42.8316253002403
3077.5,42.9365892714171
3077.75,43.0791490335127
3078,43.2790804071828
3078.25,43.4790117808534
3078.5,43.6789431545236
3078.75,43.8788745281941
3079,44.0788059018643
3079.25,44.2787372755349
3079.5,44.4786686492051
3079.75,44.6786000228756
3080,44.8785313965458
3080.25,45.0784627702164
3080.5,45.2783941438865
3080.75,45.4783255175571
3081,45.6782568912273
3081.25,45.8781882648975
3081.5,46.078119638568
3081.75,46.2780510122382
3082,46.4779823859088
3082.25,46.6779137595789
3082.5,46.8778451332495
3082.75,46.9338899691183
3083,46.7639483014983
3083.25,46.5940066338786
3083.5,46.4240649662587
3083.75,46.254123298639
3084,46.084181631019
3084.25,45.9142399633994
3084.5,45.7442982957794
3084.75,45.5743566281597
3085,45.4044149605398
3085.25,45.2344732929201
3085.5,45.0645316253001
3085.75,44.8945899576805
3086,44.7246482900605
3086.25,44.5547066224409
3086.5,44.3847649548209
3086.75,44.2148232872012
3087,44.0448816195813
3087.25,43.8749399519616
3087.5,43.7049982843416
3087.75,43.5713485073773
3088,43.4963742422509
3088.25,43.4213999771246
3088.5,43.3464257119981
3088.75,43.2714514468718
3089,43.1964771817453
3089.25,43.121502916619
3089.5,43.0465286514926
3089.75,42.9715543863662
3090,42.8965801212398
3090.25,42.8216058561135
3090.5,42.7466315909871
3090.75,42.6716573258607
3091,42.5966830607344
3091.25,42.5217087956079
3091.5,42.4467345304816
3091.75,42.3717602653551
3092,42.2967860002288
3092.25,42.2218117351023
3092.5,42.146837469976
3092.75,42.0849937092531
3093,42.0450074345191
3093.25,42.005021159785
3093.5,41.9650348850509
3093.75,41.9250486103168
3094,41.8850623355828
3094.25,41.8450760608487
3094.5,41.8050897861146
3094.75,41.7651035113805
3095,41.7251172366465
3095.25,41.6851309619124
3095.5,41.6451446871783
3095.75,41.6051584124442
3096,41.5651721377102
3096.25,41.5251858629761
3096.5,41.485199588242
3096.75,41.4452133135079
3097,41.4052270387739
3097.25,41.3652407640398
3097.5,41.3252544893057
3097.75,41.3128903122498
3098,41.3478783026421
3098.25,41.3828662930345
3098.5,41.4178542834267
3098.75,41.4528422738191
3099,41.4878302642114
3099.25,41.5228182546037
3099.5,41.557806244996
3099.75,41.5927942353883
3100,41.6277822257806
3100.25,41.6627702161729
3100.5,41.6977582065653
3100.75,41.7327461969575
3101,41.7677341873499
3101.25,41.8027221777422
3101.5,41.8377101681345
3101.75,41.8726981585268
3102,41.9076861489191
3102.25,41.9426741393114
3102.5,41.9776621297038
3102.75,41.9439780395746
3103,41.7890312249799
3103.25,41.6340844103855
3103.5,41.4791375957908
3103.75,41.3241907811965
3104,41.1692439666018
3104.25,41.0142971520074
3104.5,40.8593503374127
3104.75,40.7044035228183
3105,40.5494567082236
3105.25,40.3945098936292
3105.5,40.2395630790346
3105.75,40.0846162644402
3106,39.9296694498455
3106.25,39.7747226352511
3106.5,39.6197758206564
3106.75,39.464829006062
3107,39.3098821914673
3107.25,39.1549353768729
3107.5,38.9999885622783
3107.75,38.9602767928629
3108,39.1302184604828
3108.25,39.3001601281025
3108.5,39.4701017957225
3108.75,39.6400434633421
3109,39.8099851309618
3109.25,39.9799267985817
3109.5,40.1498684662014
3109.75,40.3198101338214
3110,40.489751801441
3110.25,40.659693469061
3110.5,40.8296351366807
3110.75,40.9995768043006
3111,41.1695184719203
3111.25,41.3394601395403
3111.5,41.5094018071599
3111.75,41.6793434747799
3112,41.8492851423995
3112.25,42.0192268100195
3112.5,42.1891684776392
3112.75,42.2547981242136
3113,42.124842731328
3113.25,41.9948873384421
3113.5,41.8649319455565
3113.75,41.7349765526706
3114,41.605021159785
3114.25,41.4750657668991
3114.5,41.3451103740135
3114.75,41.2151549811277
3115,41.085199588242
3115.25,40.9552441953562
3115.5,40.8252888024706
3115.75,40.6953334095847
3116,40.5653780166991
3116.25,40.4354226238132
3116.5,40.3054672309276
3116.75,40.1755118380418
3117,40.0455564451561
3117.25,39.9156010522703
3117.5,39.7856456593846
3117.75,39.7647603797325
3118,39.9546951847192
3118.25,40.1446299897059
3118.5,40.3345647946929
3118.75,40.5244995996796
3119,40.7144344046666
3119.25,40.9043692096533
3119.5,41.0943040146403
3119.75,41.284238819627
3120,41.474173624614
3120.25,41.6641084296007
3120.5,41.8540432345877
3120.75,42.0439780395744
3121,42.2339128445614
3121.25,42.4238476495481
3121.5,42.6137824545351
3121.75,42.8037172595218
3122,42.9936520645088
3122.25,43.1835868694955
3122.5,43.3735216744825
3122.75,43.4782912043921
3123,43.4133135079492
3123.25,43.3483358115064
3123.5,43.2833581150634
3123.75,43.2183804186206
3124,43.1534027221777
3124.25,43.0884250257349
3124.5,43.023447329292
3124.75,42.9584696328491
3125,42.8934919364062
3125.25,42.8285142399634
3125.5,42.7635365435205
3125.75,42.6985588470777
3126,42.6335811506347
3126.25,42.5686034541919
3126.5,42.503625757749
3126.75,42.4386480613062
3127,42.3736703648633
3127.25,42.3086926684204
3127.5,42.2437149719776
3127.75,42.2261695070342
3128,42.3061420565023
3128.25,42.3861146059705
3128.5,42.4660871554386
3128.75,42.5460597049068
3129,42.6260322543749
3129.25,42.7060048038431
3129.5,42.7859773533112
3129.75,42.8659499027794
3130,42.9459224522475
3130.25,43.0258950017157
3130.5,43.1058675511838
3130.75,43.185840100652
3131,43.2658126501201
3131.25,43.3457851995883
3131.5,43.4257577490564
3131.75,43.5057302985246
3132,43.5857028479927
3132.25,43.6656753974609
3132.5,43.7456479469289
3132.75,43.8016012810248
3133,43.8065995653666
3133.25,43.8115978497083
3133.5,43.8165961340501
3133.75,43.8215944183919
3134,43.8265927027336
3134.25,43.8315909870754
3134.5,43.8365892714171
3134.75,43.8415875557589
3135,43.8465858401007
3135.25,43.8515841244424
3135.5,43.8565824087842
3135.75,43.8615806931259
3136,43.8665789774677
3136.25,43.8715772618094
3136.5,43.8765755461512
3136.75,43.881573830493
3137,43.8865721148347
3137.25,43.8915703991765
3137.5,43.8965686835182
3137.75,43.9313393572
3138,44.0313050440353
3138.25,44.1312707308703
3138.5,44.2312364177056
3138.75,44.3312021045407
3139,44.431167791376
3139.25,44.5311334782111
3139.5,44.6310991650464
3139.75,44.7310648518815
3140,44.8310305387167
3140.25,44.9309962255518
3140.5,45.0309619123871
3140.75,45.1309275992222
3141,45.2308932860575
3141.25,45.3308589728926
3141.5,45.4308246597278
3141.75,45.5307903465629
3142,45.6307560333982
3142.25,45.7307217202333
3142.5,45.8306874070686
3142.75,45.8632162873156
3143,45.7432574631133
3143.25,45.6232986389111
3143.5,45.5033398147088
3143.75,45.3833809905067
3144,45.2634221663044
3144.25,45.1434633421023
3144.5,45.0235045178999
3144.75,44.9035456936978
3145,44.7835868694955
3145.25,44.6636280452934
3145.5,44.543669221091
3145.75,44.4237103968889
3146,44.3037515726868
3146.25,44.1837927484845
3146.5,44.0638339242824
3146.75,43.94387510008
3147,43.8239162758779
3147.25,43.7039574516756
3147.5,43.5839986274735
3147.75,43.5059933661215
3148,43.5259865034885
3148.25,43.5459796408555
3148.5,43.5659727782226
3148.75,43.5859659155896
3149,43.6059590529566
3149.25,43.6259521903237
3149.5,43.6459453276907
3149.75,43.6659384650578
3150,43.6859316024248
3150.25,43.7059247397918
3150.5,43.7259178771589
3150.75,43.7459110145259
3151,43.7659041518929
3151.25,43.78589728926
3151.5,43.805890426627
3151.75,43.8258835639941
3152,43.8458767013611
3152.25,43.8658698387281
3152.5,43.8858629760952
3152.75,43.8707194326889
3153,43.7707537458538
3153.25,43.6707880590186
3153.5,43.5708223721835
3153.75,43.4708566853482
3154,43.3708909985131
3154.25,43.2709253116778
3154.5,43.1709596248427
3154.75,43.0709939380076
3155,42.9710282511724
3155.25,42.8710625643373
3155.5,42.771096877502
3155.75,42.6711311906669
3156,42.5711655038316
3156.25,42.4711998169965
3156.5,42.3712341301612
3156.75,42.2712684433262
3157,42.1713027564909
3157.25,42.0713370696558
3157.5,41.9713713828205
3157.75,41.9042891456022
3158,41.9192839986275
3158.25,41.9342788516527
3158.5,41.949273704678
3158.75,41.9642685577033
3159,41.9792634107286
3159.25,41.9942582637539
3159.5,42.0092531167791
3159.75,42.0242479698044
3160,42.0392428228297
3160.25,42.054237675855
3160.5,42.0692325288803
3160.75,42.0842273819055
3161,42.0992222349308
3161.25,42.1142170879561
3161.5,42.1292119409814
3161.75,42.1442067940066
3162,42.1592016470319
3162.25,42.1741965000572
3162.5,42.1891913530825
3162.75,42.2013954020359
3163,42.2063936863777
3163.25,42.2113919707194
3163.5,42.2163902550612
3163.75,42.221388539403
3164,42.2263868237447
3164.25,42.2313851080865
3164.5,42.2363833924282
3164.75,42.24138167677
3165,42.2463799611117
3165.25,42.2513782454535
3165.5,42.2563765297953
3165.75,42.261374814137
3166,42.2663730984788
3166.25,42.2713713828205
3166.5,42.2763696671623
3166.75,42.2813679515041
3167,42.2863662358458
3167.25,42.2913645201876
3167.5,42.2963628045293
3167.75,42.2918334667734
3168,42.2618437607229
3168.25,42.2318540546723
3168.5,42.2018643486218
3168.75,42.1718746425712
3169,42.1418849365207
3169.25,42.1118952304701
3169.5,42.0819055244195
3169.75,42.051915818369
3170,42.0219261123184
3170.25,41.9919364062679
3170.5,41.9619467002173
3170.75,41.9319569941667
3171,41.9019672881162
3171.25,41.8719775820656
3171.5,41.8419878760151
3171.75,41.8119981699645
3172,41.782008463914
3172.25,41.7520187578634
3172.5,41.7220290518129
3172.75,41.7132677570628
3173,41.7632506004804
3173.25,41.8132334438979
3173.5,41.8632162873156
3173.75,41.9131991307331
3174,41.9631819741508
3174.25,42.0131648175683
3174.5,42.0631476609859
3174.75,42.1131305044035
3175,42.1631133478211
3175.25,42.2130961912387
3175.5,42.2630790346563
3175.75,42.3130618780739
3176,42.3630447214915
3176.25,42.413027564909
3176.5,42.4630104083267
3176.75,42.5129932517442
3177,42.5629760951619
3177.25,42.6129589385794
3177.5,42.6629417819971
3177.75,42.6870753745854
3178,42.6370925311678
3178.25,42.5871096877502
3178.5,42.5371268443326
3178.75,42.487144000915
3179,42.4371611574974
3179.25,42.3871783140798
3179.5,42.3371954706622
3179.75,42.2872126272447
3180,42.237229783827
3180.25,42.1872469404095
3180.5,42.1372640969918
3180.75,42.0872812535743
3181,42.0372984101567
3181.25,41.9873155667391
3181.5,41.9373327233215
3181.75,41.8873498799039
3182,41.8373670364863
3182.25,41.7873841930687
3182.5,41.7374013496512
3182.75,41.7
3183,41.7
3183.25,41.7
3183.5,41.7
3183.75,41.7
3184,41.7
3184.25,41.7
3184.5,41.7
3184.75,41.7
3185,41.7
3185.25,41.7
3185.5,41.7
3185.75,41.7
3186,41.7
3186.25,41.7
3186.5,41.7
3186.75,41.7
3187,41.7
3187.25,41.7
3187.5,41.7
3187.75,41.6853139654581
3188,41.625334553357
3188.25,41.5653551412558
3188.5,41.5053757291548
3188.75,41.4453963170536
3189,41.3854169049526
3189.25,41.3254374928514
3189.5,41.2654580807503
3189.75,41.2054786686492
3190,41.1454992565481
3190.25,41.0855198444469
3190.5,41.0255404323459
3190.75,40.9655610202447
3191,40.9055816081437
3191.25,40.8456021960425
3191.5,40.7856227839414
3191.75,40.7256433718404
3192,40.6656639597392
3192.25,40.6056845476382
3192.5,40.545705135537
3192.75,40.4845362003889
3193,40.419558503946
3193.25,40.3545808075032
3193.5,40.2896031110603
3193.75,40.2246254146174
3194,40.1596477181745
3194.25,40.0946700217317
3194.5,40.0296923252888
3194.75,39.964714628846
3195,39.899736932403
3195.25,39.8347592359602
3195.5,39.7697815395173
3195.75,39.7048038430745
3196,39.6398261466316
3196.25,39.5748484501887
3196.5,39.5098707537458
3196.75,39.444893057303
3197,39.3799153608601
3197.25,39.3149376644173
3197.5,39.2499599679743
3197.75,39.2115520988219
3198,39.2615349422395
3198.25,39.3115177856571
3198.5,39.3615006290747
3198.75,39.4114834724923
3199,39.4614663159099
3199.25,39.5114491593275
3199.5,39.5614320027451
3199.75,39.6114148461626
3200,39.6613976895803
3200.25,39.7113805329978
3200.5,39.7613633764155
3200.75,39.811346219833
3201,39.8613290632506
3201.25,39.9113119066682
3201.5,39.9612947500857
3201.75,40.0112775935034
3202,40.0612604369209
3202.25,40.1112432803386
3202.5,40.1612261237561
3202.75,40.1843074459567
3203,40.1143314651722
3203.25,40.0443554843875
3203.5,39.9743795036029
3203.75,39.9044035228182
3204,39.8344275420337
3204.25,39.764451561249
3204.5,39.6944755804644
3204.75,39.6244995996797
3205,39.5545236188951
3205.25,39.4845476381105
3205.5,39.4145716573259
3205.75,39.3445956765412
3206,39.2746196957566
3206.25,39.2046437149719
3206.5,39.1346677341874
3206.75,39.0646917534027
3207,38.9947157726181
3207.25,38.9247397918334
3207.5,38.8547638110488
3207.75,38.7891341644744
3208,38.7391513210569
3208.25,38.6891684776392
3208.5,38.6391856342217
3208.75,38.589202790804
3209,38.5392199473865
3209.25,38.4892371039688
3209.5,38.4392542605513
3209.75,38.3892714171337
3210,38.3392885737161
3210.25,38.2893057302986
3210.5,38.2393228868809
3210.75,38.1893400434634
3211,38.1393572000457
3211.25,38.0893743566282
3211.5,38.0393915132106
3211.75,37.989408669793
3212,37.9394258263754
3212.25,37.8894429829578
3212.5,37.8394601395402
3212.75,37.7663273475925
3213,37.606382248656
3213.25,37.4464371497199
3213.5,37.2864920507834
3213.75,37.1265469518473
3214,36.9666018529108
3214.25,36.8066567539747
3214.5,36.6467116550382
3214.75,36.4867665561021
3215,36.3268214571656
3215.25,36.1668763582295
3215.5,36.006931259293
3215.75,35.8469861603569
3216,35.6870410614205
3216.25,35.5270959624843
3216.5,35.3671508635479
3216.75,35.2072057646117
3217,35.0472606656753
3217.25,34.8873155667391
3217.5,34.7273704678027
3217.75,34.6223950589043
3218,34.7323573144231
3218.25,34.8423195699417
3218.5,34.9522818254605
3218.75,35.0622440809791
3219,35.1722063364979
3219.25,35.2821685920165
3219.5,35.3921308475351
3219.75,35.5020931030539
3220,35.6120553585725
3220.25,35.7220176140913
3220.5,35.8319798696099
3220.75,35.9419421251287
3221,36.0519043806473
3221.25,36.1618666361661
3221.5,36.2718288916847
3221.75,36.3817911472035
3222,36.4917534027221
3222.25,36.6017156582409
3222.5,36.7116779137595
3222.75,36.7852453391284
3223,36.7102710740021
3223.25,36.6352968088756
3223.5,36.5603225437493
3223.75,36.4853482786229
3224,36.4103740134965
3224.25,36.3353997483701
3224.5,36.2604254832438
3224.75,36.1854512181173
3225,36.110476952991
3225.25,36.0355026878645
3225.5,35.9605284227382
3225.75,35.8855541576118
3226,35.8105798924854
3226.25,35.735605627359
3226.5,35.6606313622327
3226.75,35.5856570971062
3227,35.5106828319799
3227.25,35.4357085668534
3227.5,35.3607343017271
3227.75,35.3265812650121
3228,35.4665332265813
3228.25,35.6064851881507
3228.5,35.7464371497198
3228.75,35.8863891112889
3229,36.0263410728583
3229.25,36.1662930344274
3229.5,36.3062449959968
3229.75,36.446196957566
3230,36.5861489191353
3230.25,36.7261008807045
3230.5,36.8660528422739
3230.75,37.006004803843
3231,37.1459567654124
3231.25,37.2859087269815
3231.5,37.4258606885509
3231.75,37.56581265012
3232,37.7057646116894
3232.25,37.8457165732585
3232.5,37.9856685348279
3232.75,38.0789545922453
3233,37.9639940523847
3233.25,37.8490335125244
3233.5,37.7340729726638
3233.75,37.6191124328034
3234,37.5041518929429
3234.25,37.3891913530825
3234.5,37.2742308132219
3234.75,37.1592702733616
3235,37.044309733501
3235.25,36.9293491936406
3235.5,36.8143886537801
3235.75,36.6994281139197
3236,36.5844675740592
3236.25,36.4695070341988
3236.5,36.3545464943382
3236.75,36.2395859544779
3237,36.1246254146173
3237.25,36.0096648747569
3237.5,35.8947043348964
3237.75,35.8387510008007
3238,36.0586755118379
3238.25,36.2786000228755
3238.5,36.4985245339127
3238.75,36.7184490449503
3239,36.9383735559875
3239.25,37.1582980670251
3239.5,37.3782225780623
3239.75,37.5981470890999
3240,37.8180716001371
3240.25,38.0379961111747
3240.5,38.2579206222119
3240.75,38.4778451332495
3241,38.6977696442867
3241.25,38.9176941553244
3241.5,39.1376186663616
3241.75,39.3575431773992
3242,39.5774676884364
3242.25,39.797392199474
3242.5,40.0173167105112
3242.75,40.1712226924396
3243,40.0012810248199
3243.25,39.8313393571999
3243.5,39.6613976895803
3243.75,39.4914560219603
3244,39.3215143543407
3244.25,39.1515726867207
3244.5,38.981631019101
3244.75,38.8116893514811
3245,38.6417476838614
3245.25,38.4718060162414
3245.5,38.3018643486218
3245.75,38.1319226810018
3246,37.9619810133821
3246.25,37.7920393457622
3246.5,37.6220976781425
3246.75,37.4521560105225
3247,37.2822143429029
3247.25,37.1122726752832
3247.5,36.9423310076632
3247.75,36.7886309047238
3248,36.7186549239391
3248.25,36.6486789431546
3248.5,36.5787029623699
3248.75,36.5087269815853
3249,36.4387510008006
3249.25,36.3687750200161
3249.5,36.2987990392314
3249.75,36.2288230584468
3250,36.1588470776621
3250.25,36.0888710968775
3250.5,36.0188951160928
3250.75,35.9489191353083
3251,35.8789431545236
3251.25,35.808967173739
3251.5,35.7389911929543
3251.75,35.6690152121698
3252,35.5990392313851
3252.25,35.5290632506005
3252.5,35.4590872698158
3252.75,35.3673338670937
3253,35.1574059247396
3253.25,34.947477982386
3253.5,34.7375500400319
3253.75,34.5276220976782
3254,34.3176941553241
3254.25,34.1077662129704
3254.5,33.8978382706163
3254.75,33.6879103282626
3255,33.4779823859085
3255.25,33.2680544435548
3255.5,33.0581265012008
3255.75,32.8481985588471
3256,32.638270616493
3256.25,32.4283426741393
3256.5,32.2184147317856
3256.75,32.0084867894315
3257,31.7985588470778
3257.25,31.5886309047237
3257.5,31.37870296237
3257.75,31.2178428457052
3258,31.3378016699073
3258.25,31.4577604941096
3258.5,31.5777193183117
3258.75,31.6976781425141
3259,31.8176369667162
3259.25,31.9375957909185
3259.5,32.0575546151206
3259.75,32.1775134393229
3260,32.2974722635251
3260.25,32.4174310877274
3260.5,32.5373899119295
3260.75,32.6573487361318
3261,32.7773075603339
3261.25,32.8972663845363
3261.5,33.0172252087384
3261.75,33.1371840329407
3262,33.2571428571428
3262.25,33.3771016813452
3262.5,33.4970605055473
3262.75,33.6156010522705
3263,33.7255633077891
3263.25,33.8355255633079
3263.5,33.9454878188265
3263.75,34.0554500743453
3264,34.1654123298639
3264.25,34.2753745853827
3264.5,34.3853368409013
3264.75,34.4952990964201
3265,34.6052613519387
3265.25,34.7152236074575
3265.5,34.8251858629761
3265.75,34.9351481184947
3266,35.0451103740135
3266.25,35.1550726295321
3266.5,35.2650348850509
3266.75,35.3749971405695
3267,35.4849593960883
3267.25,35.5949216516069
3267.5,35.7048839071257
3267.75,35.7939265698273
3268,35.7489420107514
3268.25,35.7039574516756
3268.5,35.6589728925998
3268.75,35.613988333524
3269,35.5690037744481
3269.25,35.5240192153723
3269.5,35.4790346562964
3269.75,35.4340500972206
3270,35.3890655381448
3270.25,35.344080979069
3270.5,35.2990964199931
3270.75,35.2541118609173
3271,35.2091273018414
3271.25,35.1641427427656
3271.5,35.1191581836898
3271.75,35.074173624614
3272,35.0291890655381
3272.25,34.9842045064623
3272.5,34.9392199473864
3272.75,34.9038430744596
3273,34.9338327805101
3273.25,34.9638224865607
3273.5,34.9938121926113
3273.75,35.0238018986618
3274,35.0537916047124
3274.25,35.0837813107629
3274.5,35.1137710168135
3274.75,35.143760722864
3275,35.1737504289145
3275.25,35.2037401349651
3275.5,35.2337298410156
3275.75,35.2637195470662
3276,35.2937092531168
3276.25,35.3236989591673
3276.5,35.3536886652179
3276.75,35.3836783712685
3277,35.413668077319
3277.25,35.4436577833696
3277.5,35.4736474894201
3277.75,35.4842388196271
3278,35.3542834267415
3278.25,35.2243280338556
3278.5,35.09437264097
3278.75,34.9644172480841
3279,34.8344618551985
3279.25,34.7045064623126
3279.5,34.574551069427
3279.75,34.4445956765412
3280,34.3146402836555
3280.25,34.1846848907697
3280.5,34.0547294978841
3280.75,33.9247741049982
3281,33.7948187121126
3281.25,33.6648633192267
3281.5,33.5349079263411
3281.75,33.4049525334552
3282,33.2749971405696
3282.25,33.1450417476838
3282.5,33.0150863547981
3282.75,32.8982843417591
3283,32.8832894887338
3283.25,32.8682946357086
3283.5,32.8532997826833
3283.75,32.838304929658
3284,32.8233100766327
3284.25,32.8083152236075
3284.5,32.7933203705822
3284.75,32.7783255175569
3285,32.7633306645316
3285.25,32.7483358115064
3285.5,32.7333409584811
3285.75,32.7183461054558
3286,32.7033512524305
3286.25,32.6883563994053
3286.5,32.67336154638
3286.75,32.6583666933547
3287,32.6433718403294
3287.25,32.6283769873041
3287.5,32.6133821342788
3287.75,32.5946242708453
3288,32.5446414274276
3288.25,32.4946585840101
3288.5,32.4446757405925
3288.75,32.3946928971749
3289,32.3447100537573
3289.25,32.2947272103397
3289.5,32.2447443669221
3289.75,32.1947615235045
3290,32.1447786800869
3290.25,32.0947958366693
3290.5,32.0448129932517
3290.75,31.9948301498342
3291,31.9448473064165
3291.25,31.894864462999
3291.5,31.8448816195813
3291.75,31.7948987761638
3292,31.7449159327462
3292.25,31.6949330893286
3292.5,31.644950245911
3292.75,31.6055358572572
3293,31.6605169850166
3293.25,31.7154981127759
3293.5,31.7704792405352
3293.75,31.8254603682946
3294,31.8804414960539
3294.25,31.9354226238133
3294.5,31.9904037515727
3294.75,32.0453848793321
3295,32.1003660070914
3295.25,32.1553471348508
3295.5,32.2103282626101
3295.75,32.2653093903695
3296,32.3202905181288
3296.25,32.3752716458882
3296.5,32.4302527736475
3296.75,32.4852339014069
3297,32.5402150291662
3297.25,32.5951961569256
3297.5,32.6501772846849
3297.75,32.7009378931717
3298,32.7109344618552
3298.25,32.7209310305387
3298.5,32.7309275992222
3298.75,32.7409241679058
3299,32.7509207365893
3299.25,32.7609173052728
3299.5,32.7709138739563
3299.75,32.7809104426398
3300,32.7909070113233
3300.25,32.8009035800069
3300.5,32.8109001486904
3300.75,32.8208967173739
3301,32.8308932860574
3301.25,32.8408898547409
3301.5,32.8508864234245
3301.75,32.860882992108
3302,32.8708795607915
3302.25,32.880876129475
3302.5,32.8908726981585
3302.75,32.9117351023675
3303,33.0466887795951
3303.25,33.1816424568225
3303.5,33.3165961340501
3303.75,33.4515498112775
3304,33.5865034885051
3304.25,33.7214571657325
3304.5,33.8564108429601
3304.75,33.9913645201875
3305,34.1263181974151
3305.25,34.2612718746425
3305.5,34.3962255518701
3305.75,34.5311792290975
3306,34.6661329063251
3306.25,34.8010865835525
3306.5,34.9360402607801
3306.75,35.0709939380075
3307,35.2059476152351
3307.25,35.3409012924625
3307.5,35.4758549696901
3307.75,35.5907926341073
3308,35.4758320942468
3308.25,35.3608715543864
3308.5,35.2459110145258
3308.75,35.1309504746655
3309,35.0159899348049
3309.25,34.9010293949445
3309.5,34.786068855084
3309.75,34.6711083152236
3310,34.5561477753631
3310.25,34.4411872355027
3310.5,34.3262266956421
3310.75,34.2112661557818
3311,34.0963056159212
3311.25,33.9813450760608
3311.5,33.8663845362003
3311.75,33.7514239963399
3312,33.6364634564796
3312.25,33.521502916619
3312.5,33.4065423767586
3312.75,33.3054901063708
3313,33.3804643714971
3313.25,33.4554386366236
3313.5,33.5304129017499
3313.75,33.6053871668764
3314,33.6803614320027
3314.25,33.7553356971292
3314.5,33.8303099622555
3314.75,33.9052842273819
3315,33.9802584925083
3315.25,34.0552327576347
3315.5,34.130207022761
3315.75,34.2051812878875
3316,34.2801555530138
3316.25,34.3551298181403
3316.5,34.4301040832666
3316.75,34.505078348393
3317,34.5800526135194
3317.25,34.6550268786458
3317.5,34.7300011437721
3317.75,34.7917076518357
3318,34.6667505432918
3318.25,34.5417934347477
3318.5,34.4168363262038
3318.75,34.2918792176597
3319,34.1669221091159
3319.25,34.0419650005718
3319.5,33.9170078920279
3319.75,33.7920507834838
3320,33.6670936749399
3320.25,33.5421365663959
3320.5,33.417179457852
3320.75,33.2922223493079
3321,33.167265240764
3321.25,33.0423081322202
3321.5,32.9173510236761
3321.75,32.7923939151322
3322,32.6674368065881
3322.25,32.5424796980442
3322.5,32.4175225895001
3322.75,32.2997026192382
3323,32.2947043348965
3323.25,32.2897060505547
3323.5,32.284707766213
3323.75,32.2797094818712
3324,32.2747111975294
3324.25,32.2697129131877
3324.5,32.2647146288459
3324.75,32.2597163445042
3325,32.2547180601624
3325.25,32.2497197758207
3325.5,32.2447214914789
3325.75,32.2397232071371
3326,32.2347249227954
3326.25,32.2297266384536
3326.5,32.2247283541119
3326.75,32.2197300697701
3327,32.2147317854283
3327.25,32.2097335010866
3327.5,32.2047352167448
3327.75,32.1997369324031
3328,32.1947386480613
3328.25,32.1897403637196
3328.5,32.1847420793778
3328.75,32.179743795036
3329,32.1747455106943
3329.25,32.1697472263525
3329.5,32.1647489420107
3329.75,32.159750657669
3330,32.1547523733272
3330.25,32.1497540889855
3330.5,32.1447558046437
3330.75,32.139757520302
3331,32.1347592359602
3331.25,32.1297609516184
3331.5,32.1247626672767
3331.75,32.1197643829349
3332,32.1147660985932
3332.25,32.1097678142514
3332.5,32.1047695299096
3332.75,32.1029738076175
3333,32.1679515040604
3333.25,32.2329292005033
3333.5,32.2979068969461
3333.75,32.362884593389
3334,32.4278622898318
3334.25,32.4928399862748
3334.5,32.5578176827176
3334.75,32.6227953791605
3335,32.6877730756033
3335.25,32.7527507720462
3335.5,32.8177284684891
3335.75,32.882706164932
3336,32.9476838613748
3336.25,33.0126615578177
3336.5,33.0776392542605
3336.75,33.1426169507035
3337,33.2075946471463
3337.25,33.2725723435892
3337.5,33.337550040032
3337.75,33.4001944412673
3338,33.4051927256091
3338.25,33.4101910099508
3338.5,33.4151892942926
3338.75,33.4201875786343
3339,33.4251858629761
3339.25,33.4301841473178
3339.5,33.4351824316596
3339.75,33.4401807160014
3340,33.4451790003431
3340.25,33.4501772846849
3340.5,33.4551755690267
3340.75,33.4601738533684
3341,33.4651721377102
3341.25,33.4701704220519
3341.5,33.4751687063937
3341.75,33.4801669907354
3342,33.4851652750772
3342.25,33.490163559419
3342.5,33.4951618437607
3342.75,33.4961569255405
3343,33.3761981013382
3343.25,33.256239277136
3343.5,33.1362804529337
3343.75,33.0163216287316
3344,32.8963628045293
3344.25,32.7764039803272
3344.5,32.6564451561248
3344.75,32.5364863319227
3345,32.4165275077204
3345.25,32.2965686835183
3345.5,32.1766098593159
3345.75,32.0566510351138
3346,31.9366922109115
3346.25,31.8167333867094
3346.5,31.6967745625071
3346.75,31.5768157383049
3347,31.4568569141026
3347.25,31.3368980899005
3347.5,31.2169392656982
3347.75,31.0986160356857
3348,31.0436349079263
3348.25,30.988653780167
3348.5,30.9336726524077
3348.75,30.8786915246483
3349,30.823710396889
3349.25,30.7687292691296
3349.5,30.7137481413703
3349.75,30.6587670136109
3350,30.6037858858516
3350.25,30.5488047580922
3350.5,30.4938236303329
3350.75,30.4388425025735
3351,30.3838613748142
3351.25,30.3288802470548
3351.5,30.2738991192955
3351.75,30.2189179915361
3352,30.1639368637768
3352.25,30.1089557360174
3352.5,30.0539746082581
3352.75,29.9997254946815
3353,29.9847306416562
3353.25,29.9697357886309
3353.5,29.9547409356056
3353.75,29.9397460825803
3354,29.9247512295551
3354.25,29.9097563765298
3354.5,29.8947615235045
3354.75,29.8797666704792
3355,29.864771817454
3355.25,29.8497769644287
3355.5,29.8347821114034
3355.75,29.8197872583781
3356,29.8047924053529
3356.25,29.7897975523276
3356.5,29.7748026993023
3356.75,29.759807846277
3357,29.7448129932517
3357.25,29.7298181402265
3357.5,29.7148232872012
3357.75,29.7001143772161
3358,29.7101109458996
3358.25,29.7201075145831
3358.5,29.7301040832666
3358.75,29.7401006519501
3359,29.7500972206337
3359.25,29.7600937893172
3359.5,29.7700903580007
3359.75,29.7800869266842
3360,29.7900834953677
3360.25,29.8000800640512
3360.5,29.8100766327348
3360.75,29.8200732014183
3361,29.8300697701018
3361.25,29.8400663387853
3361.5,29.8500629074688
3361.75,29.8600594761523
3362,29.8700560448359
3362.25,29.8800526135194
3362.5,29.8900491822029
3362.75,29.9002287544321
3363,29.9502115978497
3363.25,30.0001944412673
3363.5,30.0501772846849
3363.75,30.1001601281025
3364,30.1501429715201
3364.25,30.2001258149377
3364.5,30.2501086583553
3364.75,30.3000915017728
3365,30.3500743451905
3365.25,30.400057188608
3365.5,30.4500400320257
3365.75,30.5000228754432
3366,30.5500057188608
3366.25,30.5999885622784
3366.5,30.649971405696
3366.75,30.6999542491136
3367,30.7499370925311
3367.25,30.7999199359488
3367.5,30.8499027793663
3367.75,30.8998856227839
3368,31.1194212512866
3368.25,31.3393457623242
3368.5,31.5592702733614
3368.75,31.779194784399
3369,31.9991192954362
3369.25,32.2190438064738
3369.5,32.438968317511
3369.75,32.6588928285486
3370,32.8788173395858
3370.25,33.0987418506234
3370.5,33.3186663616607
3370.75,33.5385908726983
3371,33.7585153837355
3371.25,33.9784398947731
3371.5,34.1983644058103
3371.75,34.4182889168479
3372,34.6382134278851
3372.25,34.8581379389227
3372.5,35.0780624499599
3372.75,35.2979869609975
3373,35.2059018643486
3373.25,35.1109344618551
3373.5,35.0159670593618
3373.75,34.9209996568683
3374,34.8260322543749
3374.25,34.7310648518814
3374.5,34.6360974493881
3374.75,34.5411300468946
3375,34.4461626444012
3375.25,34.3511952419077
3375.5,34.2562278394144
3375.75,34.1612604369209
3376,34.0662930344275
3376.25,33.9713256319342
3376.5,33.8763582294407
3376.75,33.7813908269473
3377,33.6864234244538
3377.25,33.5914560219605
3377.5,33.496488619467
3377.75,33.4015212169736
3378,33.2819627130275
3378.25,33.1620038888254
3378.5,33.0420450646231
3378.75,32.922086240421
3379,32.8021274162186
3379.25,32.6821685920165
3379.5,32.5622097678142
3379.75,32.4422509436121
3380,32.3222921194098
3380.25,32.2023332952076
3380.5,32.0823744710053
3380.75,31.9624156468032
3381,31.8424568226009
3381.25,31.7224979983988
3381.5,31.6025391741964
3381.75,31.4825803499943
3382,31.362621525792
3382.25,31.2426627015899
3382.5,31.1227038773875
3382.75,31.0027450531854
3383,30.9267413931144
3383.25,30.8517671279881
3383.5,30.7767928628617
3383.75,30.7018185977353
3384,30.6268443326089
3384.25,30.5518700674826
3384.5,30.4768958023561
3384.75,30.4019215372298
3385,30.3269472721033
3385.25,30.251973006977
3385.5,30.1769987418507
3385.75,30.1020244767242
3386,30.0270502115979
3386.25,29.9520759464714
3386.5,29.8771016813451
3386.75,29.8021274162187
3387,29.7271531510924
3387.25,29.6521788859659
3387.5,29.5772046208396
3387.75,29.5022303557131
3388,29.5
3388.25,29.5
3388.5,29.5
3388.75,29.5
3389,29.5
3389.25,29.5
3389.5,29.5
3389.75,29.5
3390,29.5
3390.25,29.5
3390.5,29.5
3390.75,29.5
3391,29.5
3391.25,29.5
3391.5,29.5
3391.75,29.5
3392,29.5
3392.25,29.5
3392.5,29.5
3392.75,29.5
3393,29.5096305615921
3393.25,29.5196271302757
3393.5,29.5296236989592
3393.75,29.5396202676427
3394,29.5496168363262
3394.25,29.5596134050097
3394.5,29.5696099736932
3394.75,29.5796065423768
3395,29.5896031110603
3395.25,29.5995996797438
3395.5,29.6095962484273
3395.75,29.6195928171108
3396,29.6295893857944
3396.25,29.6395859544779
3396.5,29.6495825231614
3396.75,29.6595790918449
3397,29.6695756605284
3397.25,29.6795722292119
3397.5,29.6895687978955
3397.75,29.699565366579
3398,29.6665332265813
3398.25,29.631545236189
3398.5,29.5965572457966
3398.75,29.5615692554043
3399,29.526581265012
3399.25,29.4915932746197
3399.5,29.4566052842274
3399.75,29.4216172938351
3400,29.3866293034427
3400.25,29.3516413130505
3400.5,29.3166533226581
3400.75,29.2816653322658
3401,29.2466773418735
3401.25,29.2116893514812
3401.5,29.1767013610888
3401.75,29.1417133706966
3402,29.1067253803042
3402.25,29.0717373899119
3402.5,29.0367493995196
3402.75,29.0017614091273
3403,29.1756262152581
3403.25,29.360562735903
3403.5,29.5454992565483
3403.75,29.7304357771932
3404,29.9153722978381
3404.25,30.1003088184834
3404.5,30.2852453391283
3404.75,30.4701818597736
3405,30.6551183804185
3405.25,30.8400549010638
3405.5,31.0249914217087
3405.75,31.2099279423539
3406,31.3948644629989
3406.25,31.5798009836441
3406.5,31.764737504289
3406.75,31.9496740249343
3407,32.1346105455792
3407.25,32.3195470662245
3407.5,32.5044835868694
3407.75,32.6894201075147
3408,32.6717259521903
3408.25,32.6417362461398
3408.5,32.6117465400892
3408.75,32.5817568340386
3409,32.5517671279881
3409.25,32.5217774219375
3409.5,32.491787715887
3409.75,32.4617980098364
3410,32.4318083037859
3410.25,32.4018185977353
3410.5,32.3718288916848
3410.75,32.3418391856342
3411,32.3118494795837
3411.25,32.2818597735331
3411.5,32.2518700674826
3411.75,32.221880361432
3412,32.1918906553814
3412.25,32.1619009493309
3412.5,32.1319112432803
3412.75,32.1019215372298
3413,32.0578977467688
3413.25,32.0129131876931
3413.5,31.9679286286172
3413.75,31.9229440695414
3414,31.8779595104655
3414.25,31.8329749513897
3414.5,31.7879903923138
3414.75,31.743005833238
3415,31.6980212741622
3415.25,31.6530367150864
3415.5,31.6080521560105
3415.75,31.5630675969347
3416,31.5180830378588
3416.25,31.4730984787831
3416.5,31.4281139197072
3416.75,31.3831293606314
3417,31.3381448015555
3417.25,31.2931602424797
3417.5,31.2481756834038
3417.75,31.2031911243281
3418,31.0653322658126
3418.25,30.9203820199017
3418.5,30.7754317739905
3418.75,30.6304815280796
3419,30.4855312821685
3419.25,30.3405810362576
3419.5,30.1956307903465
3419.75,30.0506805444356
3420,29.9057302985244
3420.25,29.7607800526135
3420.5,29.6158298067024
3420.75,29.4708795607915
3421,29.3259293148804
3421.25,29.1809790689695
3421.5,29.0360288230583
3421.75,28.8910785771474
3422,28.7461283312363
3422.25,28.6011780853254
3422.5,28.4562278394145
3422.75,28.3112775935034
3423,28.3460940180716
3423.25,28.3960768614892
3423.5,28.4460597049067
3423.75,28.4960425483244
3424,28.5460253917419
3424.25,28.5960082351596
3424.5,28.6459910785771
3424.75,28.6959739219948
3425,28.7459567654123
3425.25,28.7959396088299
3425.5,28.8459224522475
3425.75,28.8959052956651
3426,28.9458881390827
3426.25,28.9958709825003
3426.5,29.0458538259179
3426.75,29.0958366693355
3427,29.145819512753
3427.25,29.1958023561707
3427.5,29.2457851995882
3427.75,29.2957680430059
3428,29.3183003545694
3428.25,29.3382934919364
3428.5,29.3582866293034
3428.75,29.3782797666705
3429,29.3982729040375
3429.25,29.4182660414046
3429.5,29.4382591787716
3429.75,29.4582523161386
3430,29.4782454535057
3430.25,29.4982385908727
3430.5,29.5182317282397
3430.75,29.5382248656068
3431,29.5582180029738
3431.25,29.5782111403409
3431.5,29.5982042777079
3431.75,29.6181974150749
3432,29.638190552442
3432.25,29.658183689809
3432.5,29.678176827176
3432.75,29.698169964543
3433,29.7408669792977
3433.25,29.7858515383735
3433.5,29.8308360974494
3433.75,29.8758206565252
3434,29.9208052156011
3434.25,29.9657897746769
3434.5,30.0107743337527
3434.75,30.0557588928285
3435,30.1007434519044
3435.25,30.1457280109802
3435.5,30.1907125700561
3435.75,30.2356971291319
3436,30.2806816882077
3436.25,30.3256662472835
3436.5,30.3706508063594
3436.75,30.4156353654352
3437,30.4606199245111
3437.25,30.5056044835869
3437.5,30.5505890426627
3437.75,30.5955736017385
3438,30.6225323115636
3438.25,30.6475237332723
3438.5,30.6725151549811
3438.75,30.6975065766899
3439,30.7224979983987
3439.25,30.7474894201075
3439.5,30.7724808418163
3439.75,30.7974722635251
3440,30.8224636852339
3440.25,30.8474551069427
3440.5,30.8724465286515
3440.75,30.8974379503603
3441,30.9224293720691
3441.25,30.9474207937779
3441.5,30.9724122154867
3441.75,30.9974036371955
3442,31.0223950589043
3442.25,31.0473864806131
3442.5,31.0723779023218
3442.75,31.0973693240307
3443,31.1313050440352
3443.25,31.1662930344276
3443.5,31.2012810248198
3443.75,31.2362690152122
3444,31.2712570056045
3444.25,31.3062449959968
3444.5,31.3412329863891
3444.75,31.3762209767814
3445,31.4112089671737
3445.25,31.4461969575661
3445.5,31.4811849479584
3445.75,31.5161729383507
3446,31.551160928743
3446.25,31.5861489191353
3446.5,31.6211369095276
3446.75,31.65612489992
3447,31.6911128903122
3447.25,31.7261008807046
3447.5,31.7610888710969
3447.75,31.7960768614892
3448,31.7822486560677
3448.25,31.7622555187007
3448.5,31.7422623813336
3448.75,31.7222692439666
3449,31.7022761065996
3449.25,31.6822829692325
3449.5,31.6622898318655
3449.75,31.6422966944984
3450,31.6223035571314
3450.25,31.6023104197644
3450.5,31.5823172823973
3450.75,31.5623241450303
3451,31.5423310076633
3451.25,31.5223378702963
3451.5,31.5023447329292
3451.75,31.4823515955622
3452,31.4623584581951
3452.25,31.4423653208281
3452.5,31.422372183461
3452.75,31.402379046094
3453,31.3471577261809
3453.25,31.2871783140799
3453.5,31.2271989019787
3453.75,31.1672194898776
3454,31.1072400777765
3454.25,31.0472606656754
3454.5,30.9872812535743
3454.75,30.9273018414732
3455,30.867322429372
3455.25,30.807343017271
3455.5,30.7473636051698
3455.75,30.6873841930688
3456,30.6274047809676
3456.25,30.5674253688665
3456.5,30.5074459567654
3456.75,30.4474665446643
3457,30.3874871325631
3457.25,30.3275077204621
3457.5,30.2675283083609
3457.75,30.2075488962599
3458,30.2131076289603
3458.25,30.2281024819856
3458.5,30.2430973350109
3458.75,30.2580921880361
3459,30.2730870410614
3459.25,30.2880818940867
3459.5,30.303076747112
3459.75,30.3180716001373
3460,30.3330664531625
3460.25,30.3480613061878
3460.5,30.3630561592131
3460.75,30.3780510122384
3461,30.3930458652636
3461.25,30.4080407182889
3461.5,30.4230355713142
3461.75,30.4380304243395
3462,30.4530252773647
3462.25,30.46802013039
3462.5,30.4830149834153
3462.75,30.4980098364406
3463,30.5130046894659
3463.25,30.5279995424911
3463.5,30.5429943955164
3463.75,30.5579892485417
3464,30.572984101567
3464.25,30.5879789545923
3464.5,30.6029738076175
3464.75,30.6179686606428
3465,30.6329635136681
3465.25,30.6479583666934
3465.5,30.6629532197186
3465.75,30.6779480727439
3466,30.6929429257692
3466.25,30.7079377787945
3466.5,30.7229326318197
3466.75,30.737927484845
3467,30.7529223378703
3467.25,30.7679171908956
3467.5,30.7829120439209
3467.75,30.7979068969461
3468,30.8
3468.25,30.8
3468.5,30.8
3468.75,30.8
3469,30.8
3469.25,30.8
3469.5,30.8
3469.75,30.8
3470,30.8
3470.25,30.8
3470.5,30.8
3470.75,30.8
3471,30.8
3471.25,30.8
3471.5,30.8
3471.75,30.8
3472,30.8
3472.25,30.8
3472.5,30.8
3472.75,30.8
3473,30.8
3473.25,30.8
3473.5,30.8
3473.75,30.8
3474,30.8
3474.25,30.8
3474.5,30.8
3474.75,30.8
3475,30.8
3475.25,30.8
3475.5,30.8
3475.75,30.8
3476,30.8
3476.25,30.8
3476.5,30.8
3476.75,30.8
3477,30.8
3477.25,30.8
3477.5,30.8
3477.75,30.8
3478,30.7915360860117
3478.25,30.7815395173281
3478.5,30.7715429486446
3478.75,30.7615463799611
3479,30.7515498112776
3479.25,30.7415532425941
3479.5,30.7315566739106
3479.75,30.721560105227
3480,30.7115635365435
3480.25,30.70156696786
3480.5,30.6915703991765
3480.75,30.681573830493
3481,30.6715772618095
3481.25,30.6615806931259
3481.5,30.6515841244424
3481.75,30.6415875557589
3482,30.6315909870754
3482.25,30.6215944183919
3482.5,30.6115978497083
3482.75,30.6016012810248
3483,30.6419764382935
3483.25,30.6919592817111
3483.5,30.7419421251287
3483.75,30.7919249685463
3484,30.8419078119639
3484.25,30.8918906553815
3484.5,30.941873498799
3484.75,30.9918563422167
3485,31.0418391856342
3485.25,31.0918220290519
3485.5,31.1418048724694
3485.75,31.191787715887
3486,31.2417705593046
3486.25,31.2917534027222
3486.5,31.3417362461398
3486.75,31.3917190895574
3487,31.441701932975
3487.25,31.4916847763925
3487.5,31.5416676198101
3487.75,31.5916504632277
3488,31.5208967173739
3488.25,31.4259293148805
3488.5,31.330961912387
3488.75,31.2359945098937
3489,31.1410271074002
3489.25,31.0460597049068
3489.5,30.9510923024133
3489.75,30.85612489992
3490,30.7611574974265
3490.25,30.6661900949331
3490.5,30.5712226924396
3490.75,30.4762552899463
3491,30.3812878874528
3491.25,30.2863204849594
3491.5,30.1913530824659
3491.75,30.0963856799726
3492,30.0014182774791
3492.25,29.9064508749857
3492.5,29.8114834724922
3492.75,29.7165160699989
3493,29.6215486675054
3493.25,29.526581265012
3493.5,29.4316138625185
3493.75,29.3366464600252
3494,29.2416790575317
3494.25,29.1467116550383
3494.5,29.0517442525448
3494.75,28.9567768500515
3495,28.861809447558
3495.25,28.7668420450646
3495.5,28.6718746425711
3495.75,28.5769072400778
3496,28.4819398375843
3496.25,28.3869724350909
3496.5,28.2920050325976
3496.75,28.1970376301041
3497,28.1020702276107
3497.25,28.0071028251172
3497.5,27.9121354226239
3497.75,27.8171680201304
3498,27.7303900263068
3498.25,27.6454191924968
3498.5,27.560448358687
3498.75,27.475477524877
3499,27.3905066910672
3499.25,27.3055358572572
3499.5,27.2205650234474
3499.75,27.1355941896374
3500,27.0506233558276
3500.25,26.9656525220176
3500.5,26.8806816882077
3500.75,26.7957108543978
3501,26.7107400205879
3501.25,26.6257691867779
3501.5,26.5407983529681
3501.75,26.4558275191581
3502,26.3708566853483
3502.25,26.2858858515383
3502.5,26.2009150177285
3502.75,26.1159441839185
3503,26.1771474322315
3503.25,26.272114834725
3503.5,26.3670822372183
3503.75,26.4620496397119
3504,26.5570170422052
3504.25,26.6519844446987
3504.5,26.746951847192
3504.75,26.8419192496856
3505,26.9368866521789
3505.25,27.0318540546724
3505.5,27.1268214571657
3505.75,27.2217888596591
3506,27.3167562621526
3506.25,27.4117236646459
3506.5,27.5066910671394
3506.75,27.6016584696328
3507,27.6966258721263
3507.25,27.7915932746196
3507.5,27.8865606771131
3507.75,27.9815280796065
3508,28.1489648861947
3508.25,28.3339014068397
3508.5,28.5188379274849
3508.75,28.7037744481298
3509,28.8887109687751
3509.25,29.07364748942
3509.5,29.2585840100653
3509.75,29.4435205307102
3510,29.6284570513555
3510.25,29.8133935720004
3510.5,29.9983300926457
3510.75,30.1832666132906
3511,30.3682031339358
3511.25,30.5531396545808
3511.5,30.738076175226
3511.75,30.9230126958709
3512,31.1079492165162
3512.25,31.2928857371611
3512.5,31.4778222578064
3512.75,31.6627587784513
3513,31.7319341187236
3513.25,31.7719203934576
3513.5,31.8119066681917
3513.75,31.8518929429258
3514,31.8918792176599
3514.25,31.9318654923939
3514.5,31.971851767128
3514.75,32.0118380418621
3515,32.0518243165961
3515.25,32.0918105913302
3515.5,32.1317968660642
3515.75,32.1717831407984
3516,32.2117694155324
3516.25,32.2517556902665
3516.5,32.2917419650005
3516.75,32.3317282397347
3517,32.3717145144687
3517.25,32.4117007892028
3517.5,32.4516870639368
3517.75,32.491673338671
3518,32.37336154638
3518.25,32.2134164474436
3518.5,32.0534713485074
3518.75,31.893526249571
3519,31.7335811506349
3519.25,31.5736360516984
3519.5,31.4136909527623
3519.75,31.2537458538258
3520,31.0938007548897
3520.25,30.9338556559532
3520.5,30.7739105570171
3520.75,30.6139654580806
3521,30.4540203591445
3521.25,30.294075260208
3521.5,30.1341301612719
3521.75,29.9741850623355
3522,29.8142399633993
3522.25,29.6542948644629
3522.5,29.4943497655267
3522.75,29.3344046665903
3523,29.3392313851081
3523.25,29.3892142285257
3523.5,29.4391970719433
3523.75,29.4891799153609
3524,29.5391627587785
3524.25,29.589145602196
3524.5,29.6391284456136
3524.75,29.6891112890312
3525,29.7390941324488
3525.25,29.7890769758664
3525.5,29.839059819284
3525.75,29.8890426627016
3526,29.9390255061192
3526.25,29.9890083495367
3526.5,30.0389911929544
3526.75,30.0889740363719
3527,30.1389568797896
3527.25,30.1889397232071
3527.5,30.2389225666248
3527.75,30.2889054100423
3528,30.3622212055359
3528.25,30.442193755004
3528.5,30.5221663044722
3528.75,30.6021388539403
3529,30.6821114034085
3529.25,30.7620839528766
3529.5,30.8420565023448
3529.75,30.9220290518129
3530,31.0020016012811
3530.25,31.0819741507492
3530.5,31.1619467002174
3530.75,31.2419192496855
3531,31.3218917991537
3531.25,31.4018643486217
3531.5,31.48183689809
3531.75,31.561809447558
3532,31.6417819970263
3532.25,31.7217545464943
3532.5,31.8017270959626
3532.75,31.8816996454306
3533,31.9732357314422
3533.25,32.0682031339357
3533.5,32.1631705364291
3533.75,32.2581379389226
3534,32.3531053414159
3534.25,32.4480727439094
3534.5,32.5430401464028
3534.75,32.6380075488963
3535,32.7329749513896
3535.25,32.8279423538831
3535.5,32.9229097563765
3535.75,33.01787715887
3536,33.1128445613633
3536.25,33.2078119638568
3536.5,33.3027793663502
3536.75,33.3977467688437
3537,33.492714171337
3537.25,33.5876815738305
3537.5,33.6826489763239
3537.75,33.7776163788174
3538,33.7923596019673
3538.25,33.7823630332838
3538.5,33.7723664646003
3538.75,33.7623698959167
3539,33.7523733272332
3539.25,33.7423767585497
3539.5,33.7323801898662
3539.75,33.7223836211827
3540,33.7123870524991
3540.25,33.7023904838156
3540.5,33.6923939151321
3540.75,33.6823973464486
3541,33.6724007777651
3541.25,33.6624042090815
3541.5,33.652407640398
3541.75,33.6424110717145
3542,33.632414503031
3542.25,33.6224179343475
3542.5,33.612421365664
3542.75,33.6024247969805
3543,33.6075717717031
3543.25,33.6175683403866
3543.5,33.6275649090701
3543.75,33.6375614777536
3544,33.6475580464372
3544.25,33.6575546151207
3544.5,33.6675511838042
3544.75,33.6775477524877
3545,33.6875443211712
3545.25,33.6975408898547
3545.5,33.7075374585383
3545.75,33.7175340272218
3546,33.7275305959053
3546.25,33.7375271645888
3546.5,33.7475237332723
3546.75,33.7575203019558
3547,33.7675168706394
3547.25,33.7775134393229
3547.5,33.7875100080064
3547.75,33.7975065766899
3548,33.7962484273133
3548.25,33.7912501429715
3548.5,33.7862518586298
3548.75,33.781253574288
3549,33.7762552899462
3549.25,33.7712570056045
3549.5,33.7662587212627
3549.75,33.761260436921
3550,33.7562621525792
3550.25,33.7512638682374
3550.5,33.7462655838957
3550.75,33.7412672995539
3551,33.7362690152122
3551.25,33.7312707308704
3551.5,33.7262724465287
3551.75,33.7212741621869
3552,33.7162758778451
3552.25,33.7112775935034
3552.5,33.7062793091616
3552.75,33.7012810248199
3553,33.6553928857372
3553.25,33.595413473636
3553.5,33.535434061535
3553.75,33.4754546494338
3554,33.4154752373328
3554.25,33.3554958252316
3554.5,33.2955164131305
3554.75,33.2355370010294
3555,33.1755575889283
3555.25,33.1155781768272
3555.5,33.0555987647261
3555.75,32.9956193526249
3556,32.9356399405239
3556.25,32.8756605284227
3556.5,32.8156811163216
3556.75,32.7557017042205
3557,32.6957222921194
3557.25,32.6357428800183
3557.5,32.5757634679172
3557.75,32.515784055816
3558,32.41160928743
3558.25,32.2916504632276
3558.5,32.1716916390255
3558.75,32.0517328148232
3559,31.9317739906211
3559.25,31.8118151664187
3559.5,31.6918563422166
3559.75,31.5718975180143
3560,31.4519386938122
3560.25,31.3319798696099
3560.5,31.2120210454077
3560.75,31.0920622212056
3561,30.9721033970033
3561.25,30.8521445728012
3561.5,30.7321857485989
3561.75,30.6122269243967
3562,30.4922681001944
3562.25,30.3723092759923
3562.5,30.25235045179
3562.75,30.1323916275879
3563,30.0744595676541
3563.25,30.0394715772618
3563.5,30.0044835868695
3563.75,29.9694955964772
3564,29.9345076060849
3564.25,29.8995196156926
3564.5,29.8645316253002
3564.75,29.8295436349079
3565,29.7945556445156
3565.25,29.7595676541233
3565.5,29.724579663731
3565.75,29.6895916733387
3566,29.6546036829463
3566.25,29.6196156925541
3566.5,29.5846277021617
3566.75,29.5496397117694
3567,29.5146517213771
3567.25,29.4796637309848
3567.5,29.4446757405924
3567.75,29.4096877502002
3568,29.3674711197529
