2608,1036.76930021897
2608.25,1040.09778197464
2608.5,1042.93855221459
2608.75,1043.99278839232
2609,1042.49096943464
2609.25,1039.58397999213
2609.5,1036.85810256135
2609.75,1035.89961963886
2610,1037.96357441385
2610.25,1042.25725721386
2610.5,1047.20630628261
2610.75,1051.23480509317
2611,1052.9182198829
2611.25,1052.32787154393
2611.5,1050.38799783455
2611.75,1048.03276751763
2612,1046.17155802204
2612.25,1045.15573365668
2612.5,1044.78533365226
2612.75,1044.83694357481
2613,1045.08766306628
2613.25,1045.34949452452
2613.5,1045.49101186559
2613.75,1045.3859562504
2614,1044.90822327326
2614.25,1044.01994391998
2614.5,1042.91894387553
2614.75,1041.84198158094
2615,1041.02581547725
2615.25,1040.61242454165
2615.5,1040.3120008369
2615.75,1039.71184305424
2616,1038.39924108843
2616.25,1036.10668774585
2616.5,1033.66530926384
2616.75,1032.40879815641
2617,1033.67344348641
2617.25,1038.63847678075
2617.5,1046.47412743593
2617.75,1054.96183861094
2618,1061.8553641575
2618.25,1064.98564627929
2618.5,1063.95273844578
2618.75,1060.1223562616
2619,1054.93671385642
2619.25,1049.83494047746
2619.5,1045.8627783669
2619.75,1043.29088779922
2620,1042.29931300863
2620.25,1043.06808065567
2620.5,1045.48536378757
2620.75,1048.40615464773
2621,1050.45692791293
2621.25,1050.26415825994
2621.5,1046.82555147541
2621.75,1041.34845977558
2622,1035.85447801531
2622.25,1032.36647911317
2622.5,1032.69789534825
2622.75,1036.24645262157
2623,1040.86035063536
2623.25,1044.36236474539
2623.5,1044.68783046237
2623.75,1041.92457521837
2624,1038.09521890571
2624.25,1035.29124644488
2624.5,1035.57412847152
2624.75,1039.51581090081
2625,1045.54264755684
2625.25,1051.91426115905
2625.5,1056.89442764288
2625.75,1059.43153777788
2626,1059.91491862736
2626.25,1058.9161233347
2626.5,1057.00670504326
2626.75,1054.73215869288
2627,1052.53277783341
2627.25,1050.82231127733
2627.5,1050.01450783638
2627.75,1050.46194165289
2628,1052.01709293436
2628.25,1054.28804488803
2628.5,1056.88122082001
2628.75,1059.40380673139
2629,1061.47593129921
2629.25,1062.72853231083
2629.5,1062.79287918998
2629.75,1061.30846156176
2630,1058.39527309491
2630.25,1054.91087207522
2630.5,1051.77542717859
2630.75,1049.90890476021
2631,1049.86146204839
2631.25,1051.04839683638
2631.5,1052.66804015425
2631.75,1053.91872303209
2632,1054.16199249566
2632.25,1053.67232817035
2632.5,1053.04146107022
2632.75,1052.86143969237
2633,1053.67154340834
2633.25,1055.41159424186
2633.5,1057.64120564904
2633.75,1059.9139416468
2634,1061.79051941478
2634.25,1063.03066801518
2634.5,1063.61441358344
2634.75,1063.5332062394
2635,1062.77906604704
2635.25,1061.44217076397
2635.5,1059.82149431612
2635.75,1058.24274509107
2636,1057.03163147636
2636.25,1056.45890965785
2636.5,1056.55125320359
2636.75,1057.26759106255
2637,1058.56684958702
2637.25,1060.3841278371
2637.5,1062.43798838593
2637.75,1064.33149901949
2638,1065.6666469174
2638.25,1066.06644459573
2638.5,1065.63488360558
2638.75,1064.95549246284
2639,1064.63253660502
2639.25,1065.26790036739
2639.5,1067.13502435009
2639.75,1069.84653059247
2640,1072.93581581732
2640.25,1075.93627674743
2640.5,1078.42162899527
2640.75,1080.13828769377
2641,1080.87889828659
2641.25,1080.43610672996
2641.5,1078.633495909
2641.75,1075.64587555071
2642,1071.87072055738
2642.25,1067.70904416149
2642.5,1063.56296196902
2642.75,1059.89215996616
2643,1057.24095008508
2643.25,1056.16041074714
2643.5,1057.20137362635
2643.75,1060.51814451922
2644,1065.0632996443
2644.25,1069.56262092362
2644.5,1072.74189027919
2644.75,1073.57128805778
2645,1072.49167692634
2645.25,1070.49141076391
2645.5,1068.55976585709
2645.75,1067.63290432357
2646,1067.76171219133
2646.25,1068.26609922694
2646.5,1068.44407625997
2646.75,1067.60162670232
2647,1065.65502323504
2647.25,1063.55133534074
2647.5,1062.33701952604
2647.75,1063.05852132336
2648,1066.28867666518
2648.25,1070.86537928075
2648.5,1075.229355995
2648.75,1077.82133363284
2649,1077.30048460448
2649.25,1074.06313985276
2649.5,1069.33498029068
2649.75,1064.34681827298
2650,1060.305305827
2650.25,1057.75948637581
2650.5,1056.53863207113
2650.75,1056.43539039926
2651,1057.24193964588
2651.25,1058.66995260445
2651.5,1060.26000833939
2651.75,1061.53080185129
2652,1062.00102814074
2652.25,1061.36885160207
2652.5,1060.0734429799
2652.75,1058.74519188053
2653,1058.01448812907
2653.25,1058.42076511063
2653.5,1059.68881118181
2653.75,1061.11401170061
2654,1061.98789539795
2654.25,1061.63649804563
2654.5,1060.14529666167
2654.75,1058.34067090957
2655,1057.07979906367
2655.25,1057.21504110357
2655.5,1059.07707561295
2655.75,1062.01481691832
2656,1065.26864549136
2656.25,1068.07894782559
2656.5,1069.86265872564
2656.75,1070.67543375007
2657,1070.71732443701
2657.25,1070.18838232456
2657.5,1069.27682457754
2657.75,1068.0717364194
2658,1066.61275625702
2658.25,1064.9391591422
2658.5,1063.09280905794
2658.75,1061.18060684846
2659,1059.37769572459
2659.25,1057.86244939469
2659.5,1056.8123527436
2659.75,1056.26590614777
2660,1055.97286354008
2660.25,1055.64701722733
2660.5,1055.00215951632
2660.75,1053.86811549764
2661,1052.54219261956
2661.25,1051.43941276584
2661.5,1050.97479782186
2661.75,1051.50477049709
2662,1052.9201420472
2662.25,1054.88959115304
2662.5,1057.08042607755
2662.75,1059.17123148201
2663,1061.02827525062
2663.25,1062.67265706079
2663.5,1064.13010635225
2663.75,1065.42457716726
2664,1066.47962111731
2664.25,1067.06658738378
2664.5,1066.94412433512
2664.75,1065.87092471383
2665,1063.70853618952
2665.25,1060.64101368823
2665.5,1056.91545575668
2665.75,1052.77896094158
2666,1048.50075796447
2666.25,1044.50464199554
2666.5,1041.28031774549
2666.75,1039.31773510689
2667,1039.06648297986
2667.25,1040.39490243678
2667.5,1042.73520819156
2667.75,1045.50903104736
2668,1048.14321275501
2668.25,1050.21512123135
2668.5,1051.47196525901
2668.75,1051.67004516583
2669,1050.57049707469
2669.25,1048.43751930213
2669.5,1046.47103530448
2669.75,1045.97292968502
2670,1048.24494559478
2670.25,1053.87174127032
2670.5,1061.05326077178
2670.75,1067.49435177047
2671,1070.89986193775
2671.25,1069.47668119076
2671.5,1064.41072459502
2671.75,1057.98248710358
2672,1052.47414693835
2672.25,1050.04263901262
2672.5,1050.86158473714
2672.75,1053.51993912723
2673,1056.56240391822
2673.25,1058.55232209307
2673.5,1058.8618820965
2673.75,1057.96545475578
2674,1056.41648617671
2674.25,1054.76803751899
2674.5,1053.40087333962
2674.75,1052.25266732418
2675,1051.19084598155
2675.25,1050.08283582059
2675.5,1048.84257941722
2675.75,1047.61376909736
2676,1046.61090486903
2676.25,1046.04850666811
2676.5,1046.12251500271
2676.75,1046.85585395045
2677,1048.17733139239
2677.25,1050.01481401291
2677.5,1052.28683000068
2677.75,1054.73722161108
2678,1056.95488628392
2678.25,1058.52334899452
2678.5,1059.03190467237
2678.75,1058.39547272873
2679,1057.02220371086
2679.25,1055.36136193685
2679.5,1053.86211629347
2679.75,1052.86557094825
2680,1052.39729826625
2680.25,1052.42559042995
2680.5,1052.9187396218
2680.75,1053.81081110893
2681,1054.84500040894
2681.25,1055.69836384861
2681.5,1056.04789314395
2681.75,1055.60614489407
2682,1054.48252663748
2682.25,1053.03481482466
2682.5,1051.62459429648
2682.75,1050.61023979903
2683,1050.25754011731
2683.25,1050.72789905042
2683.5,1052.17713984938
2683.75,1054.75853279035
2684,1058.3166494748
2684.25,1062.09663636168
2684.5,1065.27478563966
2684.75,1067.02739984812
2685,1066.81964585044
2685.25,1065.15995884629
2685.5,1062.79221959637
2685.75,1060.46030886137
2686,1058.84839518713
2686.25,1058.14795043912
2686.5,1058.30777506492
2686.75,1059.2749704387
2687,1060.98304735916
2687.25,1063.08819209907
2687.5,1064.98754596237
2687.75,1066.06832091829
2688,1065.72345250268
2688.25,1063.8426722962
2688.5,1061.18994158116
2688.75,1058.6180758539
2689,1056.97988806777
2689.25,1056.87915654638
2689.5,1057.98760017493
2689.75,1059.75892467216
2690,1061.64683575681
2690.25,1063.13641910918
2690.5,1063.94904830898
2690.75,1063.91373651776
2691,1062.86004293275
2691.25,1060.64909359219
2691.5,1057.7317987821
2691.75,1055.08182337853
2692,1053.69093196966
2692.25,1054.54046434175
2692.5,1057.79358500075
2692.75,1062.21999174987
2693,1066.45357109218
2693.25,1069.12842561331
2693.5,1069.36986733088
2693.75,1067.84081841978
2694,1065.50424930802
2694.25,1063.32313042361
2694.5,1062.13392536779
2694.75,1061.85676668401
2695,1062.008264304
2695.25,1062.10327364696
2695.5,1061.67146849251
2695.75,1060.50996014227
2696,1058.64794456059
2696.25,1056.12232091361
2696.5,1052.97293109755
2696.75,1049.45606670721
2697,1046.18871454346
2697.25,1043.8220331855
2697.5,1043.00698353638
2697.75,1044.0478534198
2698,1046.1892661012
2698.25,1048.47408113379
2698.5,1049.94515807079
2698.75,1049.88181510101
2699,1048.77280163934
2699.25,1047.49251993351
2699.5,1046.9155383004
2699.75,1047.82563717213
2700,1050.12720007563
2700.25,1053.2309992117
2700.5,1056.5423379095
2700.75,1059.47816138009
2701,1061.68849504785
2701.25,1063.03866399025
2701.5,1063.40207203373
2701.75,1062.65581385309
2702,1060.96620397779
2702.25,1058.99188428892
2702.5,1057.43944825934
2702.75,1057.01546119075
2703,1058.10454819379
2703.25,1059.97072833565
2703.5,1061.63435477592
2703.75,1062.11578067424
2704,1060.63717013578
2704.25,1057.8267992989
2704.5,1054.91123684232
2704.75,1053.11925308073
2705,1053.60724169287
2705.25,1056.31119037279
2705.5,1060.15195503699
2705.75,1064.0195068022
2706,1066.8178623353
2706.25,1068.15905330681
2706.5,1068.68137442601
2706.75,1069.10357789026
2707,1070.14418639605
2707.25,1072.16647256317
2707.5,1074.46110492606
2707.75,1076.11711391678
2708,1076.22352996741
2708.25,1074.07732260633
2708.5,1070.44239874617
2708.75,1066.71377507489
2709,1064.28892174157
2709.25,1064.5007515598
2709.5,1067.26861195656
2709.75,1071.13677230606
2710,1074.59264395264
2710.25,1076.13078770551
2710.5,1075.07263189582
2710.75,1072.32534880821
2711,1068.97552076102
2711.25,1066.10973007253
2711.5,1064.56525141673
2711.75,1064.02267004608
2712,1063.82735872153
2712.25,1063.32465527059
2712.5,1061.93602272122
2712.75,1059.9066634405
2713,1057.98553065128
2713.25,1056.92881252206
2713.5,1057.47244199998
2713.75,1059.70505773071
2714,1062.94756399603
2714.25,1066.47630175173
2714.5,1069.56868092079
2714.75,1071.71055130488
2715,1072.84419309168
2715.25,1072.97232928553
2715.5,1072.09768289079
2715.75,1070.31858603175
2716,1068.20444139945
2716.25,1066.46948518099
2716.5,1065.82799301481
2716.75,1066.91361184101
2717,1069.33633256323
2717.25,1072.00226612498
2717.5,1073.8036756023
2717.75,1073.65274852467
2718,1071.34309255163
2718.25,1067.87927694238
2718.5,1064.35379529107
2718.75,1061.85897318197
2719,1061.11175278989
2719.25,1061.65580821989
2719.5,1062.80621954869
2719.75,1063.87806685304
2720,1064.27618152817
2720.25,1063.99932359638
2720.5,1063.28753518524
2720.75,1062.38155401934
2721,1061.51790756939
2721.25,1060.8645208965
2721.5,1060.53348705478
2721.75,1060.63527694273
2722,1061.27651455416
2722.25,1062.32880983696
2722.5,1063.29706535903
2722.75,1063.65435257319
2723,1062.87389864604
2723.25,1060.73336427341
2723.5,1057.95054774693
2723.75,1055.42416037645
2724,1054.05291347183
2724.25,1054.53986510224
2724.5,1056.29368792757
2724.75,1058.19734171804
2725,1059.13227270064
2725.25,1058.07070474412
2725.5,1055.24645153879
2725.75,1051.81729861075
2726,1048.96222565114
2726.25,1047.83915362445
2726.5,1048.69829285093
2726.75,1050.55643322424
2727,1052.3422380299
2727.25,1052.98694990302
2727.5,1052.03732412434
2727.75,1050.44877804751
2728,1049.37293558597
2728.25,1049.96142065312
2728.5,1052.9720280473
2728.75,1057.48460453794
2729,1062.13220218637
2729.25,1065.54786914813
2729.5,1066.5758143357
2729.75,1065.73061465672
2730,1064.32072562135
2730.25,1063.65942519169
2730.5,1064.99465939565
2730.75,1068.17257360779
2731,1071.69134329186
2731.25,1073.99458330118
2731.5,1073.53498182715
2731.75,1069.7708220618
2732,1064.06563835429
2732.25,1057.99534429339
2732.5,1053.13585346783
2732.75,1050.72127517706
2733,1050.45810446915
2733.25,1051.62623820377
2733.5,1053.50555393962
2733.75,1055.42884824795
2734,1057.1878627333
2734.25,1058.80995081335
2734.5,1060.32439243423
2734.75,1061.76069015835
2735,1063.15271225829
2735.25,1064.53831064648
2735.5,1065.95548323655
2735.75,1067.44102441604
2736,1068.93155181282
2736.25,1070.18975147024
2736.5,1070.96093222548
2736.75,1070.99040451555
2737,1070.1617994113
2737.25,1068.87494989949
2737.5,1067.65008278739
2737.75,1067.00742488228
2738,1067.40715425916
2738.25,1068.76746237397
2738.5,1070.71905938289
2738.75,1072.89001659491
2739,1074.91030857353
2739.25,1076.46023064018
2739.5,1077.27432880262
2739.75,1077.08983970236
2740,1075.64476653805
2740.25,1072.90539159975
2740.5,1069.38418647061
2740.75,1065.67359956066
2741,1062.36607927995
2741.25,1059.98117971977
2741.5,1058.60779271717
2741.75,1058.17721618396
2742,1058.62051263274
2742.25,1059.84960061809
2742.5,1061.51474883294
2742.75,1063.07678276742
2743,1063.99229900296
2743.25,1063.73338547079
2743.5,1062.42225944038
2743.75,1061.05448671036
2744,1060.68699107982
2744.25,1062.37573116026
2744.5,1066.56300536884
2744.75,1072.0262772621
2745,1077.26339681529
2745.25,1080.77221400364
2745.5,1081.36158458438
2745.75,1079.61069712409
2746,1076.72425905202
2746.25,1073.90769481721
2746.5,1072.30396350411
2746.75,1071.95242222974
2747,1071.9472257777
2747.25,1071.35198207765
2747.5,1069.23700405425
2747.75,1065.36000940951
2748,1060.75182155129
2748.25,1056.58124688823
2748.5,1054.01709182898
2748.75,1053.88442280409
2749,1055.58026534035
2749.25,1058.13085617334
2749.5,1060.56243132001
2749.75,1062.00169274651
2750,1062.39003889999
2750.25,1062.06431204631
2750.5,1061.36396924553
2750.75,1060.62221801516
2751,1060.04546887221
2751.25,1059.72208944536
2751.5,1059.7359514526
2751.75,1060.1701337769
2752,1061.03727775695
2752.25,1062.22515714365
2752.5,1063.60873523537
2752.75,1065.06297944776
2753,1066.51982627806
2753.25,1068.1112867052
2753.5,1070.0132698572
2753.75,1072.40168486206
2754,1075.34934052263
2754.25,1078.12531842312
2754.5,1079.62145548524
2754.75,1078.7274126372
2755,1074.40027182824
2755.25,1067.21146478873
2755.5,1059.38295595193
2755.75,1053.21136847105
2756,1050.98845933352
2756.25,1053.72038066459
2756.5,1059.4088580859
2756.75,1065.62713769146
2757,1069.94846557526
2757.25,1070.58353320108
2757.5,1068.45421245807
2757.75,1065.20304180565
2758,1062.47256550678
2758.25,1061.74514936737
2758.5,1062.84703560514
2758.75,1064.62630231025
2759,1065.91834069761
2759.25,1065.59615690413
2759.5,1063.63158057156
2759.75,1061.24328442014
2760,1059.71730829584
2760.25,1060.33627743203
2760.5,1063.53032848184
2760.75,1067.76018171611
2761,1071.20931336664
2761.25,1072.06119966521
2761.5,1069.01562858958
2761.75,1063.1895719999
2762,1056.40677776494
2762.25,1050.49108088844
2762.5,1047.13248718228
2762.75,1046.42496576943
2763,1047.4133335212
2763.25,1049.12402640353
2763.5,1050.60320317605
2763.75,1051.43851742244
2764,1051.81296193868
2764.25,1051.94005153857
2764.5,1052.03276053984
2764.75,1052.24673984071
2765,1052.63040916329
2765.25,1053.22042153323
2765.5,1054.05342781761
2765.75,1055.15140367608
2766,1056.4866327469
2766.25,1058.02089106647
2766.5,1059.71595467118
2766.75,1061.52492741127
2767,1063.34440816942
2767.25,1065.04836176624
2767.5,1066.51069274053
2767.75,1067.6096559912
2768,1068.28866270698
2768.25,1068.54131325262
2768.5,1068.36250086713
2768.75,1067.74806741713
2769,1066.75141375944
2769.25,1065.51552791982
2769.5,1064.191147841
2769.75,1062.92900394967
2770,1061.83802558162
2770.25,1060.88730611877
2770.5,1060.01673227704
2770.75,1059.16619077234
2771,1058.3026689124
2771.25,1057.58848809671
2771.5,1057.27161657976
2771.75,1057.60038747551
2772,1058.80113011225
2772.25,1060.73121544789
2772.5,1062.94219897591
2772.75,1064.97640062471
2773,1066.37968131788
2773.25,1066.90070030681
2773.5,1066.5970213373
2773.75,1065.55215559149
2774,1063.84964557402
2774.25,1061.66216414765
2774.5,1059.446679627
2774.75,1057.71672013133
2775,1056.9858137799
2775.25,1057.69640575206
2775.5,1059.79792243911
2775.75,1063.03086306074
2776,1067.13497358666
2776.25,1071.82549616557
2776.5,1076.43904501859
2776.75,1080.01451552784
2777,1081.58277480678
2777.25,1080.18749369396
2777.5,1075.74623473261
2777.75,1069.59562131421
2778,1063.20221301062
2778.25,1058.03256939368
2778.5,1055.19786721787
2778.75,1054.35310858507
2779,1054.78038106022
2779.25,1055.76177202006
2779.5,1056.62575812586
2779.75,1057.09138725645
2780,1057.07335376708
2780.25,1056.48781298708
2780.5,1055.26995630578
2780.75,1053.72678107918
2781,1052.50373590137
2781.25,1052.25861600045
2781.5,1053.64227930304
2781.75,1056.81762112577
2782,1061.14678818929
2782.25,1065.91758064261
2782.5,1070.41789553389
2782.75,1074.06400668311
2783,1076.65357583235
2783.25,1078.05476471926
2783.5,1078.13573508154
2783.75,1076.82177229624
2784,1074.43414625814
2784.25,1071.46185246401
2784.5,1068.39448963368
2784.75,1065.7088096065
2785,1063.59703152869
2785.25,1061.97279306075
2785.5,1060.73807539083
2785.75,1059.79486392794
2786,1059.04570861513
2786.25,1058.39428600946
2786.5,1057.74440642624
2786.75,1056.99988018082
2787,1056.1095310334
2787.25,1055.20215798557
2787.5,1054.45153422322
2787.75,1054.03143293225
2788,1054.08074760107
2788.25,1054.45623944925
2788.5,1054.8780181551
2788.75,1055.0652974322
2789,1054.76567081272
2789.25,1054.23484119844
2789.5,1054.16728608376
2789.75,1055.27190219424
2790,1058.24550047521
2790.25,1063.07453646455
2790.5,1068.65283669491
2790.75,1073.78121558606
2791,1077.26093462071
2791.25,1078.37143237222
2791.5,1077.77922568797
2791.75,1076.40091051593
2792,1075.1530828041
2792.25,1074.79296246564
2792.5,1074.90083431244
2792.75,1074.52985020041
2793,1072.73068348889
2793.25,1068.60867739194
2793.5,1062.52496624752
2793.75,1056.09557865353
2794,1050.9910336898
2794.25,1048.87621227632
2794.5,1050.43598306485
2794.75,1054.26598319222
2795,1058.69365374975
2795.25,1062.04643944157
2795.5,1063.10937946353
2795.75,1062.38971236363
2796,1060.79976242175
2796.25,1059.25185391777
2796.5,1058.57452061632
2796.75,1058.91891803368
2797,1060.10826731297
2797.25,1061.9636435244
2797.5,1064.29951636689
2797.75,1066.80153541004
2798,1069.03819139832
2798.25,1070.57370855031
2798.5,1070.97597167113
2798.75,1070.13545735621
2799,1068.51305499606
2799.25,1066.62798455792
2799.5,1064.99946600908
2799.75,1064.05512844019
2800,1063.85667933946
2800.25,1064.37445613722
2800.5,1065.57879626381
2800.75,1067.38349855267
2801,1069.19422389062
2801.25,1070.14803653483
2801.5,1069.37956462188
2801.75,1066.07404144611
2802,1060.72022025868
2802.25,1055.19299764651
2802.5,1051.43441959779
2802.75,1051.38042030063
2803,1055.74202726237
2803.25,1062.5313141579
2803.5,1069.40037661762
2803.75,1074.00131027204
2804,1074.66917496878
2804.25,1072.46689147347
2804.5,1069.13834825448
2804.75,1066.42743378013
2805,1065.92368447057
2805.25,1067.64804553887
2805.5,1070.70727618463
2805.75,1074.19674670249
2806,1077.22170036945
2806.25,1079.19310115546
2806.5,1079.87899548271
2806.75,1079.0676528289
2807,1076.54795087223
2807.25,1072.45701727914
2807.5,1067.86252552907
2807.75,1063.98591256787
2808,1062.0486153414
2808.25,1063.00485197506
2808.5,1066.00554419676
2808.75,1069.45595852415
2809,1071.75899501401
2809.25,1071.42126852027
2809.5,1068.62711194012
2809.75,1064.91991436515
2810,1061.8821595319
2810.25,1061.08330852746
2810.5,1063.02235490125
2810.75,1066.34722759156
2811,1069.5218792208
2811.25,1071.01032062614
2811.5,1069.85972446232
2811.75,1067.13395005012
2812,1064.33248995671
2812.25,1062.95483674926
2812.5,1064.27235386924
2812.75,1067.66504796241
2813,1071.57761877237
2813.25,1074.44811545264
2813.5,1074.77932995578
2813.75,1072.4780764773
2814,1068.80950014031
2814.25,1065.09434746818
2814.5,1062.64988219749
2814.75,1062.16184246496
2815,1062.95611240952
2815.25,1064.18196492113
2815.5,1064.9886728897
2815.75,1064.72814814554
2816,1063.66431241179
2816.25,1062.31754978817
2816.5,1061.20825821896
2816.75,1060.80528770836
2817,1061.04671400994
2817.25,1061.55811447749
2817.5,1061.96105181799
2817.75,1061.88765377583
2818,1061.2705208513
2818.25,1060.37861888206
2818.5,1059.49868592502
2818.75,1058.91692933004
2819,1058.81869212831
2819.25,1059.16974246466
2819.5,1059.90696774977
2819.75,1060.9672553943
2820,1062.24356283249
2820.25,1063.438186877
2820.5,1064.20171179619
2820.75,1064.18472089927
2821,1063.09890940568
2821.25,1061.2271717051
2821.5,1059.16404217889
2821.75,1057.5072026681
2822,1056.83110947306
2822.25,1057.10123737045
2822.5,1057.62937937139
2822.75,1057.69514883454
2823,1056.58221317951
2823.25,1054.09066648677
2823.5,1051.03781319784
2823.75,1048.35983992957
2824,1046.99293184114
2824.25,1047.55548243989
2824.5,1049.4575244879
2824.75,1051.82193357714
2825,1053.77158529961
2825.25,1054.56344874769
2825.5,1054.35843122298
2825.75,1053.69085133472
2826,1053.09620664338
2826.25,1053.08082218346
2826.5,1053.7361226021
2826.75,1054.84484370016
2827,1056.18237503833
2827.25,1057.52438925621
2827.5,1058.65750156242
2827.75,1059.38250611486
2828,1059.50114107839
2828.25,1058.81585074382
2828.5,1057.34642685874
2828.75,1055.63598121567
2829,1054.30479346108
2829.25,1053.97314324147
2829.5,1055.08010784847
2829.75,1057.1887909098
2830,1059.59794693962
2830.25,1061.6062753812
2830.5,1062.55846192779
2830.75,1062.2406221193
2831,1060.68488261355
2831.25,1057.92603376198
2831.5,1054.01368042856
2831.75,1049.38550013775
2832,1044.89552017674
2832.25,1041.41824653703
2832.5,1039.82383290538
2832.75,1040.45089257784
2833,1042.60305607399
2833.25,1045.46467000392
2833.5,1048.22019573602
2833.75,1050.26330291727
2834,1051.62951333732
2834.25,1052.47702886719
2834.5,1052.96405137787
2834.75,1053.24153285689
2835,1053.42086447696
2835.25,1053.60001028693
2835.5,1053.87692339756
2835.75,1054.34085178694
2836,1054.98633777733
2836.25,1055.74977080252
2836.5,1056.5666952993
2836.75,1057.37511848459
2837,1058.17882540606
2837.25,1059.05289296877
2837.5,1060.07596590392
2837.75,1061.32481932724
2838,1062.62886614499
2838.25,1063.32529373157
2838.5,1062.69305183973
2838.75,1060.01109022224
2839,1054.98574557046
2839.25,1049.04735875186
2839.5,1044.06091629273
2839.75,1041.89140472887
2840,1044.10104619201
2840.25,1049.67937051806
2840.5,1056.31726979631
2840.75,1061.69565643695
2841,1063.63609497387
2841.25,1062.1571305472
2841.5,1059.01709238764
2841.75,1056.02195924781
2842,1054.9572997042
2842.25,1056.41796641849
2842.5,1059.17243239259
2842.75,1061.83428894951
2843,1063.01783848355
2843.25,1061.94935633184
2843.5,1059.58415578481
2843.75,1057.18075335424
2844,1055.99766555194
2844.25,1057.02480897129
2844.5,1059.63588086542
2844.75,1062.60294181428
2845,1064.69703915464
2845.25,1064.77157994635
2845.5,1062.73113690814
2845.75,1059.20579067877
2846,1054.84003001935
2846.25,1050.27791745141
2846.5,1046.14496169562
2846.75,1043.04135455798
2847,1041.56546789113
2847.25,1042.31398626642
2847.5,1045.36721000544
2847.75,1049.56346030071
2848,1053.5581394683
2848.25,1056.00664989132
2848.5,1056.00079687604
2848.75,1054.35002739773
2849,1052.28631802596
2849.25,1051.04164533029
2849.5,1051.68754880975
2849.75,1054.03639783074
2850,1057.30612251425
2850.25,1060.71114068433
2850.5,1063.50034140237
2850.75,1065.48749932208
2851,1066.94780071133
2851.25,1068.16994233485
2851.5,1069.43779850539
2851.75,1070.73763465754
2852,1071.58960817911
2852.25,1071.4732131353
2852.5,1069.86797731059
2852.75,1066.51117396738
2853,1062.01868494342
2853.25,1057.19344103669
2853.5,1052.83837304515
2853.75,1049.67602890072
2854,1047.78157612739
2854.25,1046.91777085347
2854.5,1046.84535060347
2854.75,1047.32276055966
2855,1048.06898325418
2855.25,1048.76974504318
2855.5,1049.10973263999
2855.75,1048.78190390401
2856,1047.84792776818
2856.25,1046.87767135417
2856.5,1046.47807379096
2856.75,1047.25490344636
2857,1049.49590608659
2857.25,1052.74146928393
2857.5,1056.42472655888
2857.75,1059.97881143192
2858,1062.95930267496
2858.25,1065.42109101899
2858.5,1067.54632410751
2858.75,1069.51714961713
2859,1071.45314318297
2859.25,1072.93575891879
2859.5,1073.27210146932
2859.75,1071.76708822702
2860,1067.76922281075
2860.25,1061.76552228322
2860.5,1055.46264608676
2860.75,1050.62708978157
2861,1049.02167623568
2861.25,1051.56368390611
2861.5,1057.2498893498
2861.75,1064.81186334732
2862,1072.98117667924
2862.25,1080.58091053177
2862.5,1086.80276468838
2862.75,1090.93124235458
2863,1092.25084673708
2863.25,1090.17952939683
2863.5,1085.48587437829
2863.75,1079.72313133745
2864,1074.45423113508
2864.25,1071.22599763291
2864.5,1070.64857038826
2864.75,1071.89707295674
2865,1074.02513463571
2865.25,1076.08640776683
2865.5,1077.35123371717
2865.75,1077.83688261387
2866,1077.72144395661
2866.25,1077.18300724509
2866.5,1076.37734438024
2866.75,1075.26320157067
2867,1073.69668720486
2867.25,1071.53302524542
2867.5,1068.63927549711
2867.75,1065.25445856755
2868,1062.05519661368
2868.25,1059.74318457853
2868.5,1059.01891586228
2868.75,1060.11303479421
2869,1062.07493000836
2869.25,1063.77128717055
2869.5,1064.06879194659
2869.75,1062.13359524742
2870,1058.64762126249
2870.25,1054.77124489881
2870.5,1051.66502379824
2870.75,1050.39404091793
2871,1050.91012725582
2871.25,1052.44528865154
2871.5,1054.21946185584
2871.75,1055.47111673081
2872,1055.95227362415
2872.25,1055.98225796639
2872.5,1055.90971262844
2872.75,1056.08156955939
2873,1056.62003416409
2873.25,1057.20099705616
2873.5,1057.44766635434
2873.75,1056.98325080892
2874,1055.54712818695
2874.25,1053.3190687436
2874.5,1050.58318406234
2874.75,1047.62358572668
2875,1044.71670828839
2875.25,1042.08037511305
2875.5,1039.9053885684
2875.75,1038.38240661047
2876,1037.69312452381
2876.25,1037.88615474395
2876.5,1038.90818412024
2876.75,1040.7033075884
2877,1043.20692314818
2877.25,1046.09820534209
2877.5,1048.7643503642
2877.75,1050.57666822028
2878,1050.91132383797
2878.25,1049.58126977344
2878.5,1047.17683658353
2878.75,1044.36850808439
2879,1041.82672631513
2879.25,1040.11183133577
2879.5,1039.43516181461
2879.75,1039.93906727547
2880,1041.76589724216
2880.25,1044.92605103824
2880.5,1048.73770717149
2880.75,1052.29282860741
2881,1054.68325077879
2881.25,1055.12014703196
2881.5,1053.88140272733
2881.75,1051.80625883743
2882,1049.73896953912
2882.25,1048.49280850717
2882.5,1048.23723657324
2882.75,1048.53392164745
2883,1048.92076260865
2883.25,1048.93801987107
2883.5,1048.27532838348
2883.75,1046.85838249365
2884,1044.63372143776
2884.25,1041.54821193926
2884.5,1037.76201203731
2884.75,1034.01590554094
2885,1031.14854982991
2885.25,1029.99860228396
2885.5,1031.12337600038
2885.75,1033.8192885225
2886,1037.02967101229
2886.25,1039.69783747566
2886.5,1040.93763556784
2886.75,1040.96568685417
2887,1040.43731748679
2887.25,1040.00897658453
2887.5,1040.26787349873
2887.75,1041.03996637928
2888,1041.68005081398
2888.25,1041.53591991827
2888.5,1039.99739303749
2888.75,1037.32715122603
2889,1034.61163179013
2889.25,1032.96946685132
2889.5,1033.50122022661
2889.75,1036.39482248363
2890,1040.5142843268
2890.25,1044.61970539
2890.5,1047.47461773148
2890.75,1048.37539238737
2891,1047.72339107166
2891.25,1046.05730126636
2891.5,1043.91580913397
2891.75,1041.8112287716
2892,1040.16180626528
2892.25,1039.3648225964
2892.5,1039.81755874632
2892.75,1041.76158779412
2893,1044.49274650032
2893.25,1046.95174092588
2893.5,1048.07864268822
2893.75,1046.9382928922
2894,1043.87330663929
2894.25,1039.97545701725
2894.5,1036.34602078766
2894.75,1034.05489113175
2895,1033.48394653033
2895.25,1034.34532460734
2895.5,1036.32343500532
2895.75,1039.09959537425
2896,1042.210844163
2896.25,1044.99153887528
2896.5,1046.7608400443
2896.75,1046.84087226347
2897,1045.05676732829
2897.25,1042.2998442897
2897.5,1039.5973737084
2897.75,1037.97661641348
2898,1038.08525558905
2898.25,1039.18479878947
2898.5,1040.22041411734
2898.75,1040.13726967524
2899,1038.14264950608
2899.25,1034.95855141586
2899.5,1031.84985395925
2899.75,1030.0821310133
2900,1030.74945403302
2900.25,1033.28487066908
2900.5,1036.18917217169
2900.75,1037.95282412811
2901,1037.17449063999
2901.25,1034.08182351214
2901.5,1030.16161568578
2901.75,1026.93334805998
2902,1025.87602278005
2902.25,1027.25401853766
2902.5,1029.93488344918
2902.75,1032.70902213467
2903,1034.38201768858
2903.25,1034.61291451726
2903.5,1034.35171464635
2903.75,1034.65582291779
2904,1036.57840122549
2904.25,1040.34341894427
2904.5,1044.35820000779
2904.75,1046.78935765005
2905,1045.80368468776
2905.25,1040.44844902423
2905.5,1032.69262323537
2905.75,1025.11041796527
2906,1020.27604385806
2906.25,1020.22321882305
2906.5,1023.86366844928
2906.75,1028.99065515225
2907,1033.39601344022
2907.25,1035.17276552845
2907.5,1034.65015426904
2907.75,1033.16373024236
2908,1032.05387770518
2908.25,1032.54542586478
2908.5,1034.49980656938
2908.75,1036.88921575096
2909,1038.67059026608
2909.25,1038.85812245912
2909.5,1037.59123233386
2909.75,1036.03739128213
2910,1035.40184121424
2910.25,1036.86364229385
2910.5,1040.44274063403
2910.75,1044.56609198642
2911,1047.54493570239
2911.25,1047.69777578427
2911.5,1044.3722704906
2911.75,1039.00116492995
2912,1033.26927039401
2912.25,1028.86136493087
2912.5,1026.97743709272
2912.75,1027.11090389832
2913,1028.37985777118
2913.25,1029.90239113483
2913.5,1030.95336108055
2913.75,1031.58945592201
2914,1032.11061510256
2914.25,1032.8168556633
2914.5,1033.99860944606
2914.75,1035.87697541392
2915,1038.64255765854
2915.25,1042.48582843568
2915.5,1047.51610614325
2915.75,1052.9263965697
2916,1057.33115531652
2916.25,1059.33574690362
2916.5,1057.6162902959
2916.75,1052.48579434244
2917,1045.89947406914
2917.25,1039.884362209
2917.5,1036.45666392516
2917.75,1036.47433987109
2918,1038.62325936471
2918.25,1041.3502044826
2918.5,1043.10254000623
2918.75,1042.85890683714
2919,1041.10984435423
2919.25,1038.61304291489
2919.5,1036.12619287654
2919.75,1034.25507861484
2920,1032.88392162838
2920.25,1031.68292079798
2920.5,1030.32224111894
2920.75,1028.51857746548
2921,1026.33379207085
2921.25,1023.98495546464
2921.5,1021.68988114106
2921.75,1019.66750235849
2922,1018.14920995597
2922.25,1017.374173907
2922.5,1017.58168272313
2922.75,1018.96147438396
2923,1020.94662642744
2923.25,1022.37984469946
2923.5,1022.08818563662
2923.75,1018.97353642344
2924,1013.4870208431
2924.25,1007.53913489299
2924.5,1003.09721232081
2924.75,1002.07898196814
2925,1004.85287511441
2925.25,1009.97011166402
2925.5,1015.87829616218
2925.75,1021.0467677842
2926,1024.65364341897
2926.25,1026.72593598587
2926.5,1027.34070288471
2926.75,1026.57841648993
2927,1024.6958295776
2927.25,1022.20763342452
2927.5,1019.64901133508
2927.75,1017.55326684446
2928,1016.21929982812
2928.25,1015.48697572762
2928.5,1015.14288736991
2928.75,1014.9738676458
2929,1014.83844856115
2929.25,1014.76680806018
2929.5,1014.81427334611
2929.75,1015.03617884626
2930,1015.49441049002
2930.25,1016.26948609572
2930.5,1017.44521342927
2930.75,1019.10538949482
2931,1021.2580816398
2931.25,1023.65441569506
2931.5,1025.99107604467
2931.75,1027.96474707271
2932,1029.34372908143
2932.25,1030.20135753204
2932.5,1030.69216663899
2932.75,1030.97069131672
2933,1031.16927669105
2933.25,1031.28748389545
2933.5,1031.27569967103
2933.75,1031.08423083797
2934,1030.66992636932
2934.25,1030.04790452027
2934.5,1029.26385854841
2934.75,1028.36375199139
2935,1027.39656895661
2935.25,1026.4532356273
2935.5,1025.65537769552
2935.75,1025.12532405249
2936,1024.97294420798
2936.25,1025.03093833267
2936.5,1024.85995912672
2936.75,1024.00922439428
2937,1022.04214248542
2937.25,1019.05110692105
2937.5,1015.80284573486
2937.75,1013.10788549359
2938,1011.7694184848
2938.25,1012.08712760411
2938.5,1013.54140384987
2938.75,1015.53741642858
2939,1017.48235042932
2939.25,1018.99033168115
2939.5,1020.05889823203
2939.75,1020.72716345786
2940,1021.03464380949
2940.25,1021.10714936857
2940.5,1021.26343772499
2940.75,1021.84843797303
2941,1023.20680961761
2941.25,1025.44002029408
2941.5,1027.95837738695
2941.75,1030.05023070763
2942,1031.00393314508
2942.25,1030.36941169263
2942.5,1028.67237246943
2942.75,1026.66601025626
2943,1025.10351983395
2943.25,1024.58620702012
2943.5,1024.89207146207
2943.75,1025.52145954737
2944,1025.97450436504
2944.25,1025.81844312467
2944.5,1025.11754732151
2944.75,1024.15928906173
2945,1023.23220249741
2945.25,1022.61586914997
2945.5,1022.49592290274
2945.75,1023.00187218235
2946,1024.26247234707
2946.25,1026.37874353547
2946.5,1029.04217072089
2946.75,1031.63175024098
2947,1033.51859865487
2947.25,1034.10456778086
2947.5,1033.48733719894
2947.75,1032.45431205278
2948,1031.82241227593
2948.25,1032.3933597168
2948.5,1034.2461216999
2948.75,1036.43641295854
2949,1037.94236394319
2949.25,1037.74724240744
2949.5,1035.52648452246
2949.75,1032.33954575086
2950,1029.41058466516
2950.25,1027.96349078229
2950.5,1028.70569426367
2950.75,1030.75243051283
2951,1032.91308314317
2951.25,1033.99703576807
2951.5,1033.1455601037
2951.75,1030.92893994653
2952,1028.30198600694
2952.25,1026.21951427976
2952.5,1025.48372096346
2952.75,1025.90158109445
2953,1026.88112325857
2953.25,1027.82930904926
2953.5,1028.22302905346
2953.75,1028.17817496138
2954,1028.15298441971
2954.25,1028.60894727834
2954.5,1029.96265442095
2954.75,1032.01768991563
2955,1034.13412445275
2955.25,1035.66214547158
2955.5,1035.98083022121
2955.75,1035.11076620376
2956,1033.70155155611
2956.25,1032.42917399785
2956.5,1031.96130246537
2956.75,1032.56000200811
2957,1033.90723435442
2957.25,1035.64033567512
2957.5,1037.39707767591
2957.75,1038.87632478442
2958,1039.90039827385
2958.25,1040.30649835974
2958.5,1039.93186318947
2958.75,1038.68616082745
2959,1036.70224472024
2959.25,1034.15581933407
2959.5,1031.22258913514
2959.75,1028.11634772936
2960,1025.2403152594
2960.25,1023.05648600926
2960.5,1022.02687235241
2960.75,1022.52507580869
2961,1024.27888406031
2961.25,1026.72957559059
2961.5,1029.31713938044
2961.75,1031.53337709339
2962,1033.37668061627
2962.25,1035.13190180008
2962.5,1037.0871417304
2962.75,1039.50245370883
2963,1042.21096215748
2963.25,1044.71339239887
2963.5,1046.50169994934
2963.75,1047.0812883051
2964,1046.36700343176
2964.25,1044.7479609931
2964.5,1042.63977794487
2964.75,1040.45712684135
2965,1038.50664312683
2965.25,1036.88841095179
2965.5,1035.67923351665
2965.75,1034.95586422644
2966,1034.71136306041
2966.25,1034.6840200104
2966.5,1034.56382287922
2966.75,1034.0407594697
2967,1032.9930738669
2967.25,1032.16943094909
2967.5,1032.56988575428
2967.75,1035.19451781359
2968,1040.7647415162
2968.25,1048.04377926457
2968.5,1054.95532135663
2968.75,1059.41984989369
2969,1059.59736154116
2969.25,1056.38083494913
2969.5,1052.40237084145
2969.75,1050.32199188205
2970,1052.73118076257
2970.25,1059.99714068356
2970.5,1069.82929098893
2970.75,1079.78094755765
2971,1087.41282050703
2971.25,1091.41309373324
2971.5,1092.79759657835
2971.75,1092.86990077254
2972,1092.93357804598
2972.25,1094.07873426403
2972.5,1096.18248592082
2972.75,1098.69406664342
2973,1101.06222600781
2973.25,1102.75717492855
2973.5,1103.71620887296
2973.75,1104.32942973283
2974,1105.00554425001
2974.25,1106.15309810453
2974.5,1107.98822696735
2974.75,1110.16186681726
2975,1112.22170120187
2975.25,1113.71541366876
2975.5,1114.22639849094
2975.75,1113.73380255487
2976,1112.46318404181
2976.25,1110.6438254989
2976.5,1108.50549840352
2976.75,1106.35581848509
2977,1104.66485179349
2977.25,1103.92300356173
2977.5,1104.62067902276
2977.75,1107.11359586536
2978,1110.72274295779
2978.25,1114.28950173594
2978.5,1116.65263039861
2978.75,1116.66863803196
2979,1114.03483990966
2979.25,1109.63700220794
2979.5,1104.45079146503
2979.75,1099.45187421916
2980,1095.44090487204
2980.25,1092.27203508189
2980.5,1089.4809070343
2980.75,1086.60292311818
2981,1083.19146952214
2981.25,1079.20578634979
2981.5,1075.00669542677
2981.75,1070.97214790983
2982,1067.47970402924
2982.25,1064.7688869431
2982.5,1062.73834408342
2982.75,1061.23502914911
2983,1060.10589583909
2983.25,1059.2465013322
2983.5,1058.82171238112
2983.75,1059.08914725785
2984,1060.30651023327
2984.25,1062.69391266108
2984.5,1066.01054833536
2984.75,1069.7064882548
2985,1073.22609645885
2985.25,1076.0184338634
2985.5,1077.7066654479
2985.75,1078.13533260281
2986,1077.16329940727
2986.25,1074.64963424028
2986.5,1070.67228779723
2986.75,1065.94425913053
2987,1061.29306463994
2987.25,1057.5462207252
2987.5,1055.40533386002
2987.75,1054.66553249256
2988,1054.72489200008
2988.25,1054.97980443653
2988.5,1054.84942416056
2988.75,1054.12169866535
2989,1052.88362556914
2989.25,1051.23082376983
2989.5,1049.25799624827
2989.75,1047.0141970867
2990,1044.48261241374
2990.25,1041.64129742038
2990.5,1038.46847688834
2990.75,1035.00606454935
2991,1031.4549763676
2991.25,1028.04053234414
2991.5,1024.98805247887
2991.75,1022.50756177848
2992,1020.74868407874
2992.25,1019.84613515103
2992.5,1019.93463076674
2992.75,1021.05078346607
2993,1022.70748583848
2993.25,1024.2435762712
2993.5,1024.99777684234
2993.75,1024.41606823754
2994,1022.678062347
2994.25,1020.27041338165
2994.5,1017.68081400269
2994.75,1015.36145424659
2995,1013.42756314609
2995.25,1011.8082616004
2995.5,1010.4307134503
2995.75,1009.2117226811
2996,1007.94303812754
2996.25,1006.33347761258
2996.5,1004.09037206694
2996.75,1000.94890623
2997,997.035166978763
2997.25,992.763451290162
2997.5,988.554771664498
2997.75,984.807404498767
2998,981.585276450754
2998.25,978.697890492813
2998.5,975.948373614417
2998.75,973.162472801671
2999,970.438923312869
2999.25,968.057464939835
2999.5,966.301081387262
2999.75,965.41759359485
3000,965.355256987466
3000.25,965.91078723015
3000.5,966.879726098964
3000.75,968.060161706011
3001,969.264276075824
3001.25,970.309100254125
3001.5,971.011670202428
3001.75,971.222740924227
3002,970.918402655296
3002.25,970.103860713112
3002.5,968.784440580978
3002.75,967.029271687931
3003,965.07604884005
3003.25,963.189982595094
3003.5,961.636656467661
3003.75,960.720909096056
3004,960.820847763375
3004.25,962.322597562897
3004.5,965.589692954551
3004.75,970.18751342412
3005,974.688680067715
3005.25,977.603720932626
3005.5,977.531117702412
3005.75,974.615309601891
3006,970.320588682367
3006.25,966.153624956934
3006.5,963.520335708021
3006.75,962.574988222847
3007,962.624441186227
3007.25,962.959524319034
3007.5,962.900974287844
3007.75,961.998840663426
3008,959.909284348324
3008.25,956.289042484404
3008.5,951.084670986028
3008.75,945.645442984972
3009,941.744434538814
3009.25,941.153646496615
3009.5,944.526520246626
3009.75,949.313134230277
3010,952.393753175474
3010.25,950.694997594783
3010.5,943.641197512747
3010.75,934.373293094696
3011,926.334496380027
3011.25,922.821625767648
3011.5,924.329717879713
3011.75,928.834158635979
3012,934.220565860549
3012.25,938.605011269623
3012.5,941.582058403457
3012.75,943.330201354322
3013,944.029398479171
3013.25,943.896590701189
3013.5,943.257106829609
3013.75,942.456029117851
3014,941.835855996224
3014.25,941.578782258136
3014.5,941.615450960456
3014.75,941.85450214121
3015,942.211146023393
3015.25,942.715983706132
3015.5,943.498081287819
3015.75,944.689663153102
3016,946.403251436043
3016.25,948.602323130813
3016.5,951.182185283148
3016.75,954.037792681441
3017,956.922750697936
3017.25,959.046528768366
3017.5,959.487679349378
3017.75,957.32842017022
3018,952.460643850334
3018.25,946.599031660697
3018.5,941.707445793759
3018.75,939.721117809293
3019,941.19071417059
3019.25,944.693237723966
3019.5,948.654579626927
3019.75,951.585916404441
3020,953.250418416015
3020.25,954.362850314017
3020.5,955.661761026551
3020.75,957.776523751249
3021,960.542097503733
3021.25,963.442201401955
3021.5,965.958998460338
3021.75,967.730542322404
3022,969.055280166199
3022.25,970.406502728195
3022.5,972.257259354789
3022.75,974.870003036133
3023,977.911514657459
3023.25,980.943995226814
3023.5,983.531231015249
3023.75,985.475939289585
3024,987.072662043921
3024.25,988.676529972507
3024.5,990.639442598083
3024.75,993.05698757736
3025,995.586675560865
3025.25,997.843125937235
3025.5,999.442470725936
3025.75,1000.08927814773
3026,999.623873996038
3026.25,997.898109376097
3026.5,994.772564148196
3026.75,990.603848134348
3027,986.501902000169
3027.25,983.639688969316
3027.5,983.165370108825
3027.75,984.964117118936
3028,987.082993544404
3028.25,987.424135275782
3028.5,983.942299244543
3028.75,976.36514469458
3029,966.576970562472
3029.25,956.592369090287
3029.5,948.365275290202
3029.75,942.321937162659
3030,937.283420742023
3030.25,931.99462394455
3030.5,925.305870690876
3030.75,917.265087615021
3031,908.679768991438
3031.25,900.369493697441
3031.5,892.996764260564
3031.75,886.500662642106
3032,880.612143780314
3032.25,875.0613882378
3032.5,869.539075469365
3032.75,863.677797248813
3033,857.105498248293
3033.25,849.599144839732
3033.5,841.890498348081
3033.75,835.087960669332
3034,830.276267721533
3034.25,827.693759441201
3034.5,826.538627725696
3034.75,825.945265855472
3035,825.132152708127
3035.25,823.572688630132
3035.5,820.788400770901
3035.75,816.431679964437
3036,811.156474160997
3036.25,806.079452453049
3036.5,802.273896539658
3036.75,799.801886780809
3037,797.738217402691
3037.25,795.128653859368
3037.5,792.006442234549
3037.75,790.109745475163
3038,791.344671341506
3038.25,796.397220390525
3038.5,802.424214904891
3038.75,805.948093570308
3039,804.44840339194
3039.25,799.918188538102
3039.5,795.679714480485
3039.75,794.695093532608
3040,796.470033983099
3040.25,798.585101740652
3040.5,798.706508292458
3040.75,796.532572841683
3041,793.58628378144
3041.25,791.445587897668
3041.5,791.145006575423
3041.75,792.903143673983
3042,796.869921967641
3042.25,802.764587630906
3042.5,809.281999252046
3042.75,814.968003082044
3043,818.652521723494
3043.25,820.324843601089
3043.5,820.269980216154
3043.75,818.835545277372
3044,816.945438650646
3044.25,815.834151146779
3044.5,816.702458191467
3044.75,819.687962633551
3045,823.727373814099
3045.25,827.694459881243
3045.5,830.818307305998
3045.75,833.144839318759
3046,834.834332572657
3046.25,836.0835498092
3046.5,837.298184721115
3046.75,838.958170852765
3047,841.501866807107
3047.25,844.572733982313
3047.5,847.100724213731
3047.75,847.992922949587
3048,846.826205115581
3048.25,844.752137252789
3048.5,843.148380236735
3048.75,843.196182446155
3049,844.574834469536
3049.25,846.270226740718
3049.5,847.281097184664
3049.75,847.188828176721
3050,846.297782753099
3050.25,844.957375441963
3050.5,843.439804250345
3050.75,841.734497548709
3051,839.766172691013
3051.25,837.503561707519
3051.5,835.460365931479
3051.75,834.518365686771
3052,835.557278915777
3052.25,838.723807936439
3052.5,842.900096651503
3052.75,846.842984619569
3053,849.566593143948
3053.25,851.26841889994
3053.5,852.485974720797
3053.75,853.741232135798
3054,855.288116152284
3054.25,857.154667682114
3054.5,859.361486305097
3054.75,861.769468855784
3055,863.83309092527
3055.25,864.943126259547
3055.5,864.576987947088
3055.75,863.053705706336
3056,861.165783071072
3056.25,859.705912853497
3056.5,858.894248039726
3056.75,857.861842502119
3057,855.61775181222
3057.25,851.483247771671
3057.5,846.961064306366
3057.75,844.484453232057
3058,846.42481965199
3058.25,852.578238778165
3058.5,859.374217766953
3058.75,863.015140059471
3059,861.083891414795
3059.25,856.401070671122
3059.5,853.029254149875
3059.75,854.793780274383
3060,861.438158780613
3060.25,869.267211293498
3060.5,874.482177743137
3060.75,874.894711848248
3061,872.413329162633
3061.25,869.588438741287
3061.5,868.800145120936
3061.75,870.382757669813
3062,873.3186846791
3062.25,876.567528235901
3062.5,879.416749199612
3062.75,881.923976472618
3063,884.257317290951
3063.25,886.53070249021
3063.5,888.252855213676
3063.75,888.553411122913
3064,886.557373818418
3064.25,882.058203592438
3064.5,876.629467429455
3064.75,872.137806008045
3065,870.335751156679
3065.25,871.197133098955
3065.5,873.289128925692
3065.75,875.141058098698
3066,875.913805423856
3066.25,876.613500824397
3066.5,878.581474986762
3066.75,883.01677540992
3067,889.037483442183
3067.25,894.183954472505
3067.5,895.957928773355
3067.75,893.065853511088
3068,887.946108339564
3068.25,883.757533177232
3068.5,883.545179414631
3068.75,887.759186313868
3069,894.26706795874
3069.25,900.825007312519
3069.5,905.62580231873
3069.75,908.774207351187
3070,910.898186895655
3070.25,912.619384139075
3070.5,914.255175075665
3070.75,915.690400968895
3071,916.77691594742
3071.25,917.353178977822
3071.5,917.127669898337
3071.75,915.735808280119
3072,912.812239039008
3072.25,908.349526590822
3072.5,903.573379029455
3072.75,899.974877229295
3073,899.008073393608
3073.25,900.669599212546
3073.5,903.0524064492
3073.75,904.121165189774
3074,902.201355615627
3074.25,898.268617861868
3074.5,894.479994222759
3074.75,892.994163670533
3075,894.999143604071
3075.25,899.429989594445
3075.5,904.90291307413
3075.75,910.085294432945
3076,914.369357061033
3076.25,917.685154168169
3076.5,919.97545806209
3076.75,921.229139276909
3077,921.627381320772
3077.25,921.401510272905
3077.5,920.781789276179
3077.75,919.920087899169
3078,918.83752544019
3078.25,917.542819960441
3078.5,916.033383658109
3078.75,914.151377773616
3079,911.626192084274
3079.25,908.1846795123
3079.5,903.785743369432
3079.75,899.453895453669
3080,896.519339265691
3080.25,896.296475757268
3080.5,899.068076107167
3080.75,903.468913138484
3081,907.986114005557
3081.25,911.229655546154
3081.5,912.922387876226
3081.75,913.379206039697
3082,912.920567890542
3082.25,911.957747919313
3082.5,911.170222409549
3082.75,911.286738132749
3083,913.011500507482
3083.25,916.326260970398
3083.5,920.389825113557
3083.75,924.316251878136
3084,927.345066848841
3084.25,929.636756366725
3084.5,931.762125467068
3084.75,934.293617875003
3085,937.497332911793
3085.25,940.734813073227
3085.5,943.201455748317
3085.75,944.100520445338
3086,943.012148650809
3086.25,940.051799984633
3086.5,935.375711798788
3086.75,929.187009106027
3087,922.418404392476
3087.25,916.578927048157
3087.5,913.193304623912
3087.75,913.378268603376
3088,915.740980340451
3088.25,917.935132925603
3088.5,917.619680426823
3088.75,913.846180049961
3089,908.719602053748
3089.25,904.749871827048
3089.5,904.333021233144
3089.75,907.623127780695
3090,912.72396122829
3090.25,917.663823097308
3090.5,920.877126486995
3090.75,922.876127755957
3091,924.83585727588
3091.25,927.92490874235
3091.5,932.4675348985
3091.75,937.131296262863
3092,940.391036165189
3092.25,940.804321554418
3092.5,938.528384025472
3092.75,935.167964851854
3093,932.380002602602
3093.25,931.586992887626
3093.5,932.328387114224
3093.75,933.236998410864
3094,932.939877380314
3094.25,930.549556291297
3094.5,926.869018133445
3094.75,923.06894944585
3095,920.312443118327
3095.25,919.237919533969
3095.5,919.628150557888
3095.75,921.187114278529
3096,923.591963408695
3096.25,926.163049375248
3096.5,927.967211722737
3096.75,928.065881889953
3097,925.866103570623
3097.25,922.418725930166
3097.5,919.262788633655
3097.75,917.932789224083
3098,919.278008671895
3098.25,922.743081692556
3098.5,927.600449572821
3098.75,933.137035056608
3099,938.896588206967
3099.25,944.643344461873
3099.5,950.148699247108
3099.75,955.139844324025
3100,959.054787618482
3100.25,961.215272170016
3100.5,960.942736647845
3100.75,957.878642242854
3101,952.818951213387
3101.25,946.819879951421
3101.5,940.936361996327
3101.75,935.915305787449
3102,931.797760582381
3102.25,928.526315118162
3102.5,926.046921165421
3102.75,924.42042883324
3103,923.848378314223
3103.25,924.540897590074
3103.5,926.607078540561
3103.75,929.164247585653
3104,930.767178132748
3104.25,929.964201939942
3104.5,926.014731510468
3104.75,920.901112628341
3105,917.257361475093
3105.25,917.695563735931
3105.5,923.053908190029
3105.75,931.119215989407
3106,939.37707564406
3106.25,945.461022824615
3106.5,949.001042446362
3106.75,951.059931289212
3107,952.731802653716
3107.25,954.884396121966
3107.5,956.994731244777
3107.75,958.012043898421
3108,956.884604116243
3108.25,953.073332961282
3108.5,947.822706291865
3108.75,942.764825963266
3109,939.526485612088
3109.25,938.836528853044
3109.5,939.52194283448
3109.75,940.167423328398
3110,939.400148832417
3110.25,937.043869071479
3110.5,934.255248430837
3110.75,932.260802282393
3111,932.147179126443
3111.25,933.550381811708
3111.5,935.247545227464
3111.75,936.00458416084
3112,934.953267246728
3112.25,932.823336982605
3112.5,930.780705530776
3112.75,929.987713163961
3113,931.053583502194
3113.25,933.442016215333
3113.5,936.474570249463
3113.75,939.475772185643
3114,941.836294331921
3114.25,943.011803378184
3114.5,942.460703358002
3114.75,939.770313136627
3115,935.632382981752
3115.25,931.299950710846
3115.5,928.030477182916
3115.75,926.737137114701
3116,926.900192129082
3116.25,927.627173453639
3116.5,928.029848717047
3116.75,927.626098803412
3117,926.670861914483
3117.25,925.49696708402
3117.5,924.424741396694
3117.75,923.556839487221
3118,922.811173614782
3118.25,922.099795702541
3118.5,921.333232048533
3118.75,920.412758357915
3119,919.236182154767
3119.25,917.702379694741
3119.5,916.032022865044
3119.75,915.216508104984
3120,916.36021485679
3120.25,920.496353267292
3120.5,927.043029858783
3120.75,933.815261220976
3121,938.559297428562
3121.25,939.372657300676
3121.5,936.706191585768
3121.75,931.977491865361
3122,926.607028245415
3122.25,921.768474693174
3122.5,917.846007272014
3122.75,915.066262408863
3123,913.648300933659
3123.25,913.449801077594
3123.5,913.816157405904
3123.75,914.053851985079
3124,913.562525090377
3124.25,912.6676494601
3124.5,912.224980665118
3124.75,913.096487160936
3125,915.79735971519
3125.25,919.665894696425
3125.5,923.790956217798
3125.75,927.269596425679
3126,929.511655814685
3126.25,930.330132313531
3126.5,929.564651442673
3126.75,927.126137521765
3127,923.664177415897
3127.25,920.265315774925
3127.5,918.021791017272
3127.75,917.629636077439
3128,918.117178761365
3128.25,918.074027518602
3128.5,916.105143727418
3128.75,911.904028789459
3129,906.955333610015
3129.25,902.910605917015
3129.5,901.307636322947
3129.75,902.241666261823
3130,904.816851687463
3130.25,908.11789689396
3130.5,911.371256291069
3130.75,914.313841495276
3131,916.797427102686
3131.25,918.678081110096
3131.5,919.975775808716
3131.75,920.921680554048
3132,921.760907619104
3132.25,922.701108541788
3132.5,923.602487827293
3132.75,924.136856486636
3133,923.97417256922
3133.25,922.937872682879
3133.5,921.390952873455
3133.75,919.814914250585
3134,918.686733417878
3134.25,918.237064042871
3134.5,918.328557088993
3134.75,918.793766853904
3135,919.452811766751
3135.25,919.983574631255
3135.5,919.97326835023
3135.75,919.007643104986
3136,916.901299566449
3136.25,914.397582185732
3136.5,912.47540528435
3136.75,912.104518854079
3137,913.644396950103
3137.25,916.472108219359
3137.5,919.875801259911
3137.75,923.143760296996
3138,925.565820485576
3138.25,926.432805493922
3138.5,925.035554930927
3138.75,920.983570910359
3139,915.210780514871
3139.25,908.995142908624
3139.5,903.609065098258
3139.75,899.847452090894
3140,897.667424704761
3140.25,896.941275352991
3140.5,897.504713243062
3140.75,898.769096348681
3141,899.872447912975
3141.25,899.948422552638
3141.5,898.551772832257
3141.75,896.567002613415
3142,895.140454404065
3142.25,895.378852879697
3142.5,897.382658522171
3142.75,900.190243247724
3143,902.789186061589
3143.25,904.417926971193
3143.5,905.674562649978
3143.75,907.615683325934
3144,911.286370722111
3144.25,916.712584272902
3144.5,922.132657726982
3144.75,925.603978506357
3145,925.346900664727
3145.25,921.615421509582
3145.5,916.044815972228
3145.75,910.29670143679
3146,905.773366831325
3146.25,902.647347832053
3146.5,900.727027905222
3146.75,899.817970232181
3147,899.517631320937
3147.25,899.07392876356
3147.5,897.701322583184
3147.75,894.765438633964
3148,891.173982677182
3148.25,888.736056777419
3148.5,889.271065904996
3148.75,893.674956323025
3149,900.220548449407
3149.25,906.718059655676
3149.5,911.080383256226
3149.75,913.033518796327
3150,913.85585260444
3150.25,914.87590877691
3150.5,917.054096266284
3150.75,919.496903253337
3151,920.728485663118
3151.25,919.283831525638
3151.5,914.871250158574
3151.75,909.395154359976
3152,905.001109182556
3152.25,903.70846039482
3152.5,905.518830731326
3152.75,908.811796227616
3153,911.921032753054
3153.25,913.523378116813
3153.5,913.80887150511
3153.75,913.384515865613
3154,912.853879246438
3154.25,912.591529006035
3154.5,912.603736904442
3154.75,912.863480668748
3155,913.350938109102
3155.25,914.129716834546
3155.5,915.317121649535
3155.75,917.031345970088
3156,919.227988394938
3156.25,921.241958576731
3156.5,922.260080638023
3156.75,921.482391327987
3157,918.825983322001
3157.25,915.277914099276
3157.5,911.912599044823
3157.75,909.717854618194
3158,908.648586086098
3158.25,907.980649546408
3158.5,906.978002184921
3158.75,905.165748387191
3159,903.065729496691
3159.25,901.437551327682
3159.5,901.027043052301
3159.75,902.003229789685
3160,903.761078334926
3160.25,905.641254880532
3160.5,907.054513542657
3160.75,907.957647836586
3161,908.563609826867
3161.25,909.086799831463
3161.5,909.731751550868
3161.75,910.67832687537
3162,912.102594358966
3162.25,914.166330948519
3162.5,916.736499577716
3162.75,919.402932975991
3163,921.744713270237
3163.25,923.364714668341
3163.5,924.006158209801
3163.75,923.46354806954
3164,921.532723125899
3164.25,918.341089593955
3164.5,914.790436974522
3164.75,911.892917083402
3165,910.620397825463
3165.25,910.99952259888
3165.5,912.101206279885
3165.75,912.953978950292
3166,912.792005068097
3166.25,912.139816347808
3166.5,912.02132394809
3166.75,913.458291996246
3167,916.785876009329
3167.25,920.806459536851
3167.5,924.114899077677
3167.75,925.356643129801
3168,924.115892465443
3168.25,920.805437147546
3168.5,915.866518966032
3168.75,909.828105756836
3169,903.776462402203
3169.25,899.015982090495
3169.5,896.848194790338
3169.75,897.736010498282
3170,900.206300721551
3170.25,902.513604527403
3170.5,903.008834624358
3170.75,901.485659197715
3171,898.848750942489
3171.25,896.031382740149
3171.5,893.866402254274
3171.75,892.770095506859
3172,893.050756500303
3172.25,894.996618397931
3172.5,898.133775748105
3172.75,901.008408727269
3173,902.102217389509
3173.25,900.23861875712
3173.5,896.551774179814
3173.75,893.133081660221
3174,892.06929657982
3174.25,894.16234777654
3174.5,897.502794757251
3174.75,899.837245291311
3175,899.110759028435
3175.25,895.702976002929
3175.5,891.627013909497
3175.75,888.926098985289
3176,888.973328760297
3176.25,890.847320025159
3176.5,893.136017323967
3176.75,894.453743456271
3177,894.033069187372
3177.25,891.731297733485
3177.5,887.433407507579
3177.75,881.26374020807
3178,874.564810103887
3178.25,869.065686136708
3178.5,866.468761776088
3178.75,867.237882533954
3179,870.10479649594
3179.25,873.672215137367
3179.5,876.73681221953
3179.75,879.131470685287
3180,881.033689275605
3180.25,882.609590988696
3180.5,883.594850305716
3180.75,883.177716241711
3181,880.511010166998
3181.25,875.070167930119
3181.5,868.185301965887
3181.75,861.848004661158
3182,858.022568462986
3182.25,857.270872748756
3182.5,858.130566411829
3182.75,858.981544242117
3183,858.50878152612
3183.25,856.930670517644
3183.5,854.94633235958
3183.75,853.229981632605
3184,851.845667633018
3184.25,850.228102895568
3184.5,847.783202903528
3184.75,844.289788905326
3185,840.729306167593
3185.25,838.325176360765
3185.5,838.198433696268
3185.75,840.336372406836
3186,844.020812133423
3186.25,848.519526501839
3186.5,852.888423681574
3186.75,855.850476959632
3187,856.099482378899
3187.25,852.719954916703
3187.5,846.667027904841
3187.75,839.45499724539
3188,832.571324789496
3188.25,826.928745985997
3188.5,822.889092719016
3188.75,820.79009665384
3189,820.367909177363
3189.25,819.907190916761
3189.5,817.478069891251
3189.75,811.75135840005
3190,804.765600321713
3190.25,799.732256867136
3190.5,799.596766387741
3190.75,803.61047226158
3191,808.329007129245
3191.25,810.324466867735
3191.5,808.799680773883
3191.75,806.163677512436
3192,805.015177176684
3192.25,806.754532001628
3192.5,809.987731123909
3192.75,812.923234375037
3193,813.998439935462
3193.25,812.670024012235
3193.5,808.678223934134
3193.75,801.906082985801
3194,793.648898336333
3194.25,786.007781541529
3194.5,781.011745284046
3194.75,778.670041958498
3195,776.888036462805
3195.25,773.508281650367
3195.5,768.239421750691
3195.75,763.539476095713
3196,762.071689673085
3196.25,764.689437424007
3196.5,768.754038836682
3196.75,771.236973503537
3197,770.751624356227
3197.25,769.529764060935
3197.5,770.284352685807
3197.75,774.511358924973
3198,780.29955729605
3198.25,785.146010066482
3198.5,787.051424827811
3198.75,785.80133572622
3199,781.576464189429
3199.25,774.872458111957
3199.5,767.88598705999
3199.75,763.385436010601
3200,763.659680893233
3200.25,767.169768137554
3200.5,770.544705311637
3200.75,770.730785030914
3201,767.792782456019
3201.25,763.517148667904
3201.5,759.621854418948
3201.75,756.716677694085
3202,754.644857706921
3202.25,753.253232443351
3202.5,752.680075918699
3202.75,753.292470488189
3203,755.403459403725
3203.25,758.336130984648
3203.5,760.60304906874
3203.75,760.800769325545
3204,759.421456710876
3204.25,758.575666851407
3204.5,760.310248968191
3204.75,764.207596258345
3205,767.48984762165
3205.25,767.37213769312
3205.5,763.286226335238
3205.75,756.995733407394
3206,750.357478404683
3206.25,744.574590783036
3206.5,740.019998298389
3206.75,736.997099031583
3207,735.178071242483
3207.25,733.407757052804
3207.5,730.515806356094
3207.75,726.569518524567
3208,723.06638832853
3208.25,721.507213638764
3208.5,721.767617986281
3208.75,722.16707272653
3209,721.135593734417
3209.25,719.419871175171
3209.5,719.420146206869
3209.75,723.237517964905
3210,729.966436530378
3210.25,737.113111903187
3210.5,742.344613966101
3210.75,744.397620033455
3211,742.412305297043
3211.25,736.067186665377
3211.5,727.872509978562
3211.75,721.267546637926
3212,718.791728560628
3212.25,718.680259653209
3212.5,717.883782519611
3212.75,714.314874959958
3213,709.13438164502
3213.25,704.18541575217
3213.5,700.658741868893
3213.75,698.22581004337
3214,696.345075085208
3214.25,694.612888418576
3214.5,692.822204219863
3214.75,690.785603753617
3215,688.390771136975
3215.25,685.586842707823
3215.5,682.38786612484
3215.75,679.261350249779
3216,676.872980527068
3216.25,675.455317873793
3216.5,673.827398555296
3216.75,670.547229191657
3217,665.478214553702
3217.25,660.364463647792
3217.5,656.924798598526
3217.75,654.928557662821
3218,652.907893830825
3218.25,649.928787603852
3218.5,647.040092992206
3218.75,645.692828410474
3219,645.933245838547
3219.25,646.098026777424
3219.5,644.736771428789
3219.75,642.452578196335
3220,640.662181383955
3220.25,640.07154684159
3220.5,640.027915284854
3220.75,639.811379803337
3221,639.60609604417
3221.25,640.139189151999
3221.5,641.712803048526
3221.75,643.461389318428
3222,644.377811570238
3222.25,644.349004350135
3222.5,644.000895594925
3222.75,643.738434579992
3223,642.984893211517
3223.25,640.945891039837
3223.5,637.862451391135
3223.75,635.248644646932
3224,634.436416959071
3224.25,635.130051715654
3224.5,636.408537956571
3224.75,637.52501254793
3225,638.019863580453
3225.25,637.556079857551
3225.5,636.581483749204
3225.75,635.925978620286
3226,636.175760019705
3226.25,637.392939055747
3226.5,639.512832485854
3226.75,641.792816506956
3227,643.061118501738
3227.25,642.84073632826
3227.5,642.61558465272
3227.75,644.107632669782
3228,647.158144979206
3228.25,649.953620204191
3228.5,650.975254228446
3228.75,650.209080505472
3229,648.055797693504
3229.25,645.436872826498
3229.5,643.992458042844
3229.75,645.093770421039
3230,647.586317701728
3230.25,649.12806988209
3230.5,648.552226314146
3230.75,647.292616715815
3231,647.038052715154
3231.25,648.160712884479
3231.5,650.043209207804
3231.75,651.990374645803
3232,653.105522018005
3232.25,652.477449439421
3232.5,650.32336616714
3232.75,648.247223033988
3233,647.723517086125
3233.25,648.686534954201
3233.5,650.398810239904
3233.75,652.308026805995
3234,654.261637722069
3234.25,656.153321369646
3234.5,657.807472219856
3234.75,658.997507806299
3235,659.429690960061
3235.25,658.544145059535
3235.5,655.735189684432
3235.75,651.451947669159
3236,647.661688981983
3236.25,646.196658443384
3236.5,646.560419448572
3236.75,647.002409460388
3237,646.411730233188
3237.25,645.376416607278
3237.5,644.724432270262
3237.75,644.689073160361
3238,644.991503582671
3238.25,645.323313134327
3238.5,645.321113260465
3238.75,644.622339993401
3239,643.478475817264
3239.25,642.944465663256
3239.5,643.913964732145
3239.75,645.772842381405
3240,647.269030560566
3240.25,647.885857706811
3240.5,648.558311833276
3240.75,650.238583550454
3241,652.047606038477
3241.25,651.895107857015
3241.5,648.59912110711
3241.75,644.074568796057
3242,640.819419045812
3242.25,639.56958494589
3242.5,639.070563209698
3242.75,638.209190974532
3243,637.275766650933
3243.25,637.044862791665
3243.5,637.753352891349
3243.75,638.794892575435
3244,639.610612781703
3244.25,640.591978207289
3244.5,642.574462613678
3244.75,645.659981549107
3245,648.420032326464
3245.25,649.394162475791
3245.5,649.031456751704
3245.75,649.043775222336
3246,650.721621478432
3246.25,653.87773514621
3246.5,657.995522722031
3246.75,661.955284560071
3247,663.977235006922
3247.25,662.640889402681
3247.5,659.072229728429
3247.75,655.409777325482
3248,653.122548697861
3248.25,652.117230288176
3248.5,652.072135559375
3248.75,652.544641047273
3249,652.989115814683
3249.25,653.007949078175
3249.5,652.899589497141
3249.75,653.158549389417
3250,654.055065063655
3250.25,655.519185261041
3250.5,657.408464934092
3250.75,659.169310581784
3251,660.024665621187
3251.25,659.718118608019
3251.5,659.522190689881
3251.75,660.941575319206
3252,664.235251645351
3252.25,668.299169277812
3252.5,671.968793770546
3252.75,674.139784463099
3253,673.734839910486
3253.25,670.547165776392
3253.5,666.610595051349
3253.75,664.250599130066
3254,663.9430278323
3254.25,664.075691784497
3254.5,663.179474523821
3254.75,661.708854693392
3255,660.995105549241
3255.25,661.791613013363
3255.5,663.300213540725
3255.75,664.493984463172
3256,664.98148546009
3256.25,665.01747099777
3256.5,664.881164876947
3256.75,664.82241225275
3257,665.079332265659
3257.25,665.922749683991
3257.5,667.701285943727
3257.75,670.742128339738
3258,674.678331624776
3258.25,678.480025609986
3258.5,681.17709781884
3258.75,682.358069757167
3259,681.834397825182
3259.25,679.688909453822
3259.5,676.751150389407
3259.75,673.967288349517
3260,671.850366479252
3260.25,670.347327639887
3260.5,669.373806001617
3260.75,668.916981817288
3261,669.006506935973
3261.25,669.500474199828
3261.5,669.604095141563
3261.75,668.38669200911
3262,665.985414113675
3262.25,664.155947815759
3262.5,664.617998095719
3262.75,667.096375579938
3263,670.025629271947
3263.25,672.195738127561
3263.5,673.86156849657
3263.75,675.630362595255
3264,677.906243911925
3264.25,680.775476072452
3264.5,684.222020115935
3264.75,687.235266507498
3265,688.096817778237
3265.25,685.587955445406
3265.5,681.259507219884
3265.75,677.587611715122
3266,676.188494664632
3266.25,676.464728990302
3266.5,677.466021217617
3266.75,678.184722015117
3267,677.545711325451
3267.25,674.744188115304
3267.5,671.529475350609
3267.75,671.040627750595
3268,675.111143633056
3268.25,680.631138364754
3268.5,683.37684315796
3268.75,681.656060461077
3269,677.653506980555
3269.25,673.83836269994
3269.5,672.042350211508
3269.75,673.613992685831
3270,679.209341784509
3270.25,685.824962257526
3270.5,689.243688220429
3270.75,687.434174629356
3271,683.164083981966
3271.25,679.771324771936
3271.5,678.622238187276
3271.75,678.83613985619
3272,679.435748605369
3272.25,679.686304567244
3272.5,678.986419265062
3272.75,677.116202251689
3273,675.331594243706
3273.25,675.231538457985
3273.5,677.185446174903
3273.75,679.444229874836
3274,680.164920770882
3274.25,679.277961595665
3274.5,678.100832214509
3274.75,677.751166338748
3275,677.959317100804
3275.25,677.95357326037
3275.5,677.533783362257
3275.75,677.921434611188
3276,680.489517126986
3276.25,684.681444524703
3276.5,687.742012564719
3276.75,687.138629377701
3277,683.481596556092
3277.25,679.071879233027
3277.5,675.80894574787
3277.75,673.828548066413
3278,672.800853330086
3278.25,672.371197819819
3278.5,672.138769715119
3278.75,671.705066766331
3279,670.793438436564
3279.25,669.227649238914
3279.5,666.981907051668
3279.75,664.86265727465
3280,663.964687760341
3280.25,664.753367965329
3280.5,666.328122993549
3280.75,667.649949884566
3281,668.411169510332
3281.25,668.939098747009
3281.5,669.505196329753
3281.75,669.946602591686
3282,669.949179834541
3282.25,669.37392142198
3282.5,668.462007233684
3282.75,667.483700994194
3283,666.294187135936
3283.25,664.364960530711
3283.5,661.408626601074
3283.75,658.709806533546
3284,658.143548181628
3284.25,660.156504313937
3284.5,662.025083587836
3284.75,660.795222262419
3285,656.813922993231
3285.25,653.17631042938
3285.5,652.367774539808
3285.75,653.367531287674
3286,654.066354706145
3286.25,653.570867368004
3286.5,652.993462080557
3286.75,653.520968491945
3287,655.149673798776
3287.25,657.162501623306
3287.5,658.898953767474
3287.75,659.905886225055
3288,659.793577342226
3288.25,658.833723305448
3288.5,658.043350045123
3288.75,658.276279306975
3289,658.952730894877
3289.25,658.877957882716
3289.5,657.481723365172
3289.75,655.664094569816
3290,654.497609589684
3290.25,654.343966455024
3290.5,654.934914956016
3290.75,655.893193336168
3291,656.406084053979
3291.25,655.539737644016
3291.5,653.427785049656
3291.75,651.982880057499
3292,653.04967638051
3292.25,655.873454825273
3292.5,658.091611102395
3292.75,658.233897425382
3293,657.765972275147
3293.25,658.69324652803
3293.5,661.576905321488
3293.75,665.299274238965
3294,668.711622653123
3294.25,671.11777440331
3294.5,672.019032457862
3294.75,671.137716128176
3295,668.768158904724
3295.25,665.308358160237
3295.5,661.49427223044
3295.75,658.438592816952
3296,657.141872169488
3296.25,657.599186258629
3296.5,659.342215497322
3296.75,661.717116262748
3297,663.610617659718
3297.25,663.904717008841
3297.5,662.854659514817
3297.75,662.010886810539
3298,662.653183634158
3298.25,664.135313934214
3298.5,665.100991478858
3298.75,664.964385369276
3299,664.774807455442
3299.25,665.73027928946
3299.5,667.969755055265
3299.75,670.723077253672
3300,673.213972255437
3300.25,674.793319500512
3300.5,674.858236306984
3300.75,673.383629876824
3301,671.582283847419
3301.25,670.789186440839
3301.5,671.52998415693
3301.75,673.55104353208
3302,676.483193348342
3302.25,679.394410458694
3302.5,681.122084554112
3302.75,681.018805437899
3303,679.823755979251
3303.25,678.498703044918
3303.5,677.713987585125
3303.75,677.771733041511
3304,678.902160866978
3304.25,680.827176326787
3304.5,682.964378187304
3304.75,684.720363421268
3305,685.472674613169
3305.25,684.596398750273
3305.5,682.091867179066
3305.75,679.171761218582
3306,677.135792518495
3306.25,676.145476802569
3306.5,675.255189796817
3306.75,673.549327011713
3307,670.674940156863
3307.25,666.532577983373
3307.5,661.484626832619
3307.75,657.267643260548
3308,655.80943508633
3308.25,656.951422708985
3308.5,658.034225041508
3308.75,656.729438387291
3309,654.171077050667
3309.25,653.011025022859
3309.5,654.329296708838
3309.75,655.423535011148
3310,653.261233039801
3310.25,648.722787325244
3310.5,646.01060089166
3310.75,648.331339403518
3311,653.659034600427
3311.25,658.450209923339
3311.5,660.928539973087
3311.75,661.878212235772
3312,662.239099098242
3312.25,662.534001984599
3312.5,663.059206383182
3312.75,663.801689791107
3313,663.788599602434
3313.25,661.907682854475
3313.5,658.601555398792
3313.75,656.176025400365
3314,656.64334124143
3314.25,658.821669549435
3314.5,660.013575254222
3314.75,658.910671043534
3315,657.75046480162
3315.25,659.179556711121
3315.5,662.740108470779
3315.75,664.987351939
3316,663.212414096846
3316.25,659.591852736391
3316.5,658.019238010975
3316.75,660.500351618323
3317,665.084626291439
3317.25,669.417707842133
3317.5,672.59515245006
3317.75,674.855895855617
3318,676.486631741475
3318.25,677.858465371273
3318.5,679.36667162302
3318.75,681.020626750183
3319,682.021884544324
3319.25,681.514354072576
3319.5,679.618990724301
3319.75,677.416438319198
3320,675.866018173552
3320.25,674.647395147499
3320.5,672.832050417788
3320.75,670.089862690631
3321,668.039729091105
3321.25,668.647773372814
3321.5,671.828281966534
3321.75,674.677755045297
3322,674.441510120614
3322.25,671.925045228225
3322.5,669.995249906005
3322.75,670.810524494945
3323,673.6550786556
3323.25,677.115645921231
3323.5,680.172857001147
3323.75,682.428386813043
3324,683.579107642761
3324.25,683.876393646172
3324.5,683.973393252587
3324.75,684.324934492535
3325,684.233234968998
3325.25,682.604331786918
3325.5,679.197336573014
3325.75,675.934265405461
3326,675.020378176173
3326.25,676.813374149576
3326.5,679.411643117386
3326.75,680.988609764552
3327,681.745151484135
3327.25,683.005935433187
3327.5,685.52695325882
3327.75,687.762722602499
3328,687.615592774525
3328.25,684.770607666642
3328.5,682.18134244238
3328.75,683.011142079982
3329,687.472810531879
3329.25,692.971763216743
3329.5,697.084025771745
3329.75,699.530746881041
3330,701.018832639273
3330.25,702.112839027077
3330.5,702.813256514256
3330.75,702.985379218884
3331,702.416432668397
3331.25,700.72478717208
3331.5,697.526631636834
3331.75,693.214346574385
3332,689.1909540303
3332.25,686.854641291814
3332.5,686.530447012815
3332.75,687.724081370087
3333,689.801797851083
3333.25,691.383092314661
3333.5,690.798905084326
3333.75,687.697932783586
3334,685.655931799412
3334.25,688.907381735661
3334.5,697.589742504644
3334.75,705.521236118181
3335,706.433298164602
3335.25,701.194669419306
3335.5,696.356577077409
3335.75,697.76463148344
3336,703.978656057555
3336.25,709.900860989484
3336.5,711.570355286234
3336.75,710.043634756384
3337,707.727051785637
3337.25,706.301339132346
3337.5,705.500873881323
3337.75,704.739515729713
3338,703.613352710478
3338.25,702.024671449064
3338.5,699.932928063226
3338.75,697.991308486517
3339,697.577698530525
3339.25,699.852398276068
3339.5,703.180416034841
3339.75,704.183164774396
3340,700.532960603276
3340.25,695.96053811246
3340.5,696.311872576881
3340.75,704.798054717342
3341,716.10394597135
3341.25,723.243270803864
3341.5,723.42868777353
3341.75,721.238654672821
3342,721.904088449784
3342.25,727.018937793248
3342.5,733.444266528304
3342.75,737.810120854505
3343,738.591755062551
3343.25,736.037222395149
3343.5,730.553598403155
3343.75,724.01613251776
3344,719.518537394324
3344.25,719.862158988813
3344.5,723.550975626182
3344.75,726.075809189475
3345,723.48494689422
3345.25,717.054635742103
3345.5,710.684317001761
3345.75,707.644213297072
3346,707.178098642304
3346.25,706.987601198497
3346.5,705.413068156597
3346.75,703.246245775766
3347,701.861639163921
3347.25,702.036499973771
3347.5,703.167612201814
3347.75,704.458965656202
3348,705.187285159884
3348.25,704.729041688387
3348.5,702.527450905712
3348.75,699.059227857908
3349,695.676735990322
3349.25,693.583161554769
3349.5,692.42934525919
3349.75,691.061274393166
3350,688.650676361399
3350.25,685.835886546411
3350.5,683.657331576408
3350.75,682.734114820042
3351,682.754461346683
3351.25,683.276744561551
3351.5,683.716403155814
3351.75,683.333296746893
3352,681.578496815126
3352.25,679.721828761346
3352.5,680.007442170321
3352.75,683.660179913301
3353,687.834151513548
3353.25,688.70616845729
3353.5,685.082168703958
3353.75,680.42735372443
3354,678.492436990406
3354.25,679.129280081202
3354.5,678.561528250823
3354.75,673.62692638694
3355,666.520092456613
3355.25,661.758250046816
3355.5,661.920607198797
3355.75,663.793055667329
3356,663.210895986151
3356.25,659.567558649892
3356.5,656.293668722556
3356.75,656.457355151873
3357,658.774923201593
3357.25,659.993514845867
3357.5,658.540508852349
3357.75,656.928106344896
3358,658.120179919777
3358.25,662.029727999683
3358.5,665.760733308728
3358.75,666.998571744194
3359,667.098563044639
3359.25,668.627630659983
3359.5,672.767694900092
3359.75,677.931632104926
3360,682.272436812381
3360.25,685.126343686249
3360.5,686.821059114817
3360.75,687.583101265326
3361,686.801239915508
3361.25,683.536994685971
3361.5,677.882913477589
3361.75,672.999893218989
3362,672.547545018365
3362.25,676.82191912503
3362.5,681.310592943298
3362.75,681.640795812712
3363,679.169626251664
3363.25,678.862183701226
3363.5,684.128413451879
3363.75,690.837077070374
3364,692.683073600336
3364.25,687.789343033756
3364.5,683.322351115311
3364.75,687.255316904613
3365,699.246642854988
3365.25,709.719845324532
3365.5,709.897771755643
3365.75,703.182556395092
3366,699.712830832866
3366.25,707.340522511471
3366.5,720.350996526966
3366.75,728.188768001044
3367,724.162848161592
3367.25,713.785041798563
3367.5,704.957474965768
3367.75,702.736140559951
3368,705.223566944182
3368.25,709.487964676911
3368.5,713.029702879081
3368.75,714.000452395416
3369,710.741918886014
3369.25,704.558720469897
3369.5,699.628015794109
3369.75,699.916608205331
3370,705.478221148928
3370.25,713.795928185542
3370.5,722.371922972413
3370.75,729.095671067138
3371,732.00138192121
3371.25,730.248719877308
3371.5,727.445595269739
3371.75,728.298229942909
3372,735.352770794038
3372.25,744.266337766669
3372.5,749.334229007894
3372.75,747.878059612249
3373,744.69560474991
3373.25,745.707743887798
3373.5,753.138880859817
3373.75,760.185433931532
3374,758.713077292204
3374.25,745.987374591579
3374.5,731.735858127996
3374.75,727.424676538739
3375,738.192366664369
3375.25,752.816653541114
3375.5,757.530775977736
3375.75,747.223126642835
3376,734.060407405495
3376.25,732.21883161916
3376.5,747.688077277615
3376.75,768.598015078567
3377,780.813648475801
3377.25,778.161033598568
3377.5,768.556278270153
3377.75,761.347306609707
3378,762.316149632365
3378.25,768.538021596054
3378.5,775.785081590665
3378.75,780.588695763337
3379,781.607952783984
3379.25,777.871881189039
3379.5,769.40222567508
3379.75,759.959530275817
3380,754.184375671341
3380.25,755.404807172917
3380.5,760.022729889259
3380.75,762.163766577236
3381,757.395004296002
3381.25,749.277821293156
3381.5,744.126759280314
3381.75,746.93293390366
3382,754.165775889326
3382.25,758.923726690039
3382.5,755.814832975888
3382.75,748.50098999688
3383,743.986829263262
3383.25,747.985289846165
3383.5,757.554868716066
3383.75,766.211742342736
3384,768.580072240531
3384.25,766.208207669452
3384.5,763.290629260032
3384.75,763.316703273697
3385,764.321590974956
3385.25,761.813783030691
3385.5,752.084361455689
3385.75,738.684321612943
3386,729.046701036859
3386.25,729.676457599594
3386.5,736.986372445151
3386.75,741.374396205405
3387,734.736116929883
3387.25,721.236749206776
3387.5,710.78842572065
3387.75,711.631561516914
3388,720.196671522302
3388.25,727.914387236792
3388.5,728.360458374198
3388.75,724.29073167303
3389,720.895577551879
3389.25,721.754648892341
3389.5,725.192984176872
3389.75,728.470039260599
3390,729.934362786566
3390.25,730.474171863445
3390.5,731.328024304709
3390.75,732.659068999735
3391,732.665468557656
3391.25,729.379459383806
3391.5,723.18188240016
3391.75,717.951331757862
3392,717.72120188363
3392.25,722.128049624271
3392.5,725.450423747081
3392.75,722.048412125848
3393,713.548619129848
3393.25,707.849912877857
3393.5,712.197694484227
3393.75,723.463829463897
3394,731.641164904352
3394.25,728.594434958297
3394.5,719.832313333866
3394.75,716.572675009068
3395,727.236166930299
3395.25,744.840906706423
3395.5,757.166510198727
3395.75,756.05207614939
3396,748.265158521596
3396.25,744.000379095307
3396.5,750.103619180647
3396.75,760.042873712347
3397,763.945978209117
3397.25,755.53022260423
3397.5,741.856332615805
3397.75,733.084978498595
3398,736.219432919504
3398.25,744.379061781965
3398.5,746.86833412806
3398.75,737.323255915803
3399,724.913231831207
3399.25,722.287713595929
3399.5,736.575566712629
3399.75,755.805674055959
3400,763.901425090236
3400.25,753.120684460327
3400.5,736.513846960139
3400.75,730.313863045734
3401,743.427787408159
3401.25,763.280274424409
3401.5,773.411541208078
3401.75,765.940362914544
3402,752.976595998453
3402.25,749.467917624392
3402.5,763.570553650338
3402.75,782.815116634645
3403,790.836031608697
3403.25,778.289004557242
3403.5,756.903719156894
3403.75,742.347200170161
3404,746.15930155619
3404.25,759.659567530475
3404.5,767.984945289364
3404.75,760.408857460972
3405,744.613324774853
3405.25,733.397532000602
3405.5,736.643233372003
3405.75,748.090776232299
3406,755.929549423463
3406.25,751.794267318821
3406.5,742.853581655791
3406.75,740.645719636673
3407,753.210201631236
3407.25,771.653192385823
3407.5,781.965217524931
3407.75,774.634808362131
3408,759.686300820687
3408.25,752.445205529438
3408.5,764.915953019776
3408.75,787.794620122885
3409,803.361146086346
3409.25,797.177083518917
3409.5,776.802426480755
3409.75,758.787877070365
3410,758.434622861949
3410.25,773.154658769296
3410.5,787.181710332403
3410.75,785.5147975622
3411,769.661367829509
3411.25,754.082908581096
3411.5,753.181091446735
3411.75,768.477723984451
3412,786.300509974582
3412.25,792.443632210643
3412.5,783.707806934398
3412.75,770.01410711944
3413,761.994428123056
3413.25,764.30759670566
3413.5,770.471485274138
3413.75,772.809624348018
3414,767.95472186395
3414.25,761.816473712336
3414.5,761.504329148093
3414.75,770.303797362752
3415,780.80610392616
3415.25,783.748675115359
3415.5,773.717521779462
3415.75,757.541045391277
3416,744.476461296069
3416.25,741.442108843961
3416.5,744.179374391191
3416.75,745.094728140524
3417,738.597216085879
3417.25,728.000587651659
3417.5,719.092068912713
3417.75,716.176989404525
3418,717.35708745998
3418.25,719.11216745046
3418.5,719.018749718661
3418.75,717.828774768621
3419,716.860641151017
3419.25,716.721151504661
3419.5,716.56832942654
3419.75,715.402152892043
3420,713.098465248782
3420.25,710.781372947146
3420.5,709.606483616117
3420.75,709.262713279556
3421,707.97576877956
3421.25,704.127685893809
3421.5,698.708168893379
3421.75,694.415265019964
3422,693.506754999787
3422.25,695.112461784792
3422.5,697.08482953831
3422.75,697.759697271582
3423,697.116523168601
3423.25,695.484495362099
3423.5,693.54367124726
3423.75,692.621078889083
3424,694.04329368191
3424.25,697.402697922462
3424.5,700.488185867178
3424.75,701.256676440095
3425,700.152575087625
3425.25,699.037103167422
3425.5,699.447216480233
3425.75,701.126968808023
3426,703.232916261411
3426.25,705.079094081178
3426.5,706.430988127524
3426.75,707.131897970173
3427,706.841542568411
3427.25,704.909329229146
3427.5,700.722360296758
3427.75,695.439645885412
3428,692.121176198154
3428.25,693.530964179714
3428.5,697.812094953354
3428.75,700.081517032237
3429,696.688225500094
3429.25,691.077454747438
3429.5,689.12976136343
3429.75,694.024992482723
3430,700.747471945424
3430.25,702.818158778259
3430.5,698.669210147221
3430.75,694.268807274572
3431,695.905483914435
3431.25,703.327505566557
3431.5,710.157830987328
3431.75,710.690277798245
3432,707.134149208079
3432.25,705.784055274021
3432.5,711.295683925441
3432.75,719.416984570267
3433,722.944261977317
3433.25,717.783600084715
3433.5,709.613020305506
3433.75,706.006751466282
3434,710.375954490193
3434.25,716.556708525802
3434.5,717.165842542347
3434.75,710.703487759685
3435,704.047922338171
3435.25,704.415238714653
3435.5,711.831311509136
3435.75,719.003271026261
3436,719.056023126234
3436.25,713.34660165233
3436.5,708.340156410314
3436.75,709.571307104779
3437,715.161839980515
3437.25,719.922592708117
3437.5,720.075862588862
3437.75,718.103117064026
3438,718.200650878194
3438.25,722.735926496984
3438.5,728.468350670834
3438.75,731.097670093729
3439,728.325422782249
3439.25,722.108966872793
3439.5,714.948377009119
3439.75,709.191660070189
3440,706.924347072555
3440.25,710.100085233746
3440.5,717.111809075518
3440.75,722.024394308584
3441,719.179257431038
3441.25,711.180076222498
3441.5,707.103486895341
3441.75,714.938002040015
3442,729.891488873551
3442.25,739.739827606723
3442.5,735.012073133339
3442.75,722.936431710155
3443,716.814385314208
3443.25,726.566741079413
3443.5,744.51331781563
3443.75,757.278621637592
3444,756.14895453782
3444.25,748.699322681599
3444.5,746.057985642258
3444.75,755.3141507772
3445,768.222123099363
3445.25,772.897630175906
3445.5,762.132988726812
3445.75,745.644843024182
3446,736.977124009078
3446.25,745.760590930028
3446.5,762.959931512395
3446.75,773.980344503996
3447,768.724167356857
3447.25,755.443520347153
3447.5,747.069102328065
3447.75,753.499832110949
3448,768.108642328058
3448.25,778.665210056757
3448.5,775.744797595211
3448.75,764.689451423819
3449,755.674777762628
3449.25,757.366206021794
3449.5,767.010775330404
3449.75,776.643633527638
3450,779.321592089604
3450.25,776.544088822492
3450.5,773.884640603607
3450.75,776.329519481829
3451,781.597414677325
3451.25,782.653397509475
3451.5,772.948183628032
3451.75,755.70685784557
3452,742.391120075607
3452.25,744.318970084327
3452.5,760.712949891186
3452.75,776.852401715026
3453,777.818338072581
3453.25,763.128887975377
3453.5,747.450589325244
3453.75,745.923811295928
3454,761.673252195419
3454.25,780.54801448377
3454.5,787.332118079483
3454.75,778.419353476574
3455,765.868310240061
3455.25,762.790139742307
3455.5,774.724053421205
3455.75,791.993253243055
3456,803.121323954477
3456.25,801.969887567998
3456.5,794.662595436453
3456.75,789.038219787154
3457,790.68128199706
3457.25,795.648728240974
3457.5,797.480822487996
3457.75,791.021285228778
3458,779.991455724815
3458.25,771.814000753865
3458.5,773.199837696785
3458.75,781.491900287132
3459,787.504589803413
3459.25,782.486353111757
3459.5,767.942845812167
3459.75,754.295290922277
3460,752.015277797873
3460.25,762.306739683699
3460.5,774.513961771543
3460.75,777.439967241757
3461,768.875292889976
3461.25,758.232780488729
3461.5,755.61828248827
3461.75,764.532739156106
3462,776.966480138084
3462.25,783.802327857868
3462.5,780.737259592514
3462.75,772.326114387025
3463,764.07218600227
3463.25,759.351846718337
3463.5,755.87808858456
3463.75,750.432252428679
3464,741.511410243536
3464.25,733.054674930137
3464.5,730.076794821017
3464.75,735.012621778813
3465,742.017091899189
3465.25,743.596856573106
3465.5,736.203261189962
3465.75,726.318439916316
3466,721.980955202562
3466.25,727.09428117511
3466.5,735.74145146129
3466.75,740.633106930304
3467,738.996357004057
3467.25,735.927064822938
3467.5,737.244996133703
3467.75,744.726032105297
3468,753.819567973227
3468.25,759.501593287135
3468.5,760.03687806174
3468.75,758.124427097284
3469,756.734961958245
3469.25,756.681115025751
3469.5,755.608710010958
3469.75,750.95760810479
3470,743.121477825134
3470.25,737.164239892116
3470.5,738.494941705956
3470.75,747.840024040859
3471,758.280499099784
3471.25,762.305262501798
3471.5,757.82885210727
3471.75,750.47707833272
3472,746.414880649298
3472.25,748.527163233072
3472.5,754.401048451506
3472.75,761.156175881707
3473,766.783329130992
3473.25,770.635774354453
3473.5,772.201090958179
3473.75,772.24060281746
3474,773.710106722281
3474.25,779.768555018548
3474.5,790.837001284582
3474.75,801.329567941139
3475,804.865003321272
3475.25,798.00793289463
3475.5,786.231205085265
3475.75,776.685008856181
3476,775.062942099553
3476.25,778.527090991541
3476.5,781.142792310905
3476.75,777.849672584726
3477,770.744185975897
3477.25,765.409663133893
3477.5,766.927904933497
3477.75,773.798411577837
3478,780.034415091691
3478.25,779.978741696774
3478.5,774.554042031145
3478.75,769.936949163541
3479,772.23147458356
3479.25,781.476390548495
3479.5,791.014467958595
3479.75,793.970134082586
3480,788.98460955709
3480.25,782.21169982353
3480.5,780.323673883165
3480.75,786.064892186711
3481,793.564944291813
3481.25,795.812088303053
3481.5,788.933323016481
3481.75,778.769209488715
3482,773.033626797358
3482.25,777.391121370446
3482.5,786.494428375213
3482.75,791.313595410843
3483,784.452813800604
3483.25,770.225642434008
3483.5,758.046002267521
3483.75,756.586875089722
3484,764.970765215691
3484.25,775.813079436968
3484.5,782.057666829564
3484.75,782.871891849441
3485,781.941619881631
3485.25,782.933990499613
3485.5,786.829313523611
3485.75,791.964285160184
3486,796.581706053906
3486.25,799.71074420967
3486.5,801.462429083323
3486.75,802.025207613243
3487,801.307641327294
3487.25,798.590753975257
3487.5,793.070180482487
3487.75,784.83577357451
3488,777.66028053833
3488.25,776.264459104998
3488.5,784.142910569535
3488.75,796.241747259785
3489,803.867749709321
3489.25,799.466214007844
3489.5,786.956215541024
3489.75,776.840007701447
3490,779.250358560118
3490.25,793.743889096484
3490.5,809.142956408908
3490.75,814.007995694089
3491,805.852528644852
3491.25,794.120523147316
3491.5,789.077251925564
3491.75,796.835739702599
3492,812.343042399899
3492.25,828.688490305251
3492.5,840.032240720462
3492.75,845.105144469323
3493,843.857327900221
3493.25,836.472466512451
3493.5,825.8918211216
3493.75,816.856233021558
3494,814.090580172977
3494.25,818.521629012459
3494.5,824.539864106475
3494.75,825.890253401847
3495,818.790874123425
3495.25,808.277225284026
3495.5,801.349051257314
3495.75,804.053850981985
3496,813.705956601293
3496.25,822.927133306759
3496.5,824.65346685773
3496.75,819.014428726041
3497,812.783569025994
3497.25,812.958069056994
3497.5,822.735754582938
3497.75,837.52708983964
3498,851.788051419481
3498.25,860.942066521601
3498.5,864.491297899153
3498.75,863.012615017334
3499,857.136015918987
3499.25,848.37259016707
3499.5,838.958681497942
3499.75,831.150817708513
3500,826.300555638578
3500.25,823.29877324501
3500.5,820.622075391471
3500.75,817.066513840525
3501,813.769993471323
3501.25,812.912632877994
3501.5,816.529842020154
3501.75,823.557552138874
3502,830.009259068811
3502.25,831.813143461923
3502.5,827.861940648539
3502.75,822.550786791699
3503,820.872790141368
3503.25,826.389184702637
3503.5,835.772027653692
3503.75,843.624064686028
3504,845.050804506835
3504.25,841.270963706748
3504.5,837.57631275564
3504.75,839.291358641288
3505,847.786681941767
3505.25,857.253385794048
3505.5,861.123399312396
3505.75,854.578863952019
3506,841.638972320587
3506.25,829.105623755145
3506.5,823.548128446709
3506.75,825.582718987651
3507,829.531438440261
3507.25,829.425805266116
3507.5,822.520947520744
3507.75,813.709775074333
3508,808.991405444011
3508.25,813.042260717675
3508.5,822.414817767359
3508.75,830.579185513696
3509,831.465011686004
3509.25,825.376759797853
3509.5,817.241210983218
3509.75,812.0589589598
3510,812.428798851814
3510.25,816.819743268686
3510.5,823.293313172292
3510.75,829.77474884647
3511,833.709626957169
3511.25,832.438049083283
3511.5,823.922495278908
3511.75,811.529029780093
3512,801.400312245043
3512.25,799.530005981511
3512.5,806.179977464481
3512.75,814.671512834852
3513,817.936531523923
3513.25,812.886233166454
3513.5,804.58080234797
3513.75,799.078194887419
3514,800.896888693548
3514.25,807.586296171596
3514.5,814.72475452219
3514.75,818.396400685724
3515,818.90552808169
3515.25,818.654064056201
3515.5,819.989113020407
3515.75,823.638099315043
3516,828.703795968769
3516.25,834.216245595039
3516.5,838.930874663358
3516.75,841.028230041996
3517,838.616617236167
3517.25,830.482516255741
3517.5,819.184445707527
3517.75,808.584744348173
3518,802.380040127763
3518.25,801.046560688709
3518.5,802.150841519855
3518.75,803.169303900252
3519,802.546271937854
3519.25,800.285442847189
3519.5,796.532144556655
3519.75,791.801854894134
3520,787.687920380976
3520.25,785.978806765578
3520.5,787.911838721932
3520.75,791.910133793114
3521,795.500909280698
3521.25,796.525774823714
3521.5,795.349431500347
3521.75,793.549287869053
3522,792.580006970129
3522.25,791.872571961015
3522.5,789.26264428174
3522.75,782.630839385922
3523,772.931925375677
3523.25,764.919936461384
3523.5,763.539896459397
3523.75,769.499318224665
3524,775.819214374449
3524.25,774.739595052693
3524.5,763.447816447299
3524.75,749.483342439563
3525,741.680829098982
3525.25,744.73489583519
3525.5,751.702096080376
3525.75,753.619132381293
3526,745.957529191157
3526.25,735.556046367681
3526.5,731.042566508767
3526.75,737.184278412255
3527,748.387526303246
3527.25,757.356482570314
3527.5,760.09511076146
3527.75,759.74533844217
3528,760.373887754204
3528.25,764.240525964648
3528.5,769.424335624219
3528.75,773.416029700432
3529,774.253159585097
3529.25,771.390837839715
3529.5,764.511051488161
3529.75,754.546708175455
3530,746.674139901626
3530.25,746.968615316233
3530.5,758.695674236006
3530.75,773.716360391764
3531,780.998591629006
3531.25,773.352745555045
3531.5,758.633338844493
3531.75,748.376215842568
3532,751.739435482328
3532.25,764.339621192629
3532.5,777.006601726067
3532.75,782.144712896184
3533,780.938002962772
3533.25,777.602500552752
3533.5,776.02377636162
3533.75,777.452286071115
3534,781.886780103523
3534.25,789.138236180876
3534.5,796.957071257945
3534.75,801.780325587257
3535,800.229896588215
3535.25,792.966100570031
3535.5,784.33306356067
3535.75,778.77205213739
3536,778.354202882144
3536.25,781.416560987552
3536.5,785.970090832751
3536.75,790.470142415989
3537,794.343632613818
3537.25,797.145970005575
3537.5,798.690327364666
3537.75,799.633294461211
3538,800.803693169914
3538.25,802.970286470649
3538.5,806.555706758984
3538.75,811.858847558175
3539,819.040232644278
3539.25,826.702948507607
3539.5,832.4682100569
3539.75,834.016703479228
3540,831.631969218744
3540.25,828.81145916317
3540.5,829.250409336737
3540.75,834.517916340655
3541,839.548662224261
3541.25,837.986890964502
3541.5,824.784877936163
3541.75,805.643905545922
3542,791.541481172655
3542.25,793.196220151021
3542.5,811.284368901482
3542.75,834.213239438518
3543,849.699446833642
3543.25,851.370534734969
3543.5,843.920766243853
3543.75,833.26007178174
3544,824.69165821472
3544.25,819.980015913367
3544.5,819.610245973403
3544.75,823.922903098639
3545,830.604283887298
3545.25,834.995427018011
3545.5,832.392063271717
3545.75,821.852789199859
3546,809.480246678601
3546.25,802.15072689232
3546.5,804.819576386044
3546.75,812.883651732683
3547,818.772491567705
3547.25,815.831364082725
3547.5,806.25176671885
3547.75,797.176174451034
3548,795.58305811729
3548.25,801.794936959248
3548.5,808.41991966652
3548.75,807.680525739747
3549,796.675954373876
3549.25,781.632864864151
3549.5,769.780124433818
3549.75,766.169763491527
3550,767.835718964118
3550.25,769.96627657879
3550.5,768.845445813958
3550.75,765.888621592404
3551,764.012061214444
3551.25,765.584921136272
3551.5,769.705999522906
3551.75,774.264564018933
3552,777.379754262921
3552.25,778.821815371506
3552.5,779.077370074628
3552.75,778.568497530991
3553,777.048460087514
3553.25,773.888107806016
3553.5,768.562262630219
3553.75,762.19736530706
3554,757.206108466615
3554.25,755.91553981002
3554.5,757.997715341296
3554.75,760.521860085093
3555,760.562909793624
3555.25,758.05284783321
3555.5,755.905434943045
3555.75,757.097791197969
3556,762.227512052367
3556.25,769.106389165522
3556.5,775.41149465463
3556.75,779.659583067159
3557,781.414231294769
3557.25,780.316067446119
3557.5,776.736172285155
3557.75,772.207480532426
3558,768.36286827092
3558.25,766.079366882907
3558.5,764.546119107193
3558.75,762.724058746557
3559,759.876853627237
3559.25,756.107712345107
3559.5,751.664294006374
3559.75,747.152330842395
3560,744.333863624019
3560.25,745.203635242226
3560.5,750.507894419651
3560.75,756.86471428383
3561,760.04094252506
3561.25,757.616062519547
3561.5,752.818837876224
3561.75,749.97537623786
3562,752.03118807893
3562.25,757.087472984059
3562.5,762.183557753054
3562.75,765.120477053587
3563,766.371865158501
3563.25,766.997194446164
3563.5,767.809499872945
3563.75,768.623537046456
3564,769.001319609186
3564.25,768.630152310877
3564.5,767.8201054889
3564.75,767.074375226618
3565,766.681226233111
3565.25,765.58000922176
3565.5,762.18809556531
3565.75,755.417936489308
3566,748.045789748689
3566.25,744.659675018046
3566.5,749.08910099369
3566.75,758.239640340714
3567,765.351207685639
3567.25,764.51583122828
3567.5,757.284474463368
3567.75,748.945789165892
3568,744.425653511866
