1629,844.097995717932
1629.25,839.425084769417
1629.5,837.674535717143
1629.75,838.97947920245
1630,841.167920281056
1630.25,841.947822238363
1630.5,839.919576047572
1630.75,836.284308867869
1631,832.714322252024
1631.25,830.749596244866
1631.5,830.734016766022
1631.75,832.376264187554
1632,835.36576913608
1632.25,838.902959472796
1632.5,841.570790180927
1632.75,841.912958383023
1633,839.270710741867
1633.25,835.536966912992
1633.5,833.11388359432
1633.75,834.154592235731
1634,838.302719894418
1634.25,843.74886783017
1634.5,848.683760671521
1634.75,852.107428404589
1635,854.142872410626
1635.25,854.995811714921
1635.5,855.046012136114
1635.75,855.396962375606
1636,857.340235886735
1636.25,862.011569969799
1636.5,867.882167451141
1636.75,871.187332480997
1637,868.097895877293
1637.25,857.846392099092
1637.5,847.973347144747
1637.75,847.414945199203
1638,864.111153720859
1638.25,893.92943859028
1638.5,924.708644757874
1638.75,944.19374932153
1639,946.235538931616
1639.25,936.498884503824
1639.5,921.999856721206
1639.75,909.587063554195
1640,902.020497206491
1640.25,897.835381179923
1640.5,895.372236516153
1640.75,893.180183731884
1641,891.220738902779
1641.25,890.041185684331
1641.5,890.187963494002
1641.75,891.868796875381
1642,894.629218201935
1642.25,897.938066502022
1642.5,901.270498025917
1642.75,904.169778269843
1643,906.220709595372
1643.25,907.008774697074
1643.5,906.268187930438
1643.75,904.185918195452
1644,901.034773249046
1644.25,897.097018182379
1644.5,892.914372262174
1644.75,889.313695054021
1645,887.136455038043
1645.25,887.017703416479
1645.5,888.360397048974
1645.75,890.112279573953
1646,891.229258967494
1646.25,891.255904557806
1646.5,890.682408846795
1646.75,890.084316034351
1647,889.924537949002
1647.25,889.705219635426
1647.5,888.44198055605
1647.75,885.14962207846
1648,879.503713938591
1648.25,872.670182087939
1648.5,866.019125641279
1648.75,860.835934150736
1649,857.36771605029
1649.25,855.16539314994
1649.5,853.766991224047
1649.75,852.699282012735
1650,851.46366450341
1650.25,849.558063368769
1650.5,846.598876179747
1650.75,843.135516669198
1651,840.159157746968
1651.25,838.643058746064
1651.5,838.682622592503
1651.75,839.185108074622
1652,838.973381210874
1652.25,837.242273636438
1652.5,834.552682724028
1652.75,831.779028262656
1653,829.73007289865
1653.25,828.467427845998
1653.5,827.578213452153
1653.75,826.646043342151
1654,825.473810366312
1654.25,824.190704877357
1654.5,822.952457613928
1654.75,821.942583055943
1655,821.44297643819
1655.25,821.757298185492
1655.5,823.107581591063
1655.75,825.002495927438
1656,826.582168581335
1656.25,827.015987350506
1656.5,826.374181208036
1656.75,825.724738437285
1657,826.186694790916
1657.25,828.563673857991
1657.5,832.855190342261
1657.75,838.93447928997
1658,846.520035759926
1658.25,854.350859764436
1658.5,860.783833600524
1658.75,864.230711715923
1659,864.453686557652
1659.25,862.604488554401
1659.5,859.898402211892
1659.75,857.313237022768
1660,854.976893514695
1660.25,852.827210614872
1660.5,850.806102526879
1660.75,848.917141626844
1661,847.211715061529
1661.25,845.741893023798
1661.5,844.421289481338
1661.75,842.84515644978
1662,840.564166148417
1662.25,837.280249319282
1662.5,833.794225810416
1662.75,831.392100819435
1663,831.315790096832
1663.25,833.412507658523
1663.5,835.921161183509
1663.75,836.992603405912
1664,835.687981896796
1664.25,833.609070684039
1664.5,832.797432759832
1664.75,834.983473495825
1665,839.392214882313
1665.25,844.039877813476
1665.5,846.974315491842
1665.75,847.457389310864
1666,846.164837891802
1666.25,843.852094237158
1666.5,841.229611224126
1666.75,838.856431261637
1667,837.259771877353
1667.25,836.877626916429
1667.5,837.165648517272
1667.75,836.970843494349
1668,835.146119174081
1668.25,831.439455188216
1668.5,826.984283365552
1668.75,823.032991276986
1669,820.558276193072
1669.25,819.379724833875
1669.5,819.019796922677
1669.75,818.999359239553
1670,818.822720567423
1670.25,817.984368266654
1670.5,816.001468636449
1670.75,813.172360396189
1671,810.753024662819
1671.25,810.056192030359
1671.5,811.641012556751
1671.75,814.152113903579
1672,815.934597119858
1672.25,815.770879752522
1672.5,814.708650328102
1672.75,814.526851475127
1673,816.815286912625
1673.25,820.824364309137
1673.5,824.227777473802
1673.75,824.714120146132
1674,821.800029030932
1674.25,817.438038823619
1674.5,813.749365714705
1674.75,812.120641652673
1675,811.693515842475
1675.25,811.182263561044
1675.5,809.51598758849
1675.75,807.04684072711
1676,804.705613325105
1676.25,803.369350482098
1676.5,803.053956745747
1676.75,803.095743777175
1677,802.818496586104
1677.25,801.816010669216
1677.5,800.057123279294
1677.75,797.539233471348
1678,794.583112850133
1678.25,792.311268080311
1678.5,791.968322946607
1678.75,794.330437476385
1679,798.127965591984
1679.25,801.532949164794
1679.5,803.007658758578
1679.75,803.140133307547
1680,803.463688183923
1680.25,805.40619634742
1680.5,808.719723616147
1680.75,811.848825281538
1681,813.22895042443
1681.25,812.424516897945
1681.5,810.550184256105
1681.75,808.832306803586
1682,807.957610703823
1682.25,807.130665830541
1682.5,805.303810654822
1682.75,801.755568945541
1683,797.577427773767
1683.25,794.487106261358
1683.5,793.984592640797
1683.75,795.07277688505
1684,795.162749823503
1684.25,791.760310357152
1684.5,785.203213939186
1684.75,778.696649645546
1685,775.542036252694
1685.25,776.96113056912
1685.5,780.828803087695
1685.75,784.722800141617
1686,787.223069096666
1686.25,789.051657046904
1686.5,791.206246352784
1686.75,794.226159470231
1687,797.203901345922
1687.25,798.947208492344
1687.5,798.657173926975
1687.75,797.564440579982
1688,797.552315969248
1688.25,800.245725559738
1688.5,804.773913372196
1688.75,808.869739605023
1689,810.348880926022
1689.25,809.016084251046
1689.5,806.526808881947
1689.75,804.595073613272
1690,803.919416614905
1690.25,803.418866129643
1690.5,801.832720350715
1690.75,798.572590930164
1691,795.246659215813
1691.25,793.910981369024
1691.5,796.089832095839
1691.75,800.053031409798
1692,802.839712653927
1692.25,801.798894443551
1692.5,797.690817542431
1692.75,793.377244594159
1693,791.670367633278
1693.25,793.265157543233
1693.5,796.578724558715
1693.75,799.924954173794
1694,802.318175639871
1694.25,803.94715750917
1694.5,805.112904777025
1694.75,806.19533450703
1695,807.80335100459
1695.25,810.587158669128
1695.5,814.909497986448
1695.75,819.521029320833
1696,822.610818236849
1696.25,822.5242045604
1696.5,819.586641733247
1696.75,815.479677516167
1697,811.894255804208
1697.25,809.627193554977
1697.5,808.157754743819
1697.75,806.859673970999
1698,805.343929244167
1698.25,803.925642965359
1698.5,803.049970430486
1698.75,803.045863369775
1699,803.558335873256
1699.25,803.983013815601
1699.5,803.76963181724
1699.75,803.015493275797
1700,802.242596403278
1700.25,801.960951707981
1700.5,802.093173253422
1700.75,801.883040680963
1701,800.542139112103
1701.25,798.05815865772
1701.5,795.982509264846
1701.75,796.054371938412
1702,799.335314176028
1702.25,804.429619141843
1702.5,809.384729250321
1702.75,812.553270272528
1703,814.220831169577
1703.25,815.427502294065
1703.5,817.120169461434
1703.75,818.873970708094
1704,819.232428185627
1704.25,816.741051852756
1704.5,811.446451151935
1704.75,805.651075216449
1705,801.843083961569
1705.25,801.598859004713
1705.5,803.561607244532
1705.75,805.785863932956
1706,806.621141988394
1706.25,806.19315739209
1706.5,805.289255348827
1706.75,804.649206196402
1707,804.390865723903
1707.25,804.202640066821
1707.5,803.776752022747
1707.75,803.230626863014
1708,803.204115052498
1708.25,804.366565517764
1708.5,806.879272783154
1708.75,809.786614670148
1709,811.984385506693
1709.25,812.826438681468
1709.5,813.558390861746
1709.75,815.914161611162
1710,821.281116879433
1710.25,827.942320450554
1710.5,832.544367078327
1710.75,831.844402695831
1711,825.873560976327
1711.25,818.171517477138
1711.5,812.44748352473
1711.75,811.005384078396
1712,812.447795599398
1712.25,814.775091855761
1712.5,816.276771145755
1712.75,816.856558032748
1713,816.978155885537
1713.25,817.084954571096
1713.5,817.342091710985
1713.75,817.716646139884
1714,818.170634563572
1714.25,818.625693087084
1714.5,818.945427907061
1714.75,818.988978371981
1715,818.664656612593
1715.25,818.03130794378
1715.5,817.176484788247
1715.75,816.191684396487
1716,815.196291878661
1716.25,814.321712688305
1716.5,813.707327531371
1716.75,813.640802325403
1717,814.541321069688
1717.25,816.827002420911
1717.5,820.443523797782
1717.75,824.513891641848
1718,828.078616040187
1718.25,830.346890820295
1718.5,831.151851780463
1718.75,830.470864560733
1719,828.367648038606
1719.25,825.754569312127
1719.5,824.025819544806
1719.75,824.541644412678
1720,827.074006786665
1720.25,829.300159009456
1720.5,828.755032841882
1720.75,824.202397059206
1721,818.075355336418
1721.25,813.488903046674
1721.5,813.076793771663
1721.75,815.707881376178
1722,818.47851305244
1722.25,818.608423615391
1722.5,815.994402401044
1722.75,813.005760104138
1723,812.091867533456
1723.25,814.232860336205
1723.5,817.590639101272
1723.75,820.008171714617
1724,820.027145416036
1724.25,818.929354936884
1724.5,818.668196681001
1724.75,820.960585528458
1725,825.296753517493
1725.25,829.944895043844
1725.5,833.196383233695
1725.75,834.391996128193
1726,834.065935288618
1726.25,832.817089430159
1726.5,831.221468622964
1726.75,829.791471901739
1727,829.028531548928
1727.25,829.365908151771
1727.5,830.718008335371
1727.75,832.760675587247
1728,835.165140352516
1728.25,837.515630760322
1728.5,839.303495959586
1728.75,840.016127403775
1729,839.453207608566
1729.25,838.242971354082
1729.5,837.149520823188
1729.75,836.839129508981
1730,837.204466087979
1730.25,837.770632149789
1730.5,838.073601099416
1730.75,838.076099462405
1731,838.251679041625
1731.25,839.103928085722
1731.5,841.008750665608
1731.75,843.938783565053
1732,847.787244121106
1732.25,852.379043906168
1732.5,856.888514559089
1732.75,860.129658106859
1733,860.92934496924
1733.25,859.160308363159
1733.5,856.342386053876
1733.75,854.140187277321
1734,853.805477051676
1734.25,854.241008415592
1734.5,853.519887511042
1734.75,849.791050047467
1735,843.270862027496
1735.25,836.425969386992
1735.5,831.836274564669
1735.75,831.108508384753
1736,832.591877230138
1736.25,833.954783191866
1736.5,833.121732625776
1736.75,830.388053191971
1737,827.332609788292
1737.25,825.518775712896
1737.5,825.388535866673
1737.75,825.910714695052
1738,825.95436462385
1738.25,824.980495684819
1738.5,824.251790782942
1738.75,825.37245607463
1739,829.574947926354
1739.25,835.234742923836
1739.5,839.402664956743
1739.75,839.248561553015
1740,835.077905902803
1740.25,830.465898919333
1740.5,829.138497338229
1740.75,833.075680286808
1741,839.41998931824
1741.25,844.48308195584
1741.5,845.16188975236
1741.75,842.568268214522
1742,839.660781287547
1742.25,839.333296718811
1742.5,842.077924967768
1742.75,845.489173295563
1743,846.989013599104
1743.25,844.867043733924
1743.5,840.210345971792
1743.75,834.668749236786
1744,829.837671617959
1744.25,826.718843123781
1744.5,825.948639138955
1744.75,828.136094218896
1745,832.734682681834
1745.25,837.495362966122
1745.5,840.032601373351
1745.75,838.912811124451
1746,836.035810634111
1746.25,834.030629827417
1746.5,835.274273122581
1746.75,839.395920177883
1747,844.334708976869
1747.25,848.025942490638
1747.5,849.528126035986
1747.75,849.571355753868
1748,849.021707355293
1748.25,848.551235191887
1748.5,847.958600060809
1748.75,846.796812481431
1749,844.6553908192
1749.25,841.754616705468
1749.5,838.847418208412
1749.75,836.702075291857
1750,835.710762013569
1750.25,835.379922199156
1750.5,835.0885849732
1750.75,834.318589746125
1751,833.236242538259
1751.25,832.287435576449
1751.5,831.899579821857
1751.75,832.040849008161
1752,832.211651815674
1752.25,831.892141639962
1752.5,830.8276898193
1752.75,829.416860955425
1753,828.156984367132
1753.25,827.496805119245
1753.5,827.565868476243
1753.75,828.364889167054
1754,829.898083744419
1754.25,832.248777453931
1754.5,835.574377987891
1754.75,840.033868828984
1755,845.544719221001
1755.25,851.499284237723
1755.5,857.220948778435
1755.75,862.102562175971
1756,865.970810748764
1756.25,868.819548311844
1756.5,870.643344331605
1756.75,871.449237786601
1757,871.259581608361
1757.25,870.097667837133
1757.5,868.016001318327
1757.75,865.206425386633
1758,861.902281386927
1758.25,858.347871434667
1758.5,855.091540516279
1758.75,853.017794405067
1759,853.028531280785
1759.25,855.471652954741
1759.5,858.618013305818
1759.75,860.251786509502
1760,858.33706690987
1760.25,853.429650188338
1760.5,848.030276508195
1760.75,844.683768729156
1761,844.921477571719
1761.25,847.812013320357
1761.5,852.057105244358
1761.75,856.427876321206
1762,860.225427123592
1762.25,862.995262086295
1762.5,864.294465660421
1762.75,864.137023702053
1763,863.166089541937
1763.25,862.07065113106
1763.5,861.380222756611
1763.75,860.817482731133
1764,859.850542558207
1764.25,857.977208650983
1764.5,855.471882499229
1764.75,853.440003501731
1765,853.027672475615
1765.25,854.684464878969
1765.5,856.374361343954
1765.75,855.507122236282
1766,849.771905931526
1766.25,840.633951426935
1766.5,832.271397824282
1766.75,828.908458558915
1767,832.272333342132
1767.25,838.67651633087
1767.5,843.725790215795
1767.75,843.878618961862
1768,840.291649590186
1768.25,835.729153049043
1768.5,832.860525162485
1768.75,832.320776502915
1769,832.805846449147
1769.25,832.937009748983
1769.5,832.017364101332
1769.75,830.948195194451
1770,830.85948583617
1770.25,832.610053938604
1770.5,835.350514326801
1770.75,837.568028369269
1771,837.817749048158
1771.25,836.069288047025
1771.5,833.611857584076
1771.75,831.783365195082
1772,831.391219519198
1772.25,831.971641373116
1772.5,832.87440537712
1772.75,833.510864446508
1773,833.684893852939
1773.25,833.354483976109
1773.5,832.48642559325
1773.75,831.228661084149
1774,829.903415268251
1774.25,828.839663232244
1774.5,828.283593482044
1774.75,828.287576296262
1775,828.876284418864
1775.25,830.061224797528
1775.5,831.775088732543
1775.75,833.921368589078
1776,836.370789538806
1776.25,838.395255973158
1776.5,838.742541117296
1776.75,836.150551888765
1777,830.80483273131
1777.25,826.022070796081
1777.5,825.527726916279
1777.75,832.080641256063
1778,842.584862654434
1778.25,851.751585759684
1778.5,854.561042913842
1778.75,850.816520406107
1779,844.453077835135
1779.25,839.536377421707
1779.5,838.625360439318
1779.75,840.330502044171
1780,842.62337433902
1780.25,843.65637022847
1780.5,842.991924684262
1780.75,840.854479104891
1781,837.482489940362
1781.25,833.485077047383
1781.5,829.938578727709
1781.75,827.949092304564
1782,828.147328964387
1782.25,829.553385159122
1782.5,830.846592403813
1782.75,830.869648458101
1783,829.917916985744
1783.25,829.047978452186
1783.5,829.298029079932
1783.75,830.835649647903
1784,832.754419183707
1784.25,834.081934190599
1784.5,834.252946250188
1784.75,833.898851035475
1785,833.869772445431
1785.25,834.853982352112
1785.5,836.211728392194
1785.75,836.65222384465
1786,834.927522388843
1786.25,831.324804108088
1786.5,827.965339590323
1786.75,827.077588136743
1787,829.918408977501
1787.25,834.753839315893
1787.5,839.276293802159
1787.75,841.431994019158
1788,841.168114025507
1788.25,839.380090313251
1788.5,836.963445652097
1788.75,834.619565586274
1789,832.8106126134
1789.25,831.983928817354
1789.5,832.304228824399
1789.75,833.013920565995
1790,833.167582392138
1790.25,831.933792676871
1790.5,829.506342449632
1790.75,826.621216420127
1791,824.015751759002
1791.25,822.294936545537
1791.5,821.895547830273
1791.75,823.243163210505
1792,826.41841600582
1792.25,830.501769349471
1792.5,834.393445268716
1792.75,837.118682124393
1793,838.579386185553
1793.25,839.052621343364
1793.5,838.820570796073
1793.75,838.260657981507
1794,837.851563780395
1794.25,838.076457942019
1794.5,839.087368808017
1794.75,840.109690862711
1795,840.20797046378
1795.25,838.607562924303
1795.5,835.849606430994
1795.75,833.118756739914
1796,831.577574179938
1796.25,831.410432907192
1796.5,831.559855232058
1796.75,830.888346011838
1797,828.588561812048
1797.25,824.891065563416
1797.5,820.229854074315
1797.75,815.168267031294
1798,811.369953334258
1798.25,811.054493228678
1798.5,816.307692885976
1798.75,825.73669413186
1799,834.292660491864
1799.25,836.775917694193
1799.5,831.406465041192
1799.75,823.441550404637
1800,819.00506921232
1800.25,822.948159298623
1800.5,832.827370269107
1800.75,843.605109282029
1801,850.470851362996
1801.25,851.989154814177
1801.5,849.287708469186
1801.75,843.560000103177
1802,836.318902209574
1802.25,829.756402913489
1802.5,826.151405546084
1802.75,827.283114748701
1803,831.649862393315
1803.25,836.426595839675
1803.5,838.889493942546
1803.75,838.387581486616
1804,836.169868370694
1804.25,833.554552038487
1804.5,831.572505975952
1804.75,830.579168356598
1805,830.833009652576
1805.25,832.4590754528
1805.5,834.728623152236
1805.75,836.576502133111
1806,836.979711184399
1806.25,835.810033647052
1806.5,833.785046983762
1806.75,831.655526217186
1807,830.185067123025
1807.25,830.168075976375
1807.5,832.403492686197
1807.75,837.359345002673
1808,843.387553968487
1808.25,848.006763037221
1808.5,848.846359186723
1808.75,845.968474387102
1809,841.781995177977
1809.25,838.790301799815
1809.5,838.602234721788
1809.75,840.303562680798
1810,842.538408642127
1810.25,844.04380052332
1810.5,844.33396658903
1810.75,843.310373253556
1811,840.893869347312
1811.25,837.68829966353
1811.5,835.208398516709
1811.75,835.032208274681
1812,838.021754157922
1812.25,842.358469760745
1812.5,845.596606874255
1812.75,845.531495299753
1813,842.609164748657
1813.25,838.916334261817
1813.5,836.550248408743
1813.75,836.520052718981
1814,837.981628259742
1814.25,839.910221502008
1814.5,841.459691327878
1814.75,842.613410621459
1815,843.595384089816
1815.25,844.61536025189
1815.5,845.661019608044
1815.75,846.544709270058
1816,847.074713073215
1816.25,847.1850220534
1816.5,847.079004769784
1816.75,846.994819018639
1817,847.13492829951
1817.25,847.459343161219
1817.5,847.827232157582
1817.75,848.099672226932
1818,848.207782933786
1818.25,848.16491202199
1818.5,847.989111192599
1818.75,847.796283423458
1819,848.042726636149
1819.25,849.258709671714
1819.5,851.892723133177
1819.75,855.400180748787
1820,858.5750737438
1820.25,860.206305526401
1820.5,859.879934065211
1820.75,858.709956766716
1821,857.98312756753
1821.25,858.742949134997
1821.5,860.318575734169
1821.75,861.302259729016
1822,860.320620543012
1822.25,857.604370559214
1822.5,855.563786560205
1822.75,856.764860581633
1823,862.86701541298
1823.25,871.173715895984
1823.5,877.681737375538
1823.75,878.55835877939
1824,873.700936319748
1824.25,866.630521445777
1824.5,861.017635495651
1824.75,859.640461929458
1825,861.655691882928
1825.25,865.301418354801
1825.5,868.856611554234
1825.75,871.347690458331
1826,872.454936454399
1826.25,871.880818150172
1826.5,869.617992224624
1826.75,866.564667691892
1827,863.795199232752
1827.25,862.320244598724
1827.5,862.179734715835
1827.75,862.657211281817
1828,863.016722073173
1828.25,862.772145228684
1828.5,862.091782014463
1828.75,861.249778177886
1829,860.493270368017
1829.25,859.782145292468
1829.5,858.902917772586
1829.75,857.641743389954
1830,856.037316901457
1830.25,854.622037202922
1830.5,853.985480821664
1830.75,854.591194398696
1831,856.016789166172
1831.25,857.459929774686
1831.5,858.135696170265
1831.75,857.993793774453
1832,857.938853676017
1832.25,858.939388778072
1832.5,861.533367291488
1832.75,864.361951919068
1833,865.544109554362
1833.25,863.306780594974
1833.5,858.024736880142
1833.75,852.049037972852
1834,847.804072827189
1834.25,846.80124780714
1834.5,847.605970135084
1834.75,848.190556827298
1835,846.75559722358
1835.25,844.03053483363
1835.5,842.318957804599
1835.75,843.927739548803
1836,849.414720933492
1836.25,856.276227100629
1836.5,861.699520122458
1836.75,863.400207858472
1837,861.814203357934
1837.25,858.250434636077
1837.5,854.009932404371
1837.75,850.1710078542
1838,847.570021629846
1838.25,847.031142580288
1838.5,848.914013222273
1838.75,851.951114205355
1839,854.518850264393
1839.25,855.106650489748
1839.5,853.568007707623
1839.75,850.660872370219
1840,847.159765597411
1840.25,843.889291345829
1840.5,841.775011772556
1840.75,841.754620608561
1841,844.432688344167
1841.25,848.275721709455
1841.5,850.905477256989
1841.75,850.026762962966
1842,845.535268636167
1842.25,839.655355268349
1842.5,834.723949626788
1842.75,832.587277040283
1843,833.511555272094
1843.25,837.445609361364
1843.5,844.139393153584
1843.75,851.508709900007
1844,856.47934848549
1844.25,856.034629629412
1844.5,850.16567672017
1844.75,843.016931898646
1845,839.036623392475
1845.25,841.396813014831
1845.5,847.317991989124
1845.75,852.287041676228
1846,852.100637770276
1846.25,847.325295653961
1846.5,842.267758928113
1846.75,841.326207781226
1847,846.488570330372
1847.25,854.070626116856
1847.5,859.572845932175
1847.75,859.186360023192
1848,853.935087239297
1848.25,846.907117262068
1848.5,841.171932685667
1848.75,838.621950438548
1849,839.525790270369
1849.25,844.033466980749
1849.5,851.667865420718
1849.75,859.482701940914
1850,863.924084747255
1850.25,861.764074072055
1850.5,854.127187148602
1850.75,845.238862453665
1851,839.385418393585
1851.25,839.106895024588
1851.5,842.743903801479
1851.75,848.018666075573
1852,852.838044307476
1852.25,856.415931222987
1852.5,858.53023697813
1852.75,858.977570075685
1853,858.133173840341
1853.25,857.090066073516
1853.5,856.985971175132
1853.75,858.614674066147
1854,861.316251259816
1854.25,864.046772925783
1854.5,865.802079328184
1854.75,866.2976420445
1855,865.874413743741
1855.25,864.894108418882
1855.5,863.615811242078
1855.75,861.988050096765
1856,859.900836259271
1856.25,857.264089875575
1856.5,854.249068928626
1856.75,851.211012175027
1857,848.508738509321
1857.25,846.445034409361
1857.5,845.196941229662
1857.75,844.924372564612
1858,845.715453542765
1858.25,847.131137985234
1858.5,848.497420127156
1858.75,849.150438774549
1859,848.810763474345
1859.25,847.670226781477
1859.5,845.949479684276
1859.75,843.930244542295
1860,842.120116806929
1860.25,841.078899215635
1860.5,841.301398769004
1860.75,842.455642079322
1861,843.640367980563
1861.25,843.950110455395
1861.5,843.132987523152
1861.75,842.112080645488
1862,841.933163978358
1862.25,843.342536053829
1862.5,845.4783037501
1862.75,846.9410663596
1863,846.410555749794
1863.25,844.130385782482
1863.5,841.773672484753
1863.75,841.064337188306
1864,842.888488133896
1864.25,845.956683616581
1864.5,848.63092554533
1864.75,849.463327832844
1865,848.492424374434
1865.25,846.45619653566
1865.5,844.09298505856
1865.75,841.984500797164
1866,840.501700737526
1866.25,840.00069918631
1866.5,840.59217529468
1866.75,841.424649834106
1867,841.410902279451
1867.25,839.593247994929
1867.5,836.633907219707
1867.75,834.297035128551
1868,834.352590521545
1868.25,837.205057880265
1868.5,840.834479133014
1868.75,842.971670912083
1869,841.97003737279
1869.25,839.103882595552
1869.5,836.503356187547
1869.75,836.167014619413
1870,837.913587846625
1870.25,839.769916912877
1870.5,839.717546248004
1870.75,836.898582171743
1871,832.829840853449
1871.25,829.318617374822
1871.5,827.816761350455
1871.75,827.675620328544
1872,827.477719436535
1872.25,825.880231376042
1872.5,822.90302134547
1872.75,819.745697506985
1873,817.643225248503
1873.25,817.381494745036
1873.5,818.86769486699
1873.75,821.907139899155
1874,826.158759700481
1874.25,830.650997505526
1874.5,834.24258824768
1874.75,835.919232067128
1875,836.036736774162
1875.25,835.787036576628
1875.5,836.357003512379
1875.75,838.010328032005
1876,839.63278733859
1876.25,839.997615602755
1876.5,838.304003533965
1876.75,835.436833262875
1877,832.697924243095
1877.25,831.309526265705
1877.5,831.487092436358
1877.75,832.755452591871
1878,834.623417398794
1878.25,836.42787878282
1878.5,837.226377614033
1878.75,836.050853855734
1879,832.338265499018
1879.25,827.246982665609
1879.5,822.392628434106
1879.75,819.31474695203
1880,818.561675658678
1880.25,819.987631833934
1880.5,823.424337736118
1880.75,828.271220050312
1881,833.290022804626
1881.25,837.19134211748
1881.5,839.097377878496
1881.75,839.49025139498
1882,839.13255240911
1882.25,838.781056398963
1882.5,839.135767938059
1882.75,840.864623863014
1883,844.615628002207
1883.25,850.06078530497
1883.5,855.463451938862
1883.75,858.977214956988
1884,859.257615921976
1884.25,857.040338446356
1884.5,853.599829224893
1884.75,850.188533406752
1885,847.658360140544
1885.25,846.511783325121
1885.5,847.238285574221
1885.75,849.700305136661
1886,852.121951195779
1886.25,852.463086363053
1886.5,849.029111786507
1886.75,843.069309411259
1887,837.322210427581
1887.25,834.503561360383
1887.5,835.477861426878
1887.75,838.35382977835
1888,841.015932736964
1888.25,841.812429558319
1888.5,840.899687993776
1888.75,838.874634098737
1889,836.351475641447
1889.25,834.162272795017
1889.5,833.288127988333
1889.75,834.701304105927
1890,838.410209653367
1890.25,842.756957457567
1890.5,845.918100694729
1890.75,846.528300666328
1891,845.308629147055
1891.25,843.573815990224
1891.5,842.587367114989
1891.75,842.756725946254
1892,843.781647296418
1892.25,845.340178788332
1892.5,847.015404425954
1892.75,848.179079499709
1893,848.174449825577
1893.25,846.505425367288
1893.5,843.786427049972
1893.75,841.101035554995
1894,839.510208045997
1894.25,839.27465348427
1894.5,839.691908694935
1894.75,840.002365810808
1895,839.742183579678
1895.25,839.4099305151
1895.5,839.69959626715
1895.75,841.181655283748
1896,843.191695310313
1896.25,844.354693570953
1896.5,843.313319783731
1896.75,840.116154476223
1897,836.900252443741
1897.25,835.972125601356
1897.5,838.969718806619
1897.75,844.634056723956
1898,850.921713494816
1898.25,855.866363047653
1898.5,858.531058851763
1898.75,858.712079463887
1899,856.226048086299
1899.25,851.679319898272
1899.5,847.356212307152
1899.75,845.755604360685
1900,848.868787783975
1900.25,854.807438920863
1900.5,859.89290416652
1900.75,860.514980680701
1901,855.999262581008
1901.25,849.428876501619
1901.5,844.132499585476
1901.75,842.677776569165
1902,844.217388277595
1902.25,846.946543562332
1902.5,849.131149003269
1902.75,850.157638764774
1903,850.307862238578
1903.25,849.888440792673
1903.5,849.150843807563
1903.75,848.221349840211
1904,847.208961693546
1904.25,846.254030409534
1904.5,845.733158449862
1904.75,846.130651265067
1905,847.906559224088
1905.25,850.590048153814
1905.5,852.519974317002
1905.75,851.957525098165
1906,847.930029409657
1906.25,842.367687892092
1906.5,837.888106948706
1906.75,836.939041054096
1907,839.526159068794
1907.25,843.824784066673
1907.5,847.971819116378
1907.75,850.737141318727
1908,852.079479392277
1908.25,852.088668854278
1908.5,850.892201923006
1908.75,848.837953661574
1909,846.353732186699
1909.25,843.868488250952
1909.5,841.839089115113
1909.75,840.7528797027
1910,841.098557418185
1910.25,842.984934326757
1910.5,845.346209929562
1910.75,846.890257881298
1911,846.50246058291
1911.25,844.763506138176
1911.5,843.195082835617
1911.75,843.313360679254
1912,845.708345189736
1912.25,849.539254474704
1912.5,853.842783688662
1912.75,857.703212033843
1913,860.417741675452
1913.25,861.343106600448
1913.5,859.896817383181
1913.75,856.629394305361
1914,853.094275688
1914.25,850.878904219128
1914.5,850.795742138687
1914.75,851.373261729021
1915,850.721250994563
1915.25,847.198216230139
1915.5,841.740520271135
1915.75,836.809970046095
1916,834.866647821939
1916.25,836.683341680567
1916.5,840.164575900535
1916.75,842.936009257237
1917,843.157292744807
1917.25,841.403811768752
1917.5,838.933751493107
1917.75,836.962926414311
1918,836.038901702567
1918.25,836.177058760971
1918.5,837.376315621504
1918.75,839.395044645706
1919,841.504944172684
1919.25,842.918975854662
1919.5,843.083900722007
1919.75,842.761435180573
1920,843.172650761021
1920.25,845.471408613027
1920.5,849.361071770922
1920.75,853.151255470028
1921,855.096869709077
1921.25,854.33664447154
1921.5,852.351847261868
1921.75,851.007462162682
1922,851.912816498988
1922.25,854.209812285909
1922.5,855.659325481412
1922.75,854.034020230262
1923,848.952099326408
1923.25,843.032148387766
1923.5,839.167910736961
1923.75,839.525086743946
1924,842.278127784634
1924.25,844.240804830337
1924.5,842.405813747045
1924.75,837.227472902235
1925,832.281346490087
1925.25,831.249338945164
1925.5,835.883852636028
1925.75,843.167760983392
1926,849.359849359674
1926.25,851.332904929433
1926.5,849.959546402506
1926.75,847.714306962252
1927,847.020524493449
1927.25,848.578238645133
1927.5,851.071207652619
1927.75,853.068733993109
1928,853.567018325258
1928.25,853.024094944858
1928.5,852.210644302319
1928.75,851.844188545166
1929,851.960466057039
1929.25,852.12302335114
1929.5,851.886775149319
1929.75,850.927052810252
1930,849.16488817213
1930.25,846.551267271905
1930.5,843.158532030091
1930.75,839.889468608149
1931,837.994570384793
1931.25,838.672319772954
1931.5,841.471560669883
1931.75,844.012863038664
1932,843.808119165427
1932.25,839.610951142545
1932.5,833.993364673756
1932.75,830.258924323709
1933,831.328279414423
1933.25,836.335476466998
1933.5,842.254186922915
1933.75,846.076150769926
1934,846.552802968308
1934.25,844.767388265154
1934.5,841.96369468417
1934.75,839.240421595463
1935,837.137304705506
1935.25,836.059490845281
1935.5,836.357153959493
1935.75,837.687365326407
1936,839.232957560288
1936.25,840.172865877066
1936.5,840.095216192573
1936.75,839.28050099645
1937,838.076123585789
1937.25,836.768681962087
1937.5,835.354121802768
1937.75,833.741642759557
1938,831.865783522316
1938.25,830.057800166243
1938.5,828.963462918233
1938.75,829.232333313456
1939,830.965934107716
1939.25,833.221303575567
1939.5,834.938205247018
1939.75,835.24683557651
1940,834.187085896926
1940.25,832.070177248065
1940.5,829.248077124646
1940.75,826.679286943161
1941,825.78796953714
1941.25,827.995809384304
1941.5,833.373682024827
1941.75,839.556171659038
1942,843.922415454503
1942.25,844.591919523812
1942.5,842.932908283852
1942.75,841.204427406469
1943,841.511176036249
1943.25,843.584940461071
1943.5,845.298027430184
1943.75,844.483645815273
1944,840.576126309052
1944.25,836.302065649113
1944.5,834.793123738536
1944.75,838.455378489017
1945,845.107553723733
1945.25,850.780749994895
1945.5,851.675852726212
1945.75,847.819970726521
1946,842.973305336678
1946.25,841.049888973559
1946.5,844.218335147713
1946.75,849.483965204437
1947,852.901900667999
1947.25,851.067593213578
1947.5,845.479268724893
1947.75,840.246877240534
1948,839.460831218039
1948.25,844.427985991127
1948.5,852.051271497266
1948.75,858.844138967668
1949,862.021696648074
1949.25,861.872597984604
1949.5,859.526838280845
1949.75,856.104569679868
1950,852.531392014219
1950.25,849.554780910842
1950.5,847.915311054447
1950.75,847.937266915537
1951,848.714765734867
1951.25,849.115786999175
1951.5,848.156211127754
1951.75,846.326818346648
1952,844.965412897064
1952.25,845.404391912357
1952.5,847.902992451098
1952.75,850.968762307377
1953,852.947752731753
1953.25,852.496840311243
1953.5,849.788755976769
1953.75,845.457639866936
1954,840.16307654935
1954.25,835.090908350216
1954.5,831.923661019338
1954.75,832.360587920255
1955,836.90607210755
1955.25,842.994861940126
1955.5,847.575597533195
1955.75,848.103812686696
1956,845.524128536971
1956.25,842.249731656162
1956.5,840.646484776587
1956.75,841.364961649278
1957,842.998330317831
1957.25,844.018318788644
1957.5,843.440590530557
1957.75,842.064875093517
1958,841.056116476659
1958.25,841.480559834882
1958.5,843.351015969677
1958.75,846.042761186802
1959,848.921069239309
1959.25,851.280772964806
1959.5,852.305537800381
1959.75,851.169230695183
1960,847.443273727921
1960.25,842.634552265023
1960.5,838.838083802649
1960.75,838.041427783774
1961,840.081193194859
1961.25,842.808845483971
1961.5,844.005098736762
1961.75,842.471691895365
1962,839.428459732238
1962.25,836.445289272142
1962.5,834.916589268836
1962.75,834.951821463825
1963,836.08917248274
1963.25,837.858247244347
1963.5,839.620335618999
1963.75,840.549380881508
1964,839.810142176073
1964.25,837.187045530415
1964.5,834.247427313338
1964.75,832.877326958299
1965,834.680761815684
1965.25,838.816090320478
1965.5,843.186212130329
1965.75,845.722548686358
1966,845.706582915815
1966.25,844.087437702165
1966.5,841.917416521071
1966.75,840.066948830513
1967,838.759634143627
1967.25,838.075338681111
1967.5,838.068014088254
1967.75,838.495378845292
1968,838.926392011342
1968.25,838.931432161142
1968.5,838.377536650646
1968.75,837.609053942978
1969,837.013506005268
1969.25,836.872562276807
1969.5,836.995382243005
1969.75,837.059332099264
1970,836.752129426643
1970.25,835.907321938358
1970.5,834.466217544476
1970.75,832.377671226322
1971,830.104347085218
1971.25,829.059872239259
1971.5,830.760856560029
1971.75,836.117525227063
1972,843.096871965304
1972.25,848.774171603277
1972.5,850.432502843055
1972.75,848.327024810434
1973,844.931145736745
1973.25,842.765345166343
1973.5,843.230907018167
1973.75,845.313170055257
1974,847.682794551816
1974.25,849.154156608751
1974.5,849.477608507335
1974.75,848.778268890435
1975,847.194956283981
1975.25,845.244720104001
1975.5,843.877887382023
1975.75,844.06849262924
1976,846.323853249499
1976.25,849.572385710713
1976.5,852.408953622949
1976.75,853.534120714634
1977,852.819190247674
1977.25,850.864111883484
1977.5,848.279896463656
1977.75,845.6837558178
1978,843.704360666673
1978.25,842.971620237973
1978.5,843.919581710413
1978.75,845.828768345263
1979,847.558833419506
1979.25,848.016120004366
1979.5,847.193378186511
1979.75,846.168869682784
1980,846.067553096314
1980.25,847.557067541401
1980.5,849.979086740594
1980.75,852.436338820424
1981,854.107173207773
1981.25,854.88736013432
1981.5,855.06877343185
1981.75,854.943742399222
1982,854.544977852386
1982.25,853.479721535549
1982.5,851.315781126535
1982.75,847.770142811246
1983,843.385106156395
1983.25,838.986793745823
1983.5,835.389080824965
1983.75,833.102286880133
1984,832.324075661379
1984.25,833.237135787957
1984.5,835.682031274529
1984.75,838.596127045733
1985,840.769472137725
1985.25,841.195651335802
1985.5,840.330625574419
1985.75,839.269760549033
1986,839.090099978567
1986.25,840.233000700551
1986.5,842.405757179602
1986.75,845.27476941637
1987,848.35692268951
1987.25,850.710222794907
1987.5,851.304934695323
1987.75,849.298454765589
1988,845.720231592103
1988.25,842.677491162073
1988.5,842.290473710631
1988.75,846.685520523813
1989,857.999173197595
1989.25,878.368943844726
1989.5,908.302585831303
1989.75,940.433424487717
1990,965.019703802988
1990.25,972.553150205939
1990.5,961.758330779803
1990.75,941.580547431134
1991,921.602493629942
1991.25,910.993302799345
1991.5,910.602723728159
1991.75,913.574186612707
1992,912.76040007733
1992.25,903.149933444035
1992.5,892.420830235739
1992.75,892.919008922423
1993,916.93999145307
1993.25,967.343112784416
1993.5,1027.15983571809
1993.75,1076.91898321358
1994,1098.21590831835
1994.25,1089.55344724724
1994.5,1062.95297634806
1994.75,1030.81396383265
1995,1005.50193599873
1995.25,994.07972408182
1995.5,992.596045460484
1995.75,995.728238708513
1996,998.161329434681
1996.25,996.549309454439
1996.5,992.118829463104
1996.75,986.744084094601
1997,982.294755655937
1997.25,979.604303002599
1997.5,977.153858164801
1997.75,973.099914970356
1998,965.612849122185
1998.25,954.360090359794
1998.5,941.823167742225
1998.75,930.794267355839
1999,924.013210330058
1999.25,922.058471764345
1999.5,922.625923108129
1999.75,923.211059186438
2000,921.543858043211
2000.25,917.896736409635
2000.5,914.099297309167
2000.75,912.003606557309
2001,912.905325312357
2001.25,915.835127003809
2001.5,919.247422377728
2001.75,921.611702256375
2002,922.223603524502
2002.25,921.615995547159
2002.5,920.423272261505
2002.75,919.235753062423
2003,918.123206780113
2003.25,916.815635793126
2003.5,915.037200614853
2003.75,912.609585189075
2004,909.765734541611
2004.25,906.846984828241
2004.5,904.185053820373
2004.75,901.486658739255
2005,897.461193518275
2005.25,890.728832229513
2005.5,880.177192800964
2005.75,867.430451260605
2006,855.716157941894
2006.25,848.278256983213
2006.5,846.635249944095
2006.75,847.877778484839
2007,848.396117020117
2007.25,845.043473766349
2007.5,838.639840064358
2007.75,832.021503915179
2008,828.002460291014
2008.25,827.52481016607
2008.5,828.84775158506
2008.75,830.023506916169
2009,829.483503814034
2009.25,826.977603081653
2009.5,822.542017838807
2009.75,816.346701735975
2010,809.819873306294
2010.25,805.079858733161
2010.5,804.18122217163
2010.75,807.012860641045
2011,810.950289554648
2011.25,813.237053671936
2011.5,812.487528938692
2011.75,810.152526829438
2012,808.034432671423
2012.25,807.454106520634
2012.5,807.656939296559
2012.75,807.329261571266
2013,805.30049677866
2013.25,801.674319732961
2013.5,797.222895867935
2013.75,792.709774008432
2014,788.58725453444
2014.25,785.008529250584
2014.5,782.107511249823
2014.75,779.593047792661
2015,776.518615475105
2015.25,771.886689719015
2015.5,765.709318826872
2015.75,760.229790076851
2016,757.988890035359
2016.25,760.405631865651
2016.5,765.675422602058
2016.75,771.418409887955
2017,775.827125807981
2017.25,778.900379472739
2017.5,780.99240561371
2017.75,782.324370171477
2018,782.578058534336
2018.25,781.298610956975
2018.5,778.182586951546
2018.75,773.819972679952
2019,769.127290779269
2019.25,764.90831377307
2019.5,760.973705459793
2019.75,756.619563232578
2020,751.240198824677
2020.25,745.383652292634
2020.5,740.324386275477
2020.75,737.212719815877
2021,735.560617867399
2021.25,733.792082860485
2021.5,730.471398822636
2021.75,725.813704634581
2022,721.008304605811
2022.25,717.1203389677
2022.5,714.093344399208
2022.75,711.321253310381
2023,708.354751932886
2023.25,705.645153717776
2023.5,703.957624696919
2023.75,703.650578196832
2024,703.655467012147
2024.25,702.595989846522
2024.5,699.816569229092
2024.75,696.148341315093
2025,692.590575056704
2025.25,689.594687361021
2025.5,686.930092090587
2025.75,684.325918093188
2026,681.542396115406
2026.25,678.361283302773
2026.5,674.658975282616
2026.75,670.827166860368
2027,667.432004392744
2027.25,664.819585041242
2027.5,662.822661667591
2027.75,661.187311242778
2028,659.36295818003
2028.25,656.511847629523
2028.5,652.309169756177
2028.75,649.595276849725
2029,652.344054355072
2029.25,658.216179189002
2029.5,652.284204288965
2029.75,621.600024557073
2030,598.317018880119
2030.25,646.097361256516
2030.5,645.878205820116
2030.75,645.659050383717
2031,645.439894947317
2031.25,645.220739510917
2031.5,645.001584074518
2031.75,644.782428638118
2032,644.563273201718
2032.25,644.344117765319
2032.5,644.124962328919
2032.75,643.905806892519
2033,643.68665145612
2033.25,643.46749601972
2033.5,643.24834058332
2033.75,643.029185146921
2034,642.810029710521
2034.25,642.590874274121
2034.5,642.371718837722
2034.75,642.152563401322
2035,641.933407964922
2035.25,641.714252528523
2035.5,641.495097092123
2035.75,641.275941655723
2036,641.056786219324
2036.25,640.837630782924
2036.5,640.618475346524
2036.75,640.399319910125
2037,640.180164473725
2037.25,639.961009037325
2037.5,639.741853600926
2037.75,639.522698164526
2038,639.303542728126
2038.25,639.084387291727
2038.5,638.865231855327
2038.75,638.646076418927
2039,638.426920982528
2039.25,638.207765546128
2039.5,637.988610109728
2039.75,637.769454673329
2040,637.550299236929
2040.25,637.331143800529
2040.5,637.11198836413
2040.75,636.89283292773
2041,636.67367749133
2041.25,636.454522054931
2041.5,636.235366618531
2041.75,636.016211182131
2042,635.797055745732
2042.25,635.577900309332
2042.5,635.358744872932
2042.75,635.139589436533
2043,634.920434000133
2043.25,634.701278563733
2043.5,634.482123127334
2043.75,634.262967690934
2044,634.043812254534
2044.25,633.824656818135
2044.5,633.605501381735
2044.75,633.386345945336
2045,633.167190508936
2045.25,632.948035072536
2045.5,632.728879636137
2045.75,632.509724199737
2046,632.290568763337
2046.25,632.071413326938
2046.5,631.852257890538
2046.75,631.633102454138
2047,631.413947017738
2047.25,631.194791581339
2047.5,630.975636144939
2047.75,630.756480708539
2048,630.53732527214
2048.25,630.31816983574
2048.5,630.09901439934
2048.75,629.879858962941
2049,629.660703526541
2049.25,629.441548090142
2049.5,629.222392653742
2049.75,629.003237217342
2050,628.784081780943
2050.25,628.564926344543
2050.5,628.345770908143
2050.75,628.126615471744
2051,627.907460035344
2051.25,627.688304598944
2051.5,627.469149162545
2051.75,627.249993726145
2052,629.056260602058
2052.25,630.078923949468
2052.5,629.937942890332
2052.75,629.241256051353
2053,628.716018049556
2053.25,628.66076782846
2053.5,629.075952121513
2053.75,629.872194713121
2054,630.727018613991
2054.25,631.289422160167
2054.5,631.378673460364
2054.75,630.94288287704
2055,630.061797307231
2055.25,629.216681370221
2055.5,628.919516186693
2055.75,628.840835298802
2056,627.929521740582
2056.25,625.521845914627
2056.5,622.399334234962
2056.75,619.626057795619
2057,617.564150764353
2057.25,615.928205418172
2057.5,614.496738283009
2057.75,613.354677120905
2058,612.625936183791
2058.25,611.993319694725
2058.5,610.785176384803
2058.75,608.711510104168
2059,606.545764660907
2059.25,605.152749852929
2059.5,604.453478021707
2059.75,603.794609474654
2060,602.737464480508
2060.25,601.260947243765
2060.5,599.444564555973
2060.75,597.715977432903
2061,596.623125940655
2061.25,596.21892891195
2061.5,595.981900607816
2061.75,595.533394650724
2062,595.088025292827
2062.25,594.950551203448
2062.5,595.020544126942
2062.75,594.940003562105
2063,594.394283984023
2063.25,593.151166009107
2063.5,591.11684188783
2063.75,588.877465257651
2064,587.199121454151
2064.25,586.052985350624
2064.5,584.694966559756
2064.75,582.816191438339
2065,581.172703763802
2065.25,580.479589011371
2065.5,580.238454464465
2065.75,579.513637617805
2066,578.152016480587
2066.25,576.736273469373
2066.5,575.69382025813
2066.75,575.046117666913
2067,574.706757276886
2067.25,574.2956801482
2067.5,573.366506412406
2067.75,571.986012261625
2068,570.618558584008
2068.25,569.593620688782
2068.5,568.994094640555
2068.75,568.833181950346
2069,568.94942927669
2069.25,569.135969110166
2069.5,569.151848608829
2069.75,568.754558483637
2070,568.15320441932
2070.25,568.051084217057
2070.5,568.662966925143
2070.75,569.017842947376
2071,568.220500508878
2071.25,566.624514992557
2071.5,564.9579017749
2071.75,563.610194899445
2072,562.732264848093
2072.25,562.281695779452
2072.5,561.955352256689
2072.75,561.530061753207
2073,561.057001795748
2073.25,560.615566996381
2073.5,560.175390289343
2073.75,559.67714304882
2074,559.201615200231
2074.25,558.92560313837
2074.5,558.90321423148
2074.75,559.023123917997
2075,559.135974906719
2075.25,559.025162728516
2075.5,558.557380657121
2075.75,558.07571314373
2076,558.040455326886
2076.25,558.544038719824
2076.5,559.447237075468
2076.75,560.451147300105
2077,561.08240624265
2077.25,561.293748931771
2077.5,561.965703692962
2077.75,563.650728567585
2078,564.960337936327
2078.25,564.222655910816
2078.5,562.071375668908
2078.75,560.370861523566
2079,559.869801145607
2079.25,560.079749244875
2079.5,560.541943899883
2079.75,560.993045616274
2080,561.217740129263
2080.25,561.099443067028
2080.5,560.593834430012
2080.75,560.076060070023
2081,560.118738432582
2081.25,560.66918741395
2081.5,561.039491068003
2081.75,560.956797924898
2082,561.003022201381
2082.25,561.671998545567
2082.5,562.736237703553
2082.75,563.813016680168
2083,564.687324318375
2083.25,565.239011145341
2083.5,565.608805237031
2083.75,566.185274132325
2084,566.937365208811
2084.25,567.006433292253
2084.5,565.810190918914
2084.75,564.296603382283
2085,563.673650365619
2085.25,563.853927337778
2085.5,564.048407322598
2085.75,563.997924111386
2086,564.031140885438
2086.25,564.374616629894
2086.5,564.967925240243
2086.75,565.656492551976
2087,566.025940275611
2087.25,565.670805187404
2087.5,565.068347226119
2087.75,565.199446225202
2088,566.186279737092
2088.25,567.111585100734
2088.5,567.471939544261
2088.75,567.920019276508
2089,569.084987132821
2089.25,570.542146100823
2089.5,571.556262459147
2089.75,571.957741855962
2090,571.976871261945
2090.25,571.691996169946
2090.5,570.940694592277
2090.75,569.672669012312
2091,568.281576956632
2091.25,567.23623542678
2091.5,566.859591917045
2091.75,567.378369829819
2092,568.428425991974
2092.25,569.061409604305
2092.5,568.776489384215
2092.75,568.032724051184
2093,567.351157841103
2093.25,567.006280367469
2093.5,567.171746201382
2093.75,567.685757869718
2094,568.188567855019
2094.25,568.581213500048
2094.5,569.09127283316
2094.75,569.876918182688
2095,570.863112230847
2095.25,571.915939281655
2095.5,572.77422051365
2095.75,573.15182205181
2096,573.106530454353
2096.25,572.966924984521
2096.5,572.762927426568
2096.75,571.997150371519
2097,570.440435253812
2097.25,569.136088676222
2097.5,569.277155526163
2097.75,570.424670396305
2098,571.241165099346
2098.25,571.242989437872
2098.5,570.961416002817
2098.75,570.841939016838
2099,570.96509129324
2099.25,571.331993513997
2099.5,571.811290518191
2099.75,572.235552261481
2100,572.634675773574
2100.25,573.194742126267
2100.5,574.009308283486
2100.75,575.007058541828
2101,576.1413112442
2101.25,577.524894904798
2101.5,579.24130464755
2101.75,580.683998049387
2102,580.872135869481
2102.25,579.841858052205
2102.5,578.974960624786
2102.75,578.933219239445
2103,577.749704811929
2103.25,573.753738611784
2103.5,572.360007621076
2103.75,581.961004750501
2104,592.356061871335
2104.25,572.025530888364
2104.5,572.128604824884
2104.75,572.231678761404
2105,572.334752697924
2105.25,572.437826634444
2105.5,572.540900570964
2105.75,572.643974507484
2106,572.747048444004
2106.25,572.850122380523
2106.5,572.953196317043
2106.75,573.056270253563
2107,573.159344190083
2107.25,573.262418126603
2107.5,573.365492063123
2107.75,573.468565999643
2108,573.571639936163
2108.25,573.674713872683
2108.5,573.777787809203
2108.75,573.880861745722
2109,573.983935682242
2109.25,574.087009618762
2109.5,574.190083555282
2109.75,574.293157491802
2110,574.396231428322
2110.25,574.499305364842
2110.5,574.602379301362
2110.75,574.705453237882
2111,574.808527174402
2111.25,574.911601110921
2111.5,575.014675047441
2111.75,575.117748983961
2112,575.220822920481
2112.25,575.323896857001
2112.5,575.426970793521
2112.75,575.530044730041
2113,575.633118666561
2113.25,575.736192603081
2113.5,575.839266539601
2113.75,575.94234047612
2114,576.04541441264
2114.25,576.14848834916
2114.5,576.25156228568
2114.75,576.3546362222
2115,576.45771015872
2115.25,576.56078409524
2115.5,576.66385803176
2115.75,576.76693196828
2116,576.8700059048
2116.25,576.973079841319
2116.5,577.076153777839
2116.75,577.179227714359
2117,577.282301650879
2117.25,577.385375587399
2117.5,577.488449523919
2117.75,577.591523460439
2118,577.694597396959
2118.25,577.797671333479
2118.5,577.900745269999
2118.75,578.003819206519
2119,578.106893143038
2119.25,578.209967079558
2119.5,578.313041016078
2119.75,578.416114952598
2120,578.519188889118
2120.25,578.622262825638
2120.5,578.725336762158
2120.75,578.828410698678
2121,578.931484635198
2121.25,579.034558571718
2121.5,579.137632508237
2121.75,579.240706444757
2122,579.343780381277
2122.25,579.446854317797
2122.5,579.549928254317
2122.75,579.653002190837
2123,579.756076127357
2123.25,579.859150063877
2123.5,579.962224000397
2123.75,580.065297936917
2124,580.168371873436
2124.25,580.271445809956
2124.5,580.374519746476
2124.75,580.477593682996
2125,580.580667619516
2125.25,580.683741556036
2125.5,580.786815492556
2125.75,580.889889429076
2126,580.992963365596
2126.25,581.096037302116
2126.5,581.199111238635
2126.75,581.302185175155
2127,581.405259111675
2127.25,581.508333048195
2127.5,581.611406984715
2127.75,581.714480921235
2128,581.817554857755
2128.25,581.920628794275
2128.5,582.023702730795
2128.75,582.126776667315
2129,582.229850603835
2129.25,582.332924540354
2129.5,582.435998476874
2129.75,582.539072413394
2130,582.642146349914
2130.25,582.745220286434
2130.5,582.848294222954
2130.75,582.951368159474
2131,583.054442095994
2131.25,583.157516032514
2131.5,583.260589969034
2131.75,583.363663905553
2132,583.466737842073
2132.25,583.569811778593
2132.5,583.672885715113
2132.75,583.775959651633
2133,583.879033588153
2133.25,583.982107524673
2133.5,584.085181461193
2133.75,584.188255397713
2134,584.291329334233
2134.25,584.394403270752
2134.5,584.497477207272
2134.75,584.600551143792
2135,584.703625080312
2135.25,584.806699016832
2135.5,584.909772953352
2135.75,585.012846889872
2136,585.115920826392
2136.25,585.218994762912
2136.5,585.322068699432
2136.75,585.425142635951
2137,585.528216572471
2137.25,585.631290508991
2137.5,585.734364445511
2137.75,585.837438382031
2138,585.940512318551
2138.25,586.043586255071
2138.5,586.146660191591
2138.75,586.249734128111
2139,586.35280806463
2139.25,586.45588200115
2139.5,586.55895593767
2139.75,586.66202987419
2140,586.76510381071
2140.25,586.86817774723
2140.5,586.97125168375
2140.75,587.07432562027
2141,587.17739955679
2141.25,587.28047349331
2141.5,587.383547429829
2141.75,587.486621366349
2142,587.589695302869
2142.25,587.692769239389
2142.5,587.795843175909
2142.75,587.898917112429
2143,588.001991048949
2143.25,588.105064985469
2143.5,588.208138921989
2143.75,588.311212858509
2144,588.414286795029
2144.25,588.517360731548
2144.5,588.620434668068
2144.75,588.723508604588
2145,588.826582541108
2145.25,588.929656477628
2145.5,589.032730414148
2145.75,589.135804350668
2146,589.238878287188
2146.25,589.341952223708
2146.5,589.445026160228
2146.75,589.548100096747
2147,589.651174033267
2147.25,589.754247969787
2147.5,589.857321906307
2147.75,589.960395842827
2148,590.063469779347
2148.25,590.166543715867
2148.5,590.269617652387
2148.75,590.372691588907
2149,590.475765525427
2149.25,590.578839461946
2149.5,590.681913398466
2149.75,590.784987334986
2150,590.888061271506
2150.25,590.991135208026
2150.5,591.094209144546
2150.75,591.197283081066
2151,591.300357017586
2151.25,591.403430954106
2151.5,591.506504890626
2151.75,591.609578827145
2152,591.712652763665
2152.25,591.815726700185
2152.5,591.918800636705
2152.75,592.021874573225
2153,592.124948509745
2153.25,592.228022446265
2153.5,592.331096382785
2153.75,592.434170319305
2154,592.537244255825
2154.25,592.640318192345
2154.5,592.743392128864
2154.75,592.846466065384
2155,592.949540001904
2155.25,593.052613938424
2155.5,593.155687874944
2155.75,593.258761811464
2156,593.361835747984
2156.25,593.464909684504
2156.5,593.567983621024
2156.75,593.671057557544
2157,593.774131494063
2157.25,593.877205430583
2157.5,593.980279367103
2157.75,594.083353303623
2158,594.186427240143
2158.25,594.289501176663
2158.5,594.392575113183
2158.75,594.495649049703
2159,594.598722986223
2159.25,594.701796922743
2159.5,594.804870859262
2159.75,594.907944795782
2160,595.011018732302
2160.25,595.114092668822
2160.5,595.217166605342
2160.75,595.320240541862
2161,595.423314478382
2161.25,595.526388414902
2161.5,595.629462351422
2161.75,595.732536287942
2162,595.835610224461
2162.25,595.938684160981
2162.5,596.041758097501
2162.75,596.144832034021
2163,596.247905970541
2163.25,596.350979907061
2163.5,596.454053843581
2163.75,596.557127780101
2164,596.660201716621
2164.25,596.763275653141
2164.5,596.86634958966
2164.75,596.96942352618
2165,597.0724974627
2165.25,597.17557139922
2165.5,597.27864533574
2165.75,597.38171927226
2166,597.48479320878
2166.25,597.5878671453
2166.5,597.69094108182
2166.75,597.79401501834
2167,597.89708895486
2167.25,598.000162891379
2167.5,598.103236827899
2167.75,598.206310764419
2168,598.309384700939
2168.25,598.412458637459
2168.5,598.515532573979
2168.75,598.618606510499
2169,598.721680447019
2169.25,598.824754383539
2169.5,598.927828320059
2169.75,599.030902256578
2170,599.133976193098
2170.25,599.237050129618
2170.5,599.340124066138
2170.75,599.443198002658
2171,599.546271939178
2171.25,599.649345875698
2171.5,599.752419812218
2171.75,599.855493748738
2172,599.958567685258
2172.25,600.061641621777
2172.5,600.164715558297
2172.75,600.267789494817
2173,600.370863431337
2173.25,600.473937367857
2173.5,600.577011304377
2173.75,600.680085240897
2174,600.783159177417
2174.25,600.886233113937
2174.5,600.989307050457
2174.75,601.092380986976
2175,601.195454923496
2175.25,601.298528860016
2175.5,601.401602796536
2175.75,601.504676733056
2176,601.607750669576
2176.25,601.710824606096
2176.5,601.813898542616
2176.75,601.916972479136
2177,602.020046415656
2177.25,602.123120352176
2177.5,602.226194288695
2177.75,602.329268225215
2178,602.432342161735
2178.25,602.535416098255
2178.5,602.638490034775
2178.75,602.741563971295
2179,602.844637907815
2179.25,602.947711844335
2179.5,603.050785780855
2179.75,603.153859717375
2180,603.256933653894
2180.25,603.360007590414
2180.5,603.463081526934
2180.75,603.566155463454
2181,603.669229399974
2181.25,603.772303336494
2181.5,603.875377273014
2181.75,603.978451209534
2182,604.081525146054
2182.25,604.184599082574
2182.5,604.287673019093
2182.75,604.390746955613
2183,604.493820892133
2183.25,604.596894828653
2183.5,604.699968765173
2183.75,604.803042701693
2184,604.906116638213
2184.25,605.009190574733
2184.5,605.112264511253
2184.75,605.215338447773
2185,605.318412384292
2185.25,605.421486320812
2185.5,605.524560257332
2185.75,605.627634193852
2186,605.730708130372
2186.25,605.833782066892
2186.5,605.936856003412
2186.75,606.039929939932
2187,606.143003876452
2187.25,606.246077812972
2187.5,606.349151749492
2187.75,606.452225686011
2188,606.555299622531
2188.25,606.658373559051
2188.5,606.761447495571
2188.75,606.864521432091
2189,606.967595368611
2189.25,607.070669305131
2189.5,607.173743241651
2189.75,607.276817178171
2190,607.379891114691
2190.25,607.48296505121
2190.5,607.58603898773
2190.75,607.68911292425
2191,607.79218686077
2191.25,607.89526079729
2191.5,607.99833473381
2191.75,607.937471225698
2192,607.461079935575
2192.25,606.276862674225
2192.5,604.545748700419
2192.75,602.851604608117
2193,601.664313250342
2193.25,601.065237594761
2193.5,601.029071703807
2193.75,601.156996679799
2194,600.828676015395
2194.25,600.044341336802
2194.5,599.912721305014
2194.75,601.329833906445
2195,603.304721219291
2195.25,604.229186185523
2195.5,603.987231346185
2195.75,604.041190437912
2196,605.406704294224
2196.25,607.367031290865
2196.5,608.92352906448
2196.75,610.037201636247
2197,611.319144500495
2197.25,612.915128045059
2197.5,613.94814520002
2197.75,613.559522418543
2198,612.110999743094
2198.25,610.550463011856
2198.5,609.344524746046
2198.75,608.169747677394
2199,606.742284421535
2199.25,605.441577482107
2199.5,604.86935552746
2199.75,604.984943920955
2200,604.993997507595
2200.25,604.315649769193
2200.5,603.337654346553
2200.75,602.641439992353
2201,602.283093793517
2201.25,601.914216143182
2201.5,601.383327996616
2201.75,601.018633618223
2202,601.156190740392
2202.25,601.659728436275
2202.5,602.173502977544
2202.75,602.559484425041
2203,602.983376173823
2203.25,603.545990023303
2203.5,603.963258641169
2203.75,603.858812175359
2204,603.104252237212
2204.25,601.785911208838
2204.5,600.081771289787
2204.75,598.393905131681
2205,597.123852627613
2205.25,596.328328601535
2205.5,595.875914454103
2205.75,595.554757720442
2206,595.033194593656
2206.25,594.108997825501
2206.5,593.217571228133
2206.75,592.931514116077
2207,593.082865679915
2207.25,592.898132999595
2207.5,592.029126667651
2207.75,591.10642736316
2208,590.774989153117
2208.25,590.901510332062
2208.5,591.051731041506
2208.75,591.272958618142
2209,592.137004938577
2209.25,593.87718486131
2209.5,595.654693928355
2209.75,596.529002059491
2210,596.418870351971
2210.25,595.703012895287
2210.5,594.770030536685
2210.75,594.016688023264
2211,593.750075754754
2211.25,593.879552761409
2211.5,594.210524869141
2211.75,594.633043555889
2212,595.103630190909
2212.25,595.568971822124
2212.5,595.950955910506
2212.75,596.168696829087
2213,596.144025636363
2213.25,595.813903823262
2213.5,595.523840504852
2213.75,596.081992204627
2214,597.671222497138
2214.25,598.353114870263
2214.5,596.273120403091
2214.75,595.203729018572
2215,602.24221027996
2215.25,613.172699664627
2215.5,604.115831653039
2215.75,563.712981126414
2216,559.767623138225
2216.25,678.071437378036
2216.5,791.511618060016
2216.75,787.798095624475
2217,784.084573188934
2217.25,780.371050753392
2217.5,776.657528317851
2217.75,772.94400588231
2218,769.230483446769
2218.25,765.516961011227
2218.5,761.803438575686
2218.75,758.089916140145
2219,754.376393704604
2219.25,750.662871269062
2219.5,746.949348833521
2219.75,743.23582639798
2220,739.522303962439
2220.25,735.808781526897
2220.5,732.095259091356
2220.75,728.381736655815
2221,724.668214220274
2221.25,720.954691784732
2221.5,717.241169349191
2221.75,713.52764691365
2222,709.814124478109
2222.25,706.100602042568
2222.5,702.387079607026
2222.75,698.673557171485
2223,694.960034735944
2223.25,691.246512300403
2223.5,687.532989864861
2223.75,683.81946742932
2224,680.105944993779
2224.25,676.392422558238
2224.5,672.678900122696
2224.75,668.965377687155
2225,665.251855251614
2225.25,661.538332816073
2225.5,657.824810380531
2225.75,654.11128794499
2226,650.397765509449
2226.25,646.684243073908
2226.5,642.970720638366
2226.75,639.257198202825
2227,635.543675767284
2227.25,631.830153331743
2227.5,628.116630896202
2227.75,624.40310846066
2228,620.689586025119
2228.25,616.976063589578
2228.5,616.128947466888
2228.75,615.23008036575
2229,614.920467454325
2229.25,615.077032710234
2229.5,614.946693924292
2229.75,614.208520769613
2230,613.829532790205
2230.25,614.762404173689
2230.5,615.000245668846
2230.75,610.58592731867
2231,610.693804963092
2231.25,610.801682607514
2231.5,610.909560251936
2231.75,611.017437896359
2232,611.125315540781
2232.25,611.233193185203
2232.5,611.341070829625
2232.75,611.448948474047
2233,611.556826118469
2233.25,611.664703762891
2233.5,611.772581407313
2233.75,611.880459051735
2234,611.988336696158
2234.25,612.09621434058
2234.5,612.204091985002
2234.75,612.311969629424
2235,612.419847273846
2235.25,612.527724918268
2235.5,612.63560256269
2235.75,612.743480207112
2236,612.851357851534
2236.25,612.959235495957
2236.5,613.067113140379
2236.75,613.174990784801
2237,613.282868429223
2237.25,613.390746073645
2237.5,613.498623718067
2237.75,613.606501362489
2238,613.714379006911
2238.25,613.822256651333
2238.5,613.930134295756
2238.75,614.038011940178
2239,614.1458895846
2239.25,614.253767229022
2239.5,614.361644873444
2239.75,614.469522517866
2240,614.577400162288
2240.25,614.68527780671
2240.5,614.793155451133
2240.75,614.901033095555
2241,615.008910739977
2241.25,615.116788384399
2241.5,615.224666028821
2241.75,615.332543673243
2242,615.440421317665
2242.25,615.548298962087
2242.5,615.656176606509
2242.75,615.764054250932
2243,615.871931895354
2243.25,615.979809539776
2243.5,616.087687184198
2243.75,616.19556482862
2244,616.303442473042
2244.25,616.411320117464
2244.5,616.519197761886
2244.75,616.627075406308
2245,616.734953050731
2245.25,616.842830695153
2245.5,616.950708339575
2245.75,617.058585983997
2246,617.166463628419
2246.25,617.274341272841
2246.5,617.382218917263
2246.75,617.490096561685
2247,617.597974206107
2247.25,617.705851850529
2247.5,617.813729494952
2247.75,617.921607139374
2248,618.029484783796
2248.25,618.137362428218
2248.5,618.24524007264
2248.75,618.353117717062
2249,618.460995361484
2249.25,618.568873005906
2249.5,618.676750650328
2249.75,618.784628294751
2250,618.892505939173
2250.25,619.000383583595
2250.5,619.108261228017
2250.75,619.216138872439
2251,619.324016516861
2251.25,619.431894161283
2251.5,619.539771805705
2251.75,619.647649450127
2252,619.75552709455
2252.25,619.863404738972
2252.5,619.971282383394
2252.75,620.079160027816
2253,620.187037672238
2253.25,620.29491531666
2253.5,620.402792961082
2253.75,620.510670605504
2254,620.618548249927
2254.25,620.726425894349
2254.5,620.834303538771
2254.75,620.942181183193
2255,621.050058827615
2255.25,621.157936472037
2255.5,621.265814116459
2255.75,621.373691760881
2256,621.481569405303
2256.25,621.589447049726
2256.5,621.697324694148
2256.75,621.80520233857
2257,621.913079982992
2257.25,622.020957627414
2257.5,622.128835271836
2257.75,622.236712916258
2258,622.34459056068
2258.25,622.452468205102
2258.5,622.560345849525
2258.75,622.668223493947
2259,622.776101138369
2259.25,622.883978782791
2259.5,622.991856427213
2259.75,623.099734071635
2260,623.207611716057
2260.25,623.315489360479
2260.5,623.423367004901
2260.75,623.531244649324
2261,623.639122293746
2261.25,623.746999938168
2261.5,623.85487758259
2261.75,623.962755227012
2262,624.070632871434
2262.25,624.178510515856
2262.5,624.286388160278
2262.75,624.3942658047
2263,624.502143449123
2263.25,624.610021093545
2263.5,624.717898737967
2263.75,624.825776382389
2264,624.933654026811
2264.25,625.041531671233
2264.5,625.149409315655
2264.75,625.257286960077
2265,625.365164604499
2265.25,625.473042248922
2265.5,625.580919893344
2265.75,625.688797537766
2266,625.796675182188
2266.25,625.90455282661
2266.5,626.012430471032
2266.75,626.120308115454
2267,626.228185759876
2267.25,626.336063404298
2267.5,626.443941048721
2267.75,626.551818693143
2268,626.659696337565
2268.25,626.767573981987
2268.5,626.875451626409
2268.75,626.983329270831
2269,627.091206915253
2269.25,627.199084559675
2269.5,627.306962204097
2269.75,627.41483984852
2270,627.522717492942
2270.25,627.630595137364
2270.5,627.738472781786
2270.75,627.846350426208
2271,627.95422807063
2271.25,628.062105715052
2271.5,628.169983359474
2271.75,628.277861003897
2272,628.385738648319
2272.25,628.493616292741
2272.5,628.601493937163
2272.75,628.709371581585
2273,628.817249226007
2273.25,628.925126870429
2273.5,629.033004514851
2273.75,629.140882159273
2274,629.248759803696
2274.25,629.356637448118
2274.5,629.46451509254
2274.75,629.572392736962
2275,629.680270381384
2275.25,629.788148025806
2275.5,629.896025670228
2275.75,630.00390331465
2276,630.111780959072
2276.25,630.219658603495
2276.5,630.327536247917
2276.75,630.435413892339
2277,630.543291536761
2277.25,630.651169181183
2277.5,630.759046825605
2277.75,630.866924470027
2278,630.974802114449
2278.25,631.082679758871
2278.5,631.190557403294
2278.75,631.298435047716
2279,631.406312692138
2279.25,631.51419033656
2279.5,631.622067980982
2279.75,631.729945625404
2280,631.837823269826
2280.25,631.945700914248
2280.5,632.05357855867
2280.75,632.161456203092
2281,632.269333847515
2281.25,632.377211491937
2281.5,632.485089136359
2281.75,632.592966780781
2282,632.700844425203
2282.25,632.808722069625
2282.5,632.916599714047
2282.75,633.024477358469
2283,633.132355002892
2283.25,633.240232647314
2283.5,633.348110291736
2283.75,633.455987936158
2284,633.56386558058
2284.25,633.671743225002
2284.5,633.779620869424
2284.75,633.887498513846
2285,633.995376158268
2285.25,634.103253802691
2285.5,634.211131447113
2285.75,634.319009091535
2286,634.426886735957
2286.25,634.534764380379
2286.5,634.642642024801
2286.75,634.750519669223
2287,634.858397313645
2287.25,634.966274958067
2287.5,635.07415260249
2287.75,635.182030246912
2288,635.289907891334
2288.25,635.397785535756
2288.5,635.505663180178
2288.75,635.6135408246
2289,635.721418469022
2289.25,635.829296113444
2289.5,635.937173757867
2289.75,636.045051402289
2290,636.152929046711
2290.25,636.260806691133
2290.5,636.368684335555
2290.75,636.476561979977
2291,636.584439624399
2291.25,636.692317268821
2291.5,636.800194913243
2291.75,636.908072557665
2292,637.015950202088
2292.25,637.12382784651
2292.5,637.231705490932
2292.75,637.339583135354
2293,637.447460779776
2293.25,637.555338424198
2293.5,637.66321606862
2293.75,637.771093713042
2294,637.878971357464
2294.25,637.986849001887
2294.5,638.094726646309
2294.75,638.202604290731
2295,638.310481935153
2295.25,638.418359579575
2295.5,638.526237223997
2295.75,638.634114868419
2296,638.741992512841
2296.25,638.849870157263
2296.5,638.957747801686
2296.75,639.065625446108
2297,639.17350309053
2297.25,639.281380734952
2297.5,639.389258379374
2297.75,639.497136023796
2298,639.605013668218
2298.25,639.71289131264
2298.5,639.820768957062
2298.75,639.928646601485
2299,640.036524245907
2299.25,640.144401890329
2299.5,640.252279534751
2299.75,640.360157179173
2300,640.468034823595
2300.25,640.575912468017
2300.5,640.683790112439
2300.75,640.791667756862
2301,640.899545401284
2301.25,641.007423045706
2301.5,641.115300690128
2301.75,641.22317833455
2302,641.331055978972
2302.25,641.438933623394
2302.5,641.546811267816
2302.75,641.654688912238
2303,641.762566556661
2303.25,641.870444201083
2303.5,641.978321845505
2303.75,642.086199489927
2304,642.194077134349
2304.25,642.301954778771
2304.5,642.409832423193
2304.75,642.517710067615
2305,642.625587712037
2305.25,642.73346535646
2305.5,642.841343000882
2305.75,642.949220645304
2306,643.057098289726
2306.25,643.164975934148
2306.5,643.27285357857
2306.75,643.380731222992
2307,643.488608867414
2307.25,643.596486511836
2307.5,643.704364156259
2307.75,643.812241800681
2308,643.920119445103
2308.25,644.027997089525
2308.5,644.135874733947
2308.75,644.243752378369
2309,644.351630022791
2309.25,644.459507667213
2309.5,644.567385311635
2309.75,644.675262956058
2310,644.78314060048
2310.25,644.891018244902
2310.5,644.998895889324
2310.75,645.106773533746
2311,645.214651178168
2311.25,645.32252882259
2311.5,645.430406467012
2311.75,645.538284111434
2312,645.646161755857
2312.25,645.754039400279
2312.5,645.861917044701
2312.75,645.969794689123
2313,646.077672333545
2313.25,646.185549977967
2313.5,646.293427622389
2313.75,646.401305266811
2314,646.509182911233
2314.25,646.617060555656
2314.5,646.724938200078
2314.75,646.8328158445
2315,646.940693488922
2315.25,647.048571133344
2315.5,647.156448777766
2315.75,647.264326422188
2316,647.37220406661
2316.25,647.480081711032
2316.5,647.587959355455
2316.75,647.695836999877
2317,647.803714644299
2317.25,647.911592288721
2317.5,648.019469933143
2317.75,648.127347577565
2318,648.235225221987
2318.25,648.343102866409
2318.5,648.450980510832
2318.75,648.558858155254
2319,648.666735799676
2319.25,648.774613444098
2319.5,648.88249108852
2319.75,648.990368732942
2320,649.098246377364
2320.25,649.206124021786
2320.5,649.314001666208
2320.75,649.421879310631
2321,649.529756955053
2321.25,649.637634599475
2321.5,649.745512243897
2321.75,649.853389888319
2322,649.961267532741
2322.25,650.069145177163
2322.5,650.177022821585
2322.75,650.284900466007
2323,650.39277811043
2323.25,650.500655754852
2323.5,650.608533399274
2323.75,650.716411043696
2324,650.824288688118
2324.25,650.93216633254
2324.5,651.040043976962
2324.75,651.147921621384
2325,651.255799265806
2325.25,651.363676910228
2325.5,651.471554554651
2325.75,651.579432199073
2326,651.687309843495
2326.25,651.795187487917
2326.5,651.903065132339
2326.75,652.010942776761
2327,652.118820421183
2327.25,652.226698065605
2327.5,652.334575710027
2327.75,652.44245335445
2328,652.550330998872
2328.25,652.658208643294
2328.5,652.766086287716
2328.75,652.873963932138
2329,652.98184157656
2329.25,653.089719220982
2329.5,653.197596865404
2329.75,655.690596474286
2330,655.696804387028
2330.25,653.797744408204
2330.5,651.908051296313
2330.75,651.250820164471
2331,650.747367186917
2331.25,648.931827701475
2331.5,646.514985347446
2331.75,646.609613091803
2332,646.66696814785
2332.25,646.724323203897
2332.5,646.781678259945
2332.75,646.839033315992
2333,646.896388372039
2333.25,646.953743428087
2333.5,647.011098484134
2333.75,647.068453540181
2334,647.125808596229
2334.25,647.183163652276
2334.5,647.240518708323
2334.75,647.297873764371
2335,647.355228820418
2335.25,647.412583876465
2335.5,647.469938932513
2335.75,647.52729398856
2336,647.584649044607
2336.25,647.642004100655
2336.5,647.699359156702
2336.75,647.756714212749
2337,647.814069268797
2337.25,647.871424324844
2337.5,647.928779380891
2337.75,647.986134436939
2338,648.043489492986
2338.25,648.100844549033
2338.5,648.158199605081
2338.75,648.215554661128
2339,648.272909717175
2339.25,648.330264773223
2339.5,648.38761982927
2339.75,648.444974885317
2340,648.502329941365
2340.25,648.559684997412
2340.5,648.61704005346
2340.75,648.674395109507
2341,648.731750165554
2341.25,648.789105221602
2341.5,648.846460277649
2341.75,648.903815333696
2342,648.961170389744
2342.25,649.018525445791
2342.5,649.075880501838
2342.75,649.133235557886
2343,649.190590613933
2343.25,649.24794566998
2343.5,649.305300726028
2343.75,649.362655782075
2344,649.420010838122
2344.25,649.47736589417
2344.5,649.534720950217
2344.75,649.592076006264
2345,649.649431062311
2345.25,649.706786118359
2345.5,649.764141174406
2345.75,649.821496230453
2346,649.878851286501
2346.25,649.936206342548
2346.5,649.993561398595
2346.75,650.050916454643
2347,650.10827151069
2347.25,650.165626566738
2347.5,650.222981622785
2347.75,650.280336678832
2348,650.33769173488
2348.25,650.395046790927
2348.5,650.452401846974
2348.75,650.509756903022
2349,650.567111959069
2349.25,650.624467015116
2349.5,650.681822071164
2349.75,650.739177127211
2350,650.796532183258
2350.25,650.853887239306
2350.5,650.911242295353
2350.75,650.9685973514
2351,651.025952407448
2351.25,651.083307463495
2351.5,651.140662519542
2351.75,651.19801757559
2352,651.255372631637
2352.25,651.312727687684
2352.5,651.370082743732
2352.75,651.427437799779
2353,651.484792855826
2353.25,651.542147911874
2353.5,651.599502967921
2353.75,651.656858023968
2354,651.714213080016
2354.25,651.771568136063
2354.5,651.82892319211
2354.75,651.886278248158
2355,651.943633304205
2355.25,652.000988360252
2355.5,652.0583434163
2355.75,652.115698472347
2356,652.173053528394
2356.25,652.230408584442
2356.5,652.287763640489
2356.75,652.345118696536
2357,652.402473752584
2357.25,652.459828808631
2357.5,652.517183864678
2357.75,652.574538920726
2358,652.631893976773
2358.25,652.68924903282
2358.5,652.746604088868
2358.75,652.803959144915
2359,652.861314200962
2359.25,652.91866925701
2359.5,652.976024313057
2359.75,653.033379369104
2360,653.090734425152
2360.25,653.148089481199
2360.5,653.205444537246
2360.75,653.262799593294
2361,653.320154649341
2361.25,653.377509705388
2361.5,653.434864761436
2361.75,653.492219817483
2362,653.54957487353
2362.25,653.606929929578
2362.5,653.664284985625
2362.75,653.721640041672
2363,653.77899509772
2363.25,653.836350153767
2363.5,653.893705209814
2363.75,653.951060265862
2364,654.008415321909
2364.25,654.065770377956
2364.5,654.123125434004
2364.75,654.180480490051
2365,654.237835546098
2365.25,654.295190602146
2365.5,654.352545658193
2365.75,654.409900714241
2366,654.467255770288
2366.25,654.524610826335
2366.5,654.581965882383
2366.75,654.63932093843
2367,654.696675994477
2367.25,654.754031050525
2367.5,654.811386106572
2367.75,654.868741162619
2368,654.926096218667
2368.25,654.983451274714
2368.5,655.040806330761
2368.75,655.098161386809
2369,655.155516442856
2369.25,655.212871498903
2369.5,655.270226554951
2369.75,655.327581610998
2370,655.384936667045
2370.25,655.442291723093
2370.5,655.49964677914
2370.75,655.557001835187
2371,655.614356891235
2371.25,655.671711947282
2371.5,655.729067003329
2371.75,655.786422059377
2372,655.843777115424
2372.25,655.901132171471
2372.5,655.958487227519
2372.75,656.015842283566
2373,656.073197339613
2373.25,656.130552395661
2373.5,656.187907451708
2373.75,656.245262507755
2374,656.302617563803
2374.25,656.35997261985
2374.5,656.417327675897
2374.75,656.474682731945
2375,656.532037787992
2375.25,656.589392844039
2375.5,656.646747900087
2375.75,656.704102956134
2376,656.761458012181
2376.25,656.818813068229
2376.5,656.876168124276
2376.75,656.933523180323
2377,656.990878236371
2377.25,657.048233292418
2377.5,657.105588348465
2377.75,657.162943404513
2378,657.22029846056
2378.25,657.277653516607
2378.5,657.335008572655
2378.75,657.392363628702
2379,657.449718684749
2379.25,657.507073740797
2379.5,657.564428796844
2379.75,657.621783852891
2380,657.679138908939
2380.25,657.736493964986
2380.5,657.793849021033
2380.75,657.851204077081
2381,657.908559133128
2381.25,657.965914189175
2381.5,658.023269245223
2381.75,658.08062430127
2382,658.137979357317
2382.25,658.195334413365
2382.5,658.252689469412
2382.75,659.708757397402
2383,662.843023756929
2383.25,666.178986866871
2383.5,668.215774370333
2383.75,668.665696788423
2384,667.974951176676
2384.25,666.597126487643
2384.5,664.975266547754
2384.75,663.546676952305
2385,662.574736557364
2385.25,662.065501445933
2385.5,662.002084494034
2385.75,662.34466598609
2386,663.039702320646
2386.25,663.96469933036
2386.5,664.758135125954
2386.75,665.018434961721
2387,664.818625859588
2387.25,664.856469692537
2387.5,665.760321319282
2387.75,667.133510205174
2388,668.029626955668
2388.25,667.866735463567
2388.5,667.244971706974
2388.75,666.992508914856
2389,667.643521829717
2389.25,669.353416673861
2389.5,672.133116971522
2389.75,674.900619899323
2390,675.987997133634
2390.25,674.362292111411
2390.5,671.16250396519
2390.75,667.97710700924
2391,665.842694622246
2391.25,664.980465042797
2391.5,665.570370513444
2391.75,668.067438092709
2392,673.100073824475
2392.25,679.963731231963
2392.5,679.476707093349
2392.75,678.989682954734
2393,678.502658816119
2393.25,678.015634677505
2393.5,677.52861053889
2393.75,677.041586400276
2394,676.554562261661
2394.25,676.067538123047
2394.5,675.580513984432
2394.75,675.093489845818
2395,674.606465707203
2395.25,674.119441568589
2395.5,673.632417429974
2395.75,673.14539329136
2396,672.658369152745
2396.25,672.171345014131
2396.5,671.684320875516
2396.75,671.197296736901
2397,670.710272598287
2397.25,670.223248459672
2397.5,669.736224321058
2397.75,669.249200182443
2398,668.762176043829
2398.25,668.275151905214
2398.5,667.7881277666
2398.75,667.301103627985
2399,666.814079489371
2399.25,666.327055350756
2399.5,665.840031212142
2399.75,665.353007073527
2400,664.865982934912
2400.25,664.378958796298
2400.5,663.891934657683
2400.75,663.404910519069
2401,662.917886380454
2401.25,662.43086224184
2401.5,661.943838103225
2401.75,661.456813964611
2402,660.969789825996
2402.25,660.482765687382
2402.5,659.995741548767
2402.75,659.508717410153
2403,659.021693271538
2403.25,658.534669132923
2403.5,658.047644994309
2403.75,657.560620855694
2404,657.07359671708
2404.25,656.586572578465
2404.5,656.099548439851
2404.75,655.612524301236
2405,655.125500162622
2405.25,654.638476024007
2405.5,654.151451885393
2405.75,653.664427746778
2406,653.177403608164
2406.25,652.690379469549
2406.5,652.203355330935
2406.75,651.71633119232
2407,651.229307053705
2407.25,650.742282915091
2407.5,650.255258776476
2407.75,649.768234637862
2408,649.281210499247
2408.25,648.794186360633
2408.5,648.307162222018
2408.75,647.820138083404
2409,647.333113944789
2409.25,646.846089806175
2409.5,646.35906566756
2409.75,645.872041528945
2410,645.385017390331
2410.25,644.897993251716
2410.5,644.410969113102
2410.75,643.923944974487
2411,643.436920835873
2411.25,642.949896697258
2411.5,642.462872558644
2411.75,641.975848420029
2412,641.488824281415
2412.25,641.0018001428
2412.5,640.514776004186
2412.75,640.027751865571
2413,639.540727726956
2413.25,639.053703588342
2413.5,638.566679449727
2413.75,638.079655311113
2414,637.592631172498
2414.25,637.105607033884
2414.5,636.618582895269
2414.75,636.131558756655
2415,635.64453461804
2415.25,635.157510479426
2415.5,634.670486340811
2415.75,634.183462202197
2416,633.696438063582
2416.25,633.209413924968
2416.5,632.722389786353
2416.75,632.235365647738
2417,631.748341509124
2417.25,631.261317370509
2417.5,630.774293231895
2417.75,630.28726909328
2418,629.800244954666
2418.25,629.313220816051
2418.5,628.826196677437
2418.75,628.339172538822
2419,627.852148400208
2419.25,627.365124261593
2419.5,626.878100122978
2419.75,626.391075984364
2420,625.904051845749
2420.25,625.417027707135
2420.5,624.93000356852
2420.75,624.442979429906
2421,623.955955291291
2421.25,623.468931152677
2421.5,622.981907014062
2421.75,622.494882875448
2422,622.007858736833
2422.25,622.107253024111
2422.5,621.96812727237
2422.75,622.190540649467
2423,622.740227208989
2423.25,622.996426208782
2423.5,622.58286057188
2423.75,622.063157470527
2424,622.172776415967
2424.25,622.999661099056
2424.5,624.063704056674
2424.75,624.976414828737
2425,625.717635017959
2425.25,626.326949282402
2425.5,626.558442009159
2425.75,625.926126769525
2426,624.265980985021
2426.25,622.507919559668
2426.5,621.743811269513
2426.75,621.915665449732
2427,621.978252520621
2427.25,621.242185736319
2427.5,620.275628384589
2427.75,619.865417392457
2428,620.225239125322
2428.25,621.106700274092
2428.5,622.18123979874
2428.75,622.922625259762
2429,622.827791039228
2429.25,622.220748650331
2429.5,622.031308033438
2429.75,622.862289993405
2430,624.379016490273
2430.25,626.119061156219
2430.5,628.032426085804
2430.75,630.355284113014
2431,633.05806331462
2431.25,635.390143451922
2431.5,636.584818937818
2431.75,637.297288160246
2432,639.223848603793
2432.25,639.192490251836
2432.5,639.161131899878
2432.75,639.129773547921
2433,639.098415195964
2433.25,639.067056844006
2433.5,639.035698492049
2433.75,639.004340140092
2434,638.972981788134
2434.25,638.941623436177
2434.5,638.91026508422
2434.75,638.878906732262
2435,638.847548380305
2435.25,638.816190028348
2435.5,638.78483167639
2435.75,638.753473324433
2436,638.722114972476
2436.25,638.690756620518
2436.5,638.659398268561
2436.75,638.628039916604
2437,638.596681564646
2437.25,638.565323212689
2437.5,638.533964860732
2437.75,638.502606508774
2438,638.471248156817
2438.25,638.43988980486
2438.5,638.408531452902
2438.75,638.377173100945
2439,638.345814748988
2439.25,638.31445639703
2439.5,638.283098045073
2439.75,638.251739693116
2440,638.220381341158
2440.25,638.189022989201
2440.5,638.157664637244
2440.75,638.126306285286
2441,638.094947933329
2441.25,638.063589581372
2441.5,638.032231229414
2441.75,638.000872877457
2442,637.9695145255
2442.25,637.938156173542
2442.5,637.906797821585
2442.75,637.875439469628
2443,637.844081117671
2443.25,637.812722765713
2443.5,637.781364413756
2443.75,637.750006061798
2444,637.718647709841
2444.25,637.687289357884
2444.5,637.655931005927
2444.75,637.624572653969
2445,637.593214302012
2445.25,637.561855950055
2445.5,637.530497598097
2445.75,637.49913924614
2446,637.467780894183
2446.25,637.436422542225
2446.5,637.405064190268
2446.75,637.373705838311
2447,637.342347486353
2447.25,637.310989134396
2447.5,637.279630782439
2447.75,637.248272430481
2448,637.216914078524
2448.25,637.185555726567
2448.5,637.154197374609
2448.75,637.122839022652
2449,637.091480670695
2449.25,637.060122318737
2449.5,637.02876396678
2449.75,636.997405614823
2450,636.966047262865
2450.25,636.934688910908
2450.5,636.903330558951
2450.75,636.871972206993
2451,636.840613855036
2451.25,636.809255503079
2451.5,636.777897151121
2451.75,636.746538799164
2452,636.715180447207
2452.25,636.683822095249
2452.5,636.652463743292
2452.75,636.621105391335
2453,636.589747039377
2453.25,636.55838868742
2453.5,636.527030335463
2453.75,636.495671983505
2454,636.464313631548
2454.25,636.432955279591
2454.5,636.401596927633
2454.75,636.370238575676
2455,636.338880223719
2455.25,636.307521871761
2455.5,636.276163519804
2455.75,636.244805167847
2456,636.213446815889
2456.25,636.182088463932
2456.5,636.150730111975
2456.75,636.119371760017
2457,636.08801340806
2457.25,636.056655056103
2457.5,636.025296704145
2457.75,635.993938352188
2458,635.962580000231
2458.25,635.931221648273
2458.5,635.899863296316
2458.75,635.868504944359
2459,635.837146592401
2459.25,635.805788240444
2459.5,635.774429888487
2459.75,635.743071536529
2460,635.711713184572
2460.25,635.680354832615
2460.5,635.648996480658
2460.75,635.6176381287
2461,635.586279776743
2461.25,635.554921424785
2461.5,635.523563072828
2461.75,635.492204720871
2462,635.460846368914
2462.25,635.429488016956
2462.5,635.398129664999
2462.75,635.366771313041
2463,635.335412961084
2463.25,635.304054609127
2463.5,635.27269625717
2463.75,635.241337905212
2464,635.209979553255
2464.25,635.178621201298
2464.5,635.14726284934
2464.75,635.115904497383
2465,635.084546145426
2465.25,635.053187793468
2465.5,635.021829441511
2465.75,634.990471089554
2466,634.959112737596
2466.25,634.927754385639
2466.5,634.896396033682
2466.75,634.865037681724
2467,634.833679329767
2467.25,634.80232097781
2467.5,634.770962625852
2467.75,634.739604273895
2468,634.708245921938
2468.25,634.67688756998
2468.5,634.645529218023
2468.75,634.614170866066
2469,634.582812514108
2469.25,634.551454162151
2469.5,634.520095810194
2469.75,634.488737458236
2470,634.457379106279
2470.25,634.426020754322
2470.5,634.394662402364
2470.75,634.363304050407
2471,634.33194569845
2471.25,634.300587346492
2471.5,634.269228994535
2471.75,634.237870642578
2472,634.20651229062
2472.25,634.175153938663
2472.5,634.143795586706
2472.75,634.112437234748
2473,634.081078882791
2473.25,634.049720530834
2473.5,634.018362178876
2473.75,633.987003826919
2474,633.955645474962
2474.25,633.924287123004
2474.5,633.892928771047
2474.75,633.86157041909
2475,633.830212067132
2475.25,633.798853715175
2475.5,633.767495363218
2475.75,633.73613701126
2476,633.704778659303
2476.25,633.673420307346
2476.5,633.642061955388
2476.75,633.610703603431
2477,633.579345251474
2477.25,633.547986899516
2477.5,633.516628547559
2477.75,633.485270195602
2478,633.453911843645
2478.25,633.422553491687
2478.5,633.39119513973
2478.75,633.359836787772
2479,633.328478435815
2479.25,633.297120083858
2479.5,633.265761731901
2479.75,633.234403379943
2480,633.203045027986
2480.25,633.171686676028
2480.5,633.140328324071
2480.75,633.108969972114
2481,633.077611620157
2481.25,633.046253268199
2481.5,633.014894916242
2481.75,632.983536564284
2482,632.952178212327
2482.25,632.92081986037
2482.5,632.889461508413
2482.75,632.858103156455
2483,632.826744804498
2483.25,632.795386452541
2483.5,632.764028100583
2483.75,632.732669748626
2484,632.701311396669
2484.25,632.669953044711
2484.5,632.638594692754
2484.75,632.607236340797
2485,632.575877988839
2485.25,632.544519636882
2485.5,632.513161284925
2485.75,632.481802932967
2486,632.45044458101
2486.25,632.419086229053
2486.5,632.387727877095
2486.75,632.356369525138
2487,632.325011173181
2487.25,632.293652821223
2487.5,632.262294469266
2487.75,632.230936117309
2488,632.199577765351
2488.25,632.168219413394
2488.5,632.136861061437
2488.75,632.105502709479
2489,632.074144357522
2489.25,632.042786005565
2489.5,632.011427653607
2489.75,631.98006930165
2490,631.948710949693
2490.25,631.917352597735
2490.5,631.885994245778
2490.75,631.854635893821
2491,631.823277541863
2491.25,631.791919189906
2491.5,631.760560837949
2491.75,631.729202485991
2492,631.697844134034
2492.25,631.666485782077
2492.5,631.635127430119
2492.75,631.603769078162
2493,631.572410726205
2493.25,631.541052374247
2493.5,631.50969402229
2493.75,631.478335670333
2494,631.446977318375
2494.25,631.415618966418
2494.5,631.384260614461
2494.75,631.352902262503
2495,631.321543910546
2495.25,631.744302558585
2495.5,632.016643351582
2495.75,632.202547936468
2496,632.631941695264
2496.25,633.664142206434
2496.5,635.261256799788
2496.75,637.04246951623
2497,638.568431166014
2497.25,639.224018320489
2497.5,638.386937152419
2497.75,636.3026243967
2498,634.139377714559
2498.25,632.874381947803
2498.5,632.286185744234
2498.75,631.783560135774
2499,631.206192790582
2499.25,630.977088840182
2499.5,631.419827884022
2499.75,631.987171551286
2500,631.809883617166
2500.25,630.647108391982
2500.5,629.234898526161
2500.75,628.307447102703
2501,627.971932957772
2501.25,628.058314435565
2501.5,628.408697403825
2501.75,628.888569442944
2502,629.371747455553
2502.25,629.779646960855
2502.5,630.057656357983
2502.75,630.283223624854
2503,630.782513516729
2503.25,631.818653844942
2503.5,632.841788814589
2503.75,632.876182838777
2504,631.515917370076
2504.25,629.575943668339
2504.5,627.97872810523
2504.75,627.114606567322
2505,627.046630195127
2505.25,627.69993728687
2505.5,628.675443903627
2505.75,629.557433111611
2506,630.307145509164
2506.25,631.13235422353
2506.5,632.092559700029
2506.75,632.849578534068
2507,633.043335374575
2507.25,632.893601784544
2507.5,633.042138401131
2507.75,633.924456078568
2508,635.314324626582
2508.25,636.859123820946
2508.5,638.206744743444
2508.75,639.005518985408
2509,639.0180530674
2509.25,638.446045930278
2509.5,637.58930191436
2509.75,636.539134369955
2510,635.153853501857
2510.25,633.38091660984
2510.5,631.707291258672
2510.75,630.787724557993
2511,630.752104763496
2511.25,630.983374683807
2511.5,630.89175176173
2511.75,630.433652418235
2512,629.784071477868
2512.25,629.181375524062
2512.5,628.965465812314
2512.75,629.418294772057
2513,630.3215215544
2513.25,631.232493889378
2513.5,631.832140037591
2513.75,632.023432346561
2514,631.791367722982
2514.25,631.622271923689
2514.5,632.25229568497
2514.75,633.99659347813
2515,636.301986795532
2515.25,638.506545276849
2515.5,639.92674306909
2515.75,639.867583187396
2516,638.136142187267
2516.25,635.816111363861
2516.5,634.128861277048
2516.75,633.343240760061
2517,632.983214958994
2517.25,632.716207716472
2517.5,632.765348279884
2517.75,633.452047574616
2518,634.686046793087
2518.25,635.988495910056
2518.5,636.91120984684
2518.75,637.194928620809
2519,636.646591939127
2519.25,635.600566042935
2519.5,634.998151544818
2519.75,635.602073645149
2520,637.021635621716
2520.25,638.484403998543
2520.5,639.641935688037
2520.75,640.761112199858
2521,642.056357508922
2521.25,643.012694091891
2521.5,642.799021274541
2521.75,641.234660830682
2522,639.431467472826
2522.25,638.555566460277
2522.5,638.649329721097
2522.75,639.037685844386
2523,639.203171267253
2523.25,639.110301250432
2523.5,638.811112177903
2523.75,638.39822191473
2524,637.999071679511
2524.25,637.746736509714
2524.5,637.792164547215
2524.75,638.287944228555
2525,639.30471284952
2525.25,640.819903092234
2525.5,642.716181419456
2525.75,644.3891512009
2526,645.082974513293
2526.25,644.817665974319
2526.5,644.811250186007
2526.75,646.217241572868
2527,648.758938442267
2527.25,651.433552283996
2527.5,653.388858777577
2527.75,654.146853057964
2528,653.33949735953
2528.25,651.526367180584
2528.5,650.037639645592
2528.75,649.841975830015
2529,650.145842849756
2529.25,649.672202552917
2529.5,648.201838055377
2529.75,647.062890977059
2530,647.524378756458
2530.25,649.298209533358
2530.5,651.306489072738
2530.75,652.69125830708
2531,653.14805164334
2531.25,652.490472786293
2531.5,651.139537060305
2531.75,650.031168734053
2532,649.951171402973
2532.25,650.914855728916
2532.5,652.712825244427
2532.75,655.036512248098
2533,657.430879606521
2533.25,659.418463115258
2533.5,660.427182846717
2533.75,659.835806480394
2534,657.467890415858
2534.25,654.426302317397
2534.5,652.010946577356
2534.75,650.694926642647
2535,650.06080485755
2535.25,649.716425357906
2535.5,649.694546563081
2535.75,650.186273621916
2536,651.113210636756
2536.25,651.88664254866
2536.5,651.908401332683
2536.75,651.144481970194
2537,649.931687440169
2537.25,648.668580115455
2537.5,647.943073078141
2537.75,648.361572459623
2538,649.887790501218
2538.25,651.756600694896
2538.5,653.267498571819
2538.75,654.35615785919
2539,655.197701061371
2539.25,655.836925520249
2539.5,656.065983076306
2539.75,655.676828819349
2540,654.840098567107
2540.25,653.994342194902
2540.5,653.414621152846
2540.75,652.715534647142
2541,651.366756630311
2541.25,649.500492413409
2541.5,648.127705785979
2541.75,648.151281068203
2542,649.162097474808
2542.25,650.137920917403
2542.5,650.418935102922
2542.75,650.179846343179
2543,649.708195776544
2543.25,649.246210579047
2543.5,649.000517786932
2543.75,649.184823324375
2544,650.045731279449
2544.25,651.829937934641
2544.5,654.453485400608
2544.75,657.39875969359
2545,660.126785904598
2545.25,662.159474393106
2545.5,663.047419493878
2545.75,662.644507615626
2546,661.560948242935
2546.25,660.502953409819
2546.5,659.7347566171
2546.75,659.088347067223
2547,658.434587184273
2547.25,657.987599166524
2547.5,658.08781669196
2547.75,658.81478284989
2548,659.710168668452
2548.25,660.283448974428
2548.5,660.561398955443
2548.75,660.972479201284
2549,661.807148799625
2549.25,662.679333368248
2549.5,663.017993715615
2549.75,662.779509882681
2550,662.783970830437
2550.25,663.866666102117
2550.5,666.093876847677
2550.75,669.028019677274
2551,672.173720027492
2551.25,674.844631354136
2551.5,676.317853314492
2551.75,676.467597447063
2552,676.094455241255
2552.25,676.015834478542
2552.5,676.207314202909
2552.75,676.044236998699
2553,675.073365856599
2553.25,673.765239325247
2553.5,672.877861634216
2553.75,672.954982972341
2554,674.089529279168
2554.25,676.28667309007
2554.5,678.931880485049
2554.75,680.836399281239
2555,681.01434766972
2555.25,679.991826004066
2555.5,678.91864565428
2555.75,678.662790012706
2556,679.262049488535
2556.25,680.603281030418
2556.5,682.576520276032
2556.75,685.076049108106
2557,687.953745856882
2557.25,690.570084412368
2557.5,691.970850606574
2557.75,691.538446858182
2558,690.365862795888
2558.25,690.077720278262
2558.5,691.335078728805
2558.75,692.374470340151
2559,691.107333045679
2559.25,687.423127250573
2559.5,683.796955835888
2559.75,682.699698244436
2560,684.219689611665
2560.25,686.749340413041
2560.5,688.856854376659
2560.75,690.265757491832
2561,691.091080071168
2561.25,691.496104016334
2561.5,691.767420360227
2561.75,692.219940094845
2562,693.53964308371
2562.25,696.912839636857
2562.5,703.374819297124
2562.75,711.360967723933
2563,717.397567588042
2563.25,718.548369451684
2563.5,715.884186552533
2563.75,712.164013270392
2564,709.673356127787
2564.25,708.469573088284
2564.5,707.963194566351
2564.75,707.599995802502
2565,706.930042543273
2565.25,705.526399202399
2565.5,703.345846389705
2565.75,701.050410460385
2566,699.357086765687
2566.25,698.359607649348
2566.5,697.434482162178
2566.75,695.973320689804
2567,694.05375269616
2567.25,692.220703278244
2567.5,690.952477946564
2567.75,690.262577750718
2568,689.987974285652
2568.25,689.962618659677
2568.5,690.012269374299
2568.75,689.960549197341
2569,689.595789540054
2569.25,688.651197747519
2569.5,686.87595570366
2569.75,684.36937594599
2570,681.521995956041
2570.25,678.705508846437
2570.5,676.098641231649
2570.75,673.797995485041
2571,671.837104258522
2571.25,670.060035550782
2571.5,668.281325312951
2571.75,666.553534230924
2572,665.239496125029
2572.25,664.654216046252
2572.5,664.457365520068
2572.75,663.94513729736
2573,662.595564986452
2573.25,660.502456487656
2573.5,657.900679185261
2573.75,655.533194054498
2574,654.791199448999
2574.25,656.87130229814
2574.5,661.047231629344
2574.75,665.658834710052
2575,669.351906044222
2575.25,671.572510900441
2575.5,671.91860691848
2575.75,670.59889907604
2576,668.44730858879
2576.25,666.287428021122
2576.5,664.659853551267
2576.75,663.978920986977
2577,664.331640045134
2577.25,664.918161280243
2577.5,664.82145142006
2577.75,663.949590498878
2578,663.090938893171
2578.25,662.989005096082
2578.5,663.769716030084
2578.75,665.293720623842
2579,667.385401563883
2579.25,669.781914104849
2579.5,672.205432058917
2579.75,674.339155843707
2580,675.827653072375
2580.25,676.446060633179
2580.5,676.888007357084
2580.75,678.23613819579
2581,680.900126250169
2581.25,683.374275168032
2581.5,683.851743019307
2581.75,681.918951872267
2582,678.955462434307
2582.25,676.368126764243
2582.5,674.51091596369
2582.75,673.060205643048
2583,671.749772019037
2583.25,670.626969898395
2583.5,669.826705695202
2583.75,669.274662176424
2584,668.50514338509
2584.25,667.047988818643
2584.5,665.047526451731
2584.75,663.141733526957
2585,661.873476950267
2585.25,661.216614271701
2585.5,660.961250766347
2585.75,661.031242530843
2586,661.603454976905
2586.25,662.863872227971
2586.5,664.731324867913
2586.75,666.927445326929
2587,669.012398360691
2587.25,669.855632100981
2587.5,668.166066582175
2587.75,664.936697759624
2588,665.031682805438
2588.25,673.190979986543
2588.5,687.35534537631
2588.75,700.553870696107
2589,707.286130646023
