1629,32.6411277264501
1629.25,32.6161443947042
1629.5,32.5911610629584
1629.75,32.5661777312125
1630,32.5411943994666
1630.25,32.5162110677207
1630.5,32.4912277359748
1630.75,32.466244404229
1631,32.4412610724831
1631.25,32.4162777407372
1631.5,32.3912944089913
1631.75,32.3663110772454
1632,32.3413277454996
1632.25,32.3163444137537
1632.5,32.2637165444328
1632.75,32.1587865511001
1633,32.0538565577674
1633.25,31.9489265644347
1633.5,31.843996571102
1633.75,31.7390665777693
1634,31.6341365844366
1634.25,31.5292065911039
1634.5,31.4242765977712
1634.75,31.3193466044385
1635,31.2144166111058
1635.25,31.1094866177731
1635.5,31.0045566244404
1635.75,30.8996266311077
1636,30.794696637775
1636.25,30.6897666444423
1636.5,30.5848366511096
1636.75,30.4799066577769
1637,30.3749766644442
1637.25,30.2700466711115
1637.5,30.2232555481474
1637.75,30.2932088770359
1638,30.3631622059244
1638.25,30.4331155348128
1638.5,30.5030688637013
1638.75,30.5730221925898
1639,30.6429755214782
1639.25,30.7129288503667
1639.5,30.7828821792551
1639.75,30.8528355081437
1640,30.9227888370321
1640.25,30.9927421659206
1640.5,31.062695494809
1640.75,31.1326488236975
1641,31.202602152586
1641.25,31.2725554814744
1641.5,31.3425088103629
1641.75,31.4124621392514
1642,31.4824154681398
1642.25,31.5523687970283
1642.5,31.643049814268
1642.75,31.7779598056957
1643,31.9128697971236
1643.25,32.0477797885513
1643.5,32.182689779979
1643.75,32.3175997714068
1644,32.4525097628346
1644.25,32.5874197542623
1644.5,32.7223297456901
1644.75,32.8572397371178
1645,32.9921497285456
1645.25,33.1270597199734
1645.5,33.2619697114011
1645.75,33.3968797028288
1646,33.5317896942567
1646.25,33.6666996856844
1646.5,33.8016096771121
1646.75,33.9365196685398
1647,34.0714296599677
1647.25,34.2063396513954
1647.5,34.3427774073721
1647.75,34.482684065149
1648,34.6225907229259
1648.25,34.762497380703
1648.5,34.9024040384799
1648.75,35.0423106962568
1649,35.1822173540337
1649.25,35.3221240118107
1649.5,35.4620306695876
1649.75,35.6019373273645
1650,35.7418439851414
1650.25,35.8817506429184
1650.5,36.0216573006953
1650.75,36.1615639584722
1651,36.3014706162491
1651.25,36.4413772740262
1651.5,36.5812839318031
1651.75,36.72119058958
1652,36.8610972473569
1652.25,37.0010039051339
1652.5,37.075161443947
1652.75,36.990218116011
1653,36.9052747880751
1653.25,36.8203314601391
1653.5,36.735388132203
1653.75,36.6504448042671
1654,36.5655014763311
1654.25,36.4805581483951
1654.5,36.3956148204591
1654.75,36.3106714925231
1655,36.2257281645871
1655.25,36.1407848366511
1655.5,36.0558415087151
1655.75,35.9708981807791
1656,35.8859548528431
1656.25,35.8010115249072
1656.5,35.7160681969711
1656.75,35.6311248690351
1657,35.5461815410991
1657.25,35.4612382131632
1657.5,35.3874502333555
1657.75,35.342480236213
1658,35.2975102390704
1658.25,35.2525402419278
1658.5,35.2075702447852
1658.75,35.1626002476426
1659,35.1176302505
1659.25,35.0726602533575
1659.5,35.0276902562149
1659.75,34.9827202590723
1660,34.9377502619297
1660.25,34.8927802647871
1660.5,34.8478102676445
1660.75,34.8028402705019
1661,34.7578702733594
1661.25,34.7129002762168
1661.5,34.6679302790742
1661.75,34.6229602819316
1662,34.577990284789
1662.25,34.5330202876464
1662.5,34.462823126012
1662.75,34.322916468235
1663,34.1830098104581
1663.25,34.0431031526812
1663.5,33.9031964949043
1663.75,33.7632898371274
1664,33.6233831793504
1664.25,33.4834765215735
1664.5,33.3435698637966
1664.75,33.2036632060197
1665,33.0637565482426
1665.25,32.9238498904657
1665.5,32.7839432326888
1665.75,32.6440365749119
1666,32.5041299171349
1666.25,32.364223259358
1666.5,32.2243166015811
1666.75,32.0844099438042
1667,31.9445032860272
1667.25,31.8045966282503
1667.5,31.7063053624155
1667.75,31.7312886941613
1668,31.7562720259072
1668.25,31.7812553576531
1668.5,31.806238689399
1668.75,31.8312220211449
1669,31.8562053528907
1669.25,31.8811886846366
1669.5,31.9061720163825
1669.75,31.9311553481284
1670,31.9561386798743
1670.25,31.9811220116202
1670.5,32.006105343366
1670.75,32.0310886751119
1671,32.0560720068578
1671.25,32.0810553386037
1671.5,32.1060386703496
1671.75,32.1310220020954
1672,32.1560053338413
1672.25,32.1809886655872
1672.5,32.2262767882656
1672.75,32.3362034479474
1673,32.4461301076293
1673.25,32.5560567673112
1673.5,32.6659834269931
1673.75,32.7759100866749
1674,32.8858367463568
1674.25,32.9957634060386
1674.5,33.1056900657206
1674.75,33.2156167254024
1675,33.3255433850843
1675.25,33.4354700447661
1675.5,33.5453967044481
1675.75,33.6553233641299
1676,33.7652500238118
1676.25,33.8751766834936
1676.5,33.9851033431756
1676.75,34.0950300028574
1677,34.2049566625393
1677.25,34.3148833222211
1677.5,34.3909781883989
1677.75,34.3510048576055
1678,34.3110315268121
1678.25,34.2710581960187
1678.5,34.2310848652252
1678.75,34.1911115344318
1679,34.1511382036384
1679.25,34.111164872845
1679.5,34.0711915420516
1679.75,34.0312182112582
1680,33.9912448804648
1680.25,33.9512715496714
1680.5,33.911298218878
1680.75,33.8713248880846
1681,33.8313515572912
1681.25,33.7913782264978
1681.5,33.7514048957044
1681.75,33.7114315649109
1682,33.6714582341175
1682.25,33.6314849033241
1682.5,33.5989389465663
1682.75,33.5939422802172
1683,33.588945613868
1683.25,33.5839489475188
1683.5,33.5789522811696
1683.75,33.5739556148205
1684,33.5689589484713
1684.25,33.5639622821221
1684.5,33.5589656157729
1684.75,33.5539689494238
1685,33.5489722830746
1685.25,33.5439756167254
1685.5,33.5389789503762
1685.75,33.5339822840271
1686,33.5289856176779
1686.25,33.5239889513287
1686.5,33.5189922849795
1686.75,33.5139956186303
1687,33.5089989522812
1687.25,33.504002285932
1687.5,33.4492865987237
1687.75,33.1944566149158
1688,32.9396266311076
1688.25,32.6847966472997
1688.5,32.4299666634917
1688.75,32.1751366796838
1689,31.9203066958757
1689.25,31.6654767120677
1689.5,31.4106467282598
1689.75,31.1558167444519
1690,30.900986760644
1690.25,30.6461567768358
1690.5,30.3913267930279
1690.75,30.1364968092199
1691,29.881666825412
1691.25,29.6268368416039
1691.5,29.3720068577959
1691.75,29.117176873988
1692,28.8623468901801
1692.25,28.6075169063719
1692.5,28.4120601962092
1692.75,28.4770168587484
1693,28.5419735212877
1693.25,28.6069301838271
1693.5,28.6718868463663
1693.75,28.7368435089056
1694,28.8018001714449
1694.25,28.8667568339842
1694.5,28.9317134965235
1694.75,28.9966701590628
1695,29.061626821602
1695.25,29.1265834841413
1695.5,29.1915401466807
1695.75,29.2564968092199
1696,29.3214534717592
1696.25,29.3864101342985
1696.5,29.4513667968378
1696.75,29.5163234593771
1697,29.5812801219164
1697.25,29.6462367844556
1697.5,29.6896675873892
1697.75,29.6297075911992
1698,29.569747595009
1698.25,29.5097875988189
1698.5,29.4498276026288
1698.75,29.3898676064387
1699,29.3299076102486
1699.25,29.2699476140585
1699.5,29.2099876178683
1699.75,29.1500276216782
1700,29.0900676254881
1700.25,29.030107629298
1700.5,28.9701476331079
1700.75,28.9101876369178
1701,28.8502276407277
1701.25,28.7902676445376
1701.5,28.7303076483475
1701.75,28.6703476521573
1702,28.6103876559672
1702.25,28.5504276597771
1702.5,28.5270082865034
1702.75,28.6968949423755
1703,28.8667815982475
1703.25,29.0366682541194
1703.5,29.2065549099914
1703.75,29.3764415658635
1704,29.5463282217354
1704.25,29.7162148776074
1704.5,29.8861015334793
1704.75,30.0559881893515
1705,30.2258748452234
1705.25,30.3957615010954
1705.5,30.5656481569673
1705.75,30.7355348128393
1706,30.9054214687114
1706.25,31.0753081245833
1706.5,31.2451947804553
1706.75,31.4150814363272
1707,31.5849680921993
1707.25,31.7548547480713
1707.5,31.8847185446233
1707.75,31.7797885512906
1708,31.6748585579579
1708.25,31.5699285646252
1708.5,31.4649985712925
1708.75,31.3600685779598
1709,31.2551385846271
1709.25,31.1502085912944
1709.5,31.0452785979617
1709.75,30.940348604629
1710,30.8354186112963
1710.25,30.7304886179636
1710.5,30.6255586246309
1710.75,30.5206286312982
1711,30.4156986379656
1711.25,30.3107686446328
1711.5,30.2058386513001
1711.75,30.1009086579674
1712,29.9959786646348
1712.25,29.891048671302
1712.5,29.8026440613392
1712.75,29.8226307267359
1713,29.8426173921326
1713.25,29.8626040575293
1713.5,29.882590722926
1713.75,29.9025773883227
1714,29.9225640537194
1714.25,29.9425507191161
1714.5,29.9625373845128
1714.75,29.9825240499095
1715,30.0025107153062
1715.25,30.0224973807029
1715.5,30.0424840460996
1715.75,30.0624707114963
1716,30.082457376893
1716.25,30.1024440422897
1716.5,30.1224307076865
1716.75,30.1424173730832
1717,30.1624040384799
1717.25,30.1823907038766
1717.5,30.2047547385465
1717.75,30.2447280693399
1718,30.2847014001333
1718.25,30.3246747309267
1718.5,30.3646480617202
1718.75,30.4046213925136
1719,30.444594723307
1719.25,30.4845680541004
1719.5,30.5245413848938
1719.75,30.5645147156872
1720,30.6044880464806
1720.25,30.644461377274
1720.5,30.6844347080675
1720.75,30.7244080388609
1721,30.7643813696543
1721.25,30.8043547004477
1721.5,30.8443280312411
1721.75,30.8843013620345
1722,30.9242746928279
1722.25,30.9642480236213
1722.5,31.003166015811
1722.75,31.0331460139061
1723,31.0631260120011
1723.25,31.0931060100962
1723.5,31.1230860081912
1723.75,31.1530660062863
1724,31.1830460043814
1724.25,31.2130260024764
1724.5,31.2430060005715
1724.75,31.2729859986666
1725,31.3029659967616
1725.25,31.3329459948567
1725.5,31.3629259929517
1725.75,31.3929059910468
1726,31.4228859891418
1726.25,31.4528659872369
1726.5,31.4828459853319
1726.75,31.512825983427
1727,31.5428059815221
1727.25,31.5727859796171
1727.5,31.6041489665682
1727.75,31.6491189637108
1728,31.6940889608534
1728.25,31.739058957996
1728.5,31.7840289551386
1728.75,31.8289989522812
1729,31.8739689494238
1729.25,31.9189389465664
1729.5,31.9639089437089
1729.75,32.0088789408515
1730,32.0538489379941
1730.25,32.0988189351367
1730.5,32.1437889322793
1730.75,32.1887589294218
1731,32.2337289265645
1731.25,32.278698923707
1731.5,32.3236689208496
1731.75,32.3686389179922
1732,32.4136089151348
1732.25,32.4585789122774
1732.5,32.4826497761691
1732.75,32.2627964568054
1733,32.0429431374417
1733.25,31.8230898180778
1733.5,31.6032364987141
1733.75,31.3833831793504
1734,31.1635298599867
1734.25,30.9436765406228
1734.5,30.7238232212591
1734.75,30.5039699018954
1735,30.2841165825317
1735.25,30.0642632631678
1735.5,29.8444099438041
1735.75,29.6245566244404
1736,29.4047033050767
1736.25,29.1848499857128
1736.5,28.9649966663491
1736.75,28.7451433469854
1737,28.5252900276217
1737.25,28.305436708258
1737.5,28.1045871035337
1737.75,28.1745404324221
1738,28.2444937613106
1738.25,28.314447090199
1738.5,28.3844004190876
1738.75,28.454353747976
1739,28.5243070768645
1739.25,28.5942604057529
1739.5,28.6642137346414
1739.75,28.7341670635299
1740,28.8041203924183
1740.25,28.8740737213068
1740.5,28.9440270501953
1740.75,29.0139803790837
1741,29.0839337079722
1741.25,29.1538870368606
1741.5,29.2238403657492
1741.75,29.2937936946376
1742,29.3637470235261
1742.25,29.4337003524145
1742.5,29.4947804552815
1742.75,29.3948471282979
1743,29.2949138013144
1743.25,29.1949804743309
1743.5,29.0950471473474
1743.75,28.9951138203638
1744,28.8951804933803
1744.25,28.7952471663968
1744.5,28.6953138394133
1744.75,28.5953805124297
1745,28.4954471854462
1745.25,28.3955138584627
1745.5,28.2955805314792
1745.75,28.1956472044956
1746,28.0957138775121
1746.25,27.9957805505286
1746.5,27.8958472235451
1746.75,27.7959138965615
1747,27.695980569578
1747.25,27.5960472425945
1747.5,27.4996113915611
1747.75,27.4896180588628
1748,27.4796247261644
1748.25,27.469631393466
1748.5,27.4596380607677
1748.75,27.4496447280693
1749,27.439651395371
1749.25,27.4296580626726
1749.5,27.4196647299743
1749.75,27.4096713972759
1750,27.3996780645776
1750.25,27.3896847318792
1750.5,27.3796913991809
1750.75,27.3696980664825
1751,27.3597047337842
1751.25,27.3497114010858
1751.5,27.3397180683875
1751.75,27.3297247356891
1752,27.3197314029908
1752.25,27.3097380702924
1752.5,27.2993618439851
1752.75,27.2743785122393
1753,27.2493951804934
1753.25,27.2244118487475
1753.5,27.1994285170016
1753.75,27.1744451852557
1754,27.1494618535099
1754.25,27.124478521764
1754.5,27.0994951900181
1754.75,27.0745118582722
1755,27.0495285265263
1755.25,27.0245451947804
1755.5,26.9995618630346
1755.75,26.9745785312887
1756,26.9495951995428
1756.25,26.9246118677969
1756.5,26.899628536051
1756.75,26.8746452043052
1757,26.8496618725593
1757.25,26.8246785408134
1757.5,26.7988417944566
1757.75,26.7039051338223
1758,26.6089684731879
1758.25,26.5140318125536
1758.5,26.4190951519192
1758.75,26.3241584912849
1759,26.2292218306505
1759.25,26.1342851700162
1759.5,26.0393485093818
1759.75,25.9444118487475
1760,25.8494751881132
1760.25,25.7545385274788
1760.5,25.6596018668444
1760.75,25.5646652062101
1761,25.4697285455758
1761.25,25.3747918849414
1761.5,25.279855224307
1761.75,25.1849185636727
1762,25.0899819030384
1762.25,24.9950452424041
1762.5,24.9001085817696
1762.75,25.1745023335557
1763,25.4493189827603
1763.25,25.7241356319649
1763.5,25.9989522811695
1763.75,26.2737689303744
1764,26.548585579579
1764.25,26.8234022287837
1764.5,27.0982188779883
1764.75,27.3730355271932
1765,27.6478521763978
1765.25,27.9226688256024
1765.5,28.1974854748071
1765.75,28.4723021240119
1766,28.7471187732166
1766.25,29.0219354224212
1766.5,29.2967520716258
1766.75,29.5715687208307
1767,29.8463853700353
1767.25,30.1212020192399
1767.5,30.3960186684446
1767.75,30.7348509381848
1768,31.0746242499287
1768.25,31.4143975616726
1768.5,31.7541708734165
1768.75,32.0939441851604
1769,32.4337174969046
1769.25,32.7734908086485
1769.5,33.1132641203924
1769.75,33.4530374321363
1770,33.7928107438805
1770.25,34.1325840556244
1770.5,34.4723573673683
1770.75,34.8121306791122
1771,35.1519039908564
1771.25,35.4916773026003
1771.5,35.8314506143442
1771.75,36.1712239260881
1772,36.5109972378323
1772.25,36.8507705495762
1772.5,37.1905438613202
1772.75,37.2728640822935
1773,37.3478140775312
1773.25,37.4227640727689
1773.5,37.4977140680065
1773.75,37.5726640632441
1774,37.6476140584817
1774.25,37.7225640537194
1774.5,37.7975140489571
1774.75,37.8724640441947
1775,37.9474140394323
1775.25,38.02236403467
1775.5,38.0973140299076
1775.75,38.1722640251453
1776,38.2472140203829
1776.25,38.3221640156206
1776.5,38.3971140108582
1776.75,38.4720640060958
1777,38.5470140013335
1777.25,38.6219639965711
1777.5,38.6969139918088
1777.75,38.7239546623488
1778,38.7489379940947
1778.25,38.7739213258406
1778.5,38.7989046575864
1778.75,38.8238879893323
1779,38.8488713210782
1779.25,38.8738546528241
1779.5,38.89883798457
1779.75,38.9238213163158
1780,38.9488046480617
1780.25,38.9737879798076
1780.5,38.9987713115535
1780.75,39.0237546432994
1781,39.0487379750452
1781.25,39.0737213067911
1781.5,39.098704638537
1781.75,39.1236879702829
1782,39.1486713020288
1782.25,39.1736546337746
1782.5,39.1986379655205
1782.75,39.048823697495
1783,38.8889303743214
1783.25,38.7290370511478
1783.5,38.569143727974
1783.75,38.4092504048004
1784,38.2493570816268
1784.25,38.0894637584532
1784.5,37.9295704352796
1784.75,37.7696771121059
1785,37.6097837889323
1785.25,37.4498904657587
1785.5,37.2899971425851
1785.75,37.1301038194113
1786,36.9702104962377
1786.25,36.8103171730641
1786.5,36.6504238498905
1786.75,36.4905305267168
1787,36.3306372035432
1787.25,36.1707438803696
1787.5,36.010850557196
1787.75,35.878902752643
1788,35.7489894275645
1788.25,35.6190761024859
1788.5,35.4891627774074
1788.75,35.3592494523287
1789,35.2293361272502
1789.25,35.0994228021716
1789.5,34.9695094770931
1789.75,34.8395961520145
1790,34.7096828269358
1790.25,34.5797695018573
1790.5,34.4498561767787
1790.75,34.3199428517002
1791,34.1900295266215
1791.25,34.060116201543
1791.5,33.9302028764644
1791.75,33.8002895513859
1792,33.6703762263072
1792.25,33.5404629012287
1792.5,33.4105495761501
1792.75,33.3035908181732
1793,33.1986608248404
1793.25,33.0937308315077
1793.5,32.9888008381751
1793.75,32.8838708448424
1794,32.7789408515096
1794.25,32.6740108581769
1794.5,32.5690808648443
1794.75,32.4641508715116
1795,32.3592208781789
1795.25,32.2542908848461
1795.5,32.1493608915135
1795.75,32.0444308981808
1796,31.9395009048481
1796.25,31.8345709115153
1796.5,31.7296409181827
1796.75,31.62471092485
1797,31.5197809315173
1797.25,31.4148509381845
1797.5,31.3099209448519
1797.75,31.2592818363654
1798,31.2143118392228
1798.25,31.1693418420802
1798.5,31.1243718449376
1798.75,31.079401847795
1799,31.0344318506524
1799.25,30.9894618535098
1799.5,30.9444918563673
1799.75,30.8995218592247
1800,30.8545518620821
1800.25,30.8095818649395
1800.5,30.7646118677969
1800.75,30.7196418706543
1801,30.6746718735118
1801.25,30.6297018763692
1801.5,30.5847318792266
1801.75,30.539761882084
1802,30.4947918849414
1802.25,30.4498218877988
1802.5,30.4048518906562
1802.75,30.3019335174778
1803,30.192006857796
1803.25,30.0820801981141
1803.5,29.9721535384322
1803.75,29.8622268787503
1804,29.7523002190685
1804.25,29.6423735593866
1804.5,29.5324468997047
1804.75,29.4225202400228
1805,29.312593580341
1805.25,29.2026669206591
1805.5,29.0927402609773
1805.75,28.9828136012953
1806,28.8728869416135
1806.25,28.7629602819316
1806.5,28.6530336222498
1806.75,28.5431069625678
1807,28.433180302886
1807.25,28.3232536432041
1807.5,28.2133269835223
1807.75,28.0638822745023
1808,27.9089856176778
1808.25,27.7540889608534
1808.5,27.599192304029
1808.75,27.4442956472044
1809,27.28939899038
1809.25,27.1345023335556
1809.5,26.9796056767311
1809.75,26.8247090199066
1810,26.6698123630821
1810.25,26.5149157062577
1810.5,26.3600190494333
1810.75,26.2051223926089
1811,26.0502257357843
1811.25,25.8953290789599
1811.5,25.7404324221355
1811.75,25.585535765311
1812,25.4306391084865
1812.25,25.275742451662
1812.5,25.1208457948376
1812.75,25.1259453281265
1813,25.1559253262216
1813.25,25.1859053243166
1813.5,25.2158853224117
1813.75,25.2458653205067
1814,25.2758453186018
1814.25,25.3058253166968
1814.5,25.3358053147919
1814.75,25.3657853128869
1815,25.395765310982
1815.25,25.4257453090771
1815.5,25.4557253071721
1815.75,25.4857053052672
1816,25.5156853033622
1816.25,25.5456653014573
1816.5,25.5756452995523
1816.75,25.6056252976474
1817,25.6356052957424
1817.25,25.6655852938375
1817.5,25.6955652919326
1817.75,25.7425754833794
1818,25.7925421468711
1818.25,25.8425088103629
1818.5,25.8924754738547
1818.75,25.9424421373464
1819,25.9924088008382
1819.25,26.04237546433
1819.5,26.0923421278217
1819.75,26.1423087913135
1820,26.1922754548052
1820.25,26.242242118297
1820.5,26.2922087817888
1820.75,26.3421754452805
1821,26.3921421087723
1821.25,26.442108772264
1821.5,26.4920754357558
1821.75,26.5420420992476
1822,26.5920087627393
1822.25,26.6419754262311
1822.5,26.6919420897229
1822.75,26.6748547480712
1823,26.6448747499762
1823.25,26.6148947518811
1823.5,26.5849147537861
1823.75,26.554934755691
1824,26.524954757596
1824.25,26.4949747595009
1824.5,26.4649947614058
1824.75,26.4350147633108
1825,26.4050347652157
1825.25,26.3750547671207
1825.5,26.3450747690256
1825.75,26.3150947709306
1826,26.2851147728355
1826.25,26.2551347747405
1826.5,26.2251547766454
1826.75,26.1951747785503
1827,26.1651947804553
1827.25,26.1352147823602
1827.5,26.1052347842652
1827.75,26.1164968092199
1828,26.1364834746166
1828.25,26.1564701400133
1828.5,26.17645680541
1828.75,26.1964434708068
1829,26.2164301362035
1829.25,26.2364168016002
1829.5,26.2564034669969
1829.75,26.2763901323936
1830,26.2963767977903
1830.25,26.316363463187
1830.5,26.3363501285837
1830.75,26.3563367939804
1831,26.3763234593771
1831.25,26.3963101247738
1831.5,26.4162967901705
1831.75,26.4362834555672
1832,26.4562701209639
1832.25,26.4762567863606
1832.5,26.4962434517573
1832.75,26.7353366987331
1833,27.0251433469856
1833.25,27.3149499952377
1833.5,27.6047566434899
1833.75,27.894563291742
1834,28.1843699399944
1834.25,28.4741765882466
1834.5,28.7639832364987
1834.75,29.0537898847509
1835,29.3435965330033
1835.25,29.6334031812554
1835.5,29.9232098295076
1835.75,30.2130164777597
1836,30.5028231260119
1836.25,30.7926297742643
1836.5,31.0824364225165
1836.75,31.3722430707686
1837,31.6620497190208
1837.25,31.9518563672732
1837.5,32.2416630155253
1837.75,32.3
1838,32.3
1838.25,32.3
1838.5,32.3
1838.75,32.3
1839,32.3
1839.25,32.3
1839.5,32.3
1839.75,32.3
1840,32.3
1840.25,32.3
1840.5,32.3
1840.75,32.3
1841,32.3
1841.25,32.3
1841.5,32.3
1841.75,32.3
1842,32.3
1842.25,32.3
1842.5,32.3
1842.75,32.1940470521002
1843,32.0591370606724
1843.25,31.9242270692447
1843.5,31.7893170778169
1843.75,31.6544070863891
1844,31.5194970949614
1844.25,31.3845871035337
1844.5,31.2496771121059
1844.75,31.1147671206781
1845,30.9798571292504
1845.25,30.8449471378227
1845.5,30.7100371463948
1845.75,30.5751271549671
1846,30.4402171635394
1846.25,30.3053071721116
1846.5,30.1703971806839
1846.75,30.0354871892561
1847,29.9005771978283
1847.25,29.7656672064006
1847.5,29.6307572149729
1847.75,29.5228497952186
1848,29.4229164682351
1848.25,29.3229831412516
1848.5,29.2230498142681
1848.75,29.1231164872845
1849,29.023183160301
1849.25,28.9232498333175
1849.5,28.823316506334
1849.75,28.7233831793504
1850,28.6234498523669
1850.25,28.5235165253834
1850.5,28.4235831983999
1850.75,28.3236498714163
1851,28.2237165444328
1851.25,28.1237832174493
1851.5,28.0238498904658
1851.75,27.9239165634823
1852,27.8239832364987
1852.25,27.7240499095152
1852.5,27.6241165825317
1852.75,27.5962091627774
1853,27.5912124964282
1853.25,27.5862158300791
1853.5,27.5812191637299
1853.75,27.5762224973807
1854,27.5712258310315
1854.25,27.5662291646824
1854.5,27.5612324983332
1854.75,27.556235831984
1855,27.5512391656348
1855.25,27.5462424992856
1855.5,27.5412458329365
1855.75,27.5362491665873
1856,27.5312525002381
1856.25,27.5262558338889
1856.5,27.5212591675398
1856.75,27.5162625011906
1857,27.5112658348414
1857.25,27.5062691684922
1857.5,27.5012725021431
1857.75,27.3622059243738
1858,27.1773292694543
1858.25,26.9924526145346
1858.5,26.8075759596152
1858.75,26.6226993046957
1859,26.4378226497762
1859.25,26.2529459948566
1859.5,26.0680693399371
1859.75,25.8831926850176
1860,25.6983160300981
1860.25,25.5134393751785
1860.5,25.328562720259
1860.75,25.1436860653395
1861,24.9588094104201
1861.25,24.7739327555004
1861.5,24.589056100581
1861.75,24.4041794456615
1862,24.219302790742
1862.25,24.0344261358225
1862.5,23.8495494809029
1862.75,23.8182874559482
1863,23.8432707876941
1863.25,23.8682541194399
1863.5,23.8932374511858
1863.75,23.9182207829317
1864,23.9432041146776
1864.25,23.9681874464235
1864.5,23.9931707781694
1864.75,24.0181541099152
1865,24.0431374416611
1865.25,24.068120773407
1865.5,24.0931041051529
1865.75,24.1180874368988
1866,24.1430707686446
1866.25,24.1680541003905
1866.5,24.1930374321364
1866.75,24.2180207638823
1867,24.2430040956282
1867.25,24.267987427374
1867.5,24.2929707591199
1867.75,24.3646347271169
1868,24.4545747214021
1868.25,24.5445147156872
1868.5,24.6344547099724
1868.75,24.7243947042576
1869,24.8143346985427
1869.25,24.9042746928279
1869.5,24.994214687113
1869.75,25.0841546813983
1870,25.1740946756834
1870.25,25.2640346699686
1870.5,25.3539746642537
1870.75,25.443914658539
1871,25.5338546528241
1871.25,25.6237946471093
1871.5,25.7137346413944
1871.75,25.8036746356796
1872,25.8936146299648
1872.25,25.9835546242499
1872.5,26.0734946185351
1872.75,26.2339175159538
1873,26.4237908372227
1873.25,26.6136641584913
1873.5,26.80353747976
1873.75,26.9934108010286
1874,27.1832841222974
1874.25,27.3731574435661
1874.5,27.5630307648347
1874.75,27.7529040861034
1875,27.9427774073722
1875.25,28.1326507286409
1875.5,28.3225240499095
1875.75,28.5123973711782
1876,28.702270692447
1876.25,28.8921440137156
1876.5,29.0820173349843
1876.75,29.2718906562529
1877,29.4617639775218
1877.25,29.6516372987904
1877.5,29.8415106200591
1877.75,29.8515953900372
1878,29.7816420611487
1878.25,29.7116887322602
1878.5,29.6417354033717
1878.75,29.5717820744833
1879,29.5018287455948
1879.25,29.4318754167063
1879.5,29.3619220878179
1879.75,29.2919687589294
1880,29.222015430041
1880.25,29.1520621011525
1880.5,29.082108772264
1880.75,29.0121554433756
1881,28.9422021144871
1881.25,28.8722487855986
1881.5,28.8022954567101
1881.75,28.7323421278217
1882,28.6623887989332
1882.25,28.5924354700447
1882.5,28.5224821411563
1882.75,28.4355748166492
1883,28.3406381560149
1883.25,28.2457014953805
1883.5,28.1507648347461
1883.75,28.0558281741118
1884,27.9608915134775
1884.25,27.8659548528432
1884.5,27.7710181922087
1884.75,27.6760815315744
1885,27.5811448709401
1885.25,27.4862082103058
1885.5,27.3912715496714
1885.75,27.296334889037
1886,27.2013982284027
1886.25,27.1064615677684
1886.5,27.011524907134
1886.75,26.9165882464996
1887,26.8216515858653
1887.25,26.726714925231
1887.5,26.6317782645966
1887.75,26.73296504429
1888,26.932831698257
1888.25,27.132698352224
1888.5,27.332565006191
1888.75,27.5324316601582
1889,27.7322983141252
1889.25,27.9321649680922
1889.5,28.1320316220592
1889.75,28.3318982760264
1890,28.5317649299934
1890.25,28.7316315839604
1890.5,28.9314982379274
1890.75,29.1313648918946
1891,29.3312315458616
1891.25,29.5310981998286
1891.5,29.7309648537956
1891.75,29.9308315077627
1892,30.1306981617297
1892.25,30.3305648156967
1892.5,30.5304314696637
1892.75,30.5967425469092
1893,30.5917458805601
1893.25,30.5867492142109
1893.5,30.5817525478617
1893.75,30.5767558815125
1894,30.5717592151633
1894.25,30.5667625488142
1894.5,30.561765882465
1894.75,30.5567692161158
1895,30.5517725497666
1895.25,30.5467758834175
1895.5,30.5417792170683
1895.75,30.5367825507191
1896,30.5317858843699
1896.25,30.5267892180208
1896.5,30.5217925516716
1896.75,30.5167958853224
1897,30.5117992189732
1897.25,30.5068025526241
1897.5,30.5018058862749
1897.75,30.445756738737
1898,30.360813410801
1898.25,30.275870082865
1898.5,30.190926754929
1898.75,30.1059834269931
1899,30.0210400990571
1899.25,29.936096771121
1899.5,29.8511534431851
1899.75,29.7662101152491
1900,29.6812667873131
1900.25,29.5963234593771
1900.5,29.5113801314411
1900.75,29.4264368035051
1901,29.3414934755691
1901.25,29.2565501476331
1901.5,29.1716068196971
1901.75,29.0866634917611
1902,29.0017201638251
1902.25,28.9167768358891
1902.5,28.8318335079531
1902.75,28.8249928564625
1903,28.8649661872559
1903.25,28.9049395180494
1903.5,28.9449128488428
1903.75,28.9848861796362
1904,29.0248595104296
1904.25,29.064832841223
1904.5,29.1048061720164
1904.75,29.1447795028098
1905,29.1847528336032
1905.25,29.2247261643966
1905.5,29.26469949519
1905.75,29.3046728259834
1906,29.3446461567768
1906.25,29.3846194875702
1906.5,29.4245928183637
1906.75,29.4645661491571
1907,29.5045394799505
1907.25,29.5445128107439
1907.5,29.5844861415373
1907.75,29.6519763787028
1908,29.7369197066387
1908.25,29.8218630345747
1908.5,29.9068063625108
1908.75,29.9917496904467
1909,30.0766930183827
1909.25,30.1616363463187
1909.5,30.2465796742547
1909.75,30.3315230021907
1910,30.4164663301267
1910.25,30.5014096580627
1910.5,30.5863529859986
1910.75,30.6712963139347
1911,30.7562396418707
1911.25,30.8411829698066
1911.5,30.9261262977426
1911.75,31.0110696256787
1912,31.0960129536147
1912.25,31.1809562815506
1912.5,31.2658996094866
1912.75,31.2820554338508
1913,31.2520754357558
1913.25,31.2220954376607
1913.5,31.1921154395657
1913.75,31.1621354414706
1914,31.1321554433755
1914.25,31.1021754452805
1914.5,31.0721954471855
1914.75,31.0422154490904
1915,31.0122354509953
1915.25,30.9822554529003
1915.5,30.9522754548052
1915.75,30.9222954567102
1916,30.8923154586151
1916.25,30.86233546052
1916.5,30.832355462425
1916.75,30.8023754643299
1917,30.7723954662349
1917.25,30.7424154681398
1917.5,30.7124354700448
1917.75,30.8257357843604
1918,31.0405924373751
1918.25,31.2554490903896
1918.5,31.4703057434041
1918.75,31.6851623964187
1919,31.9000190494334
1919.25,32.1148757024479
1919.5,32.3297323554624
1919.75,32.544589008477
1920,32.7594456614915
1920.25,32.9743023145062
1920.5,33.1891589675207
1920.75,33.4040156205353
1921,33.6188722735498
1921.25,33.8337289265645
1921.5,34.048585579579
1921.75,34.2634422325936
1922,34.4782988856081
1922.25,34.6931555386228
1922.5,34.9080121916373
1922.75,34.762834555672
1923,34.3481112486904
1923.25,33.9333879417085
1923.5,33.518664634727
1923.75,33.1039413277455
1924,32.6892180207639
1924.25,32.274494713782
1924.5,31.8597714068005
1924.75,31.445048099819
1925,31.0303247928375
1925.25,30.6156014858559
1925.5,30.200878178874
1925.75,29.7861548718925
1926,29.371431564911
1926.25,28.9567082579294
1926.5,28.5419849509475
1926.75,28.127261643966
1927,27.7125383369845
1927.25,27.297815030003
1927.5,26.8830917230211
1927.75,26.7641870654348
1928,26.8791103914659
1928.25,26.9940337174969
1928.5,27.108957043528
1928.75,27.223880369559
1929,27.3388036955901
1929.25,27.4537270216211
1929.5,27.5686503476522
1929.75,27.6835736736832
1930,27.7984969997143
1930.25,27.9134203257453
1930.5,28.0283436517763
1930.75,28.1432669778075
1931,28.2581903038385
1931.25,28.3731136298695
1931.5,28.4880369559005
1931.75,28.6029602819317
1932,28.7178836079627
1932.25,28.8328069339937
1932.5,28.9477302600247
1932.75,28.8855891037241
1933,28.6757291170587
1933.25,28.4658691303934
1933.5,28.256009143728
1933.75,28.0461491570625
1934,27.8362891703971
1934.25,27.6264291837318
1934.5,27.4165691970664
1934.75,27.2067092104009
1935,26.9968492237355
1935.25,26.7869892370702
1935.5,26.5771292504048
1935.75,26.3672692637395
1936,26.1574092770739
1936.25,25.9475492904086
1936.5,25.7376893037432
1936.75,25.5278293170777
1937,25.3179693304125
1937.25,25.108109343747
1937.5,24.8982493570814
1937.75,24.9222402133536
1938,25.1520868654159
1938.25,25.3819335174777
1938.5,25.61178016954
1938.75,25.8416268216022
1939,26.0714734736641
1939.25,26.3013201257263
1939.5,26.5311667777886
1939.75,26.7610134298504
1940,26.9908600819127
1940.25,27.2207067339745
1940.5,27.4505533860368
1940.75,27.6804000380991
1941,27.9102466901609
1941.25,28.1400933422232
1941.5,28.369939994285
1941.75,28.5997866463473
1942,28.8296332984095
1942.25,29.0594799504714
1942.5,29.2893266025336
1942.75,29.5139918087439
1943,29.7338451281074
1943.25,29.9536984474713
1943.5,30.1735517668348
1943.75,30.3934050861987
1944,30.6132584055626
1944.25,30.8331117249261
1944.5,31.05296504429
1944.75,31.2728183636539
1945,31.4926716830174
1945.25,31.7125250023813
1945.5,31.9323783217448
1945.75,32.1522316411087
1946,32.3720849604726
1946.25,32.5919382798361
1946.5,32.8117915992
1946.75,33.0316449185635
1947,33.2514982379274
1947.25,33.4713515572913
1947.5,33.6912048766548
1947.75,33.95649109439
1948,34.2662844080391
1948.25,34.5760777216877
1948.5,34.8858710353368
1948.75,35.1956643489854
1949,35.5054576626345
1949.25,35.8152509762837
1949.5,36.1250442899322
1949.75,36.4348376035814
1950,36.7446309172305
1950.25,37.0544242308791
1950.5,37.3642175445282
1950.75,37.6740108581768
1951,37.9838041718259
1951.25,38.2935974854751
1951.5,38.6033907991236
1951.75,38.9131841127728
1952,39.2229774264213
1952.25,39.5327707400705
1952.5,39.8425640537196
1952.75,40.0122868844652
1953,40.0372702162111
1953.25,40.062253547957
1953.5,40.0872368797028
1953.75,40.1122202114487
1954,40.1372035431946
1954.25,40.1621868749405
1954.5,40.1871702066864
1954.75,40.2121535384322
1955,40.2371368701781
1955.25,40.262120201924
1955.5,40.2871035336699
1955.75,40.3120868654158
1956,40.3370701971616
1956.25,40.3620535289075
1956.5,40.3870368606534
1956.75,40.4120201923993
1957,40.4370035241452
1957.25,40.461986855891
1957.5,40.4869701876369
1957.75,40.5
1958,40.5
1958.25,40.5
1958.5,40.5
1958.75,40.5
1959,40.5
1959.25,40.5
1959.5,40.5
1959.75,40.5
1960,40.5
1960.25,40.5
1960.5,40.5
1960.75,40.5
1961,40.5
1961.25,40.5
1961.5,40.5
1961.75,40.5
1962,40.5
1962.25,40.5
1962.5,40.5
1962.75,40.4395751976379
1963,40.3096618725592
1963.25,40.1797485474808
1963.5,40.0498352224021
1963.75,39.9199218973234
1964,39.790008572245
1964.25,39.6600952471663
1964.5,39.5301819220879
1964.75,39.4002685970092
1965,39.2703552719306
1965.25,39.1404419468521
1965.5,39.0105286217735
1965.75,38.8806152966948
1966,38.7507019716164
1966.25,38.6207886465377
1966.5,38.4908753214593
1966.75,38.3609619963806
1967,38.2310486713019
1967.25,38.1011353462235
1967.5,37.9712220211448
1967.75,37.7713306029148
1968,37.4865206210115
1968.25,37.2017106391083
1968.5,36.9169006572056
1968.75,36.6320906753024
1969,36.3472806933991
1969.25,36.0624707114964
1969.5,35.7776607295932
1969.75,35.4928507476904
1970,35.2080407657872
1970.25,34.923230783884
1970.5,34.6384208019813
1970.75,34.353610820078
1971,34.0688008381748
1971.25,33.7839908562721
1971.5,33.4991808743688
1971.75,33.2143708924661
1972,32.9295609105629
1972.25,32.6447509286596
1972.5,32.3599409467569
1972.75,32.1211353462234
1973,31.9412553576532
1973.25,31.7613753690828
1973.5,31.5814953805123
1973.75,31.4016153919422
1974,31.2217354033717
1974.25,31.0418554148013
1974.5,30.8619754262311
1974.75,30.6820954376606
1975,30.5022154490905
1975.25,30.32233546052
1975.5,30.1424554719496
1975.75,29.9625754833794
1976,29.782695494809
1976.25,29.6028155062385
1976.5,29.4229355176684
1976.75,29.2430555290979
1977,29.0631755405278
1977.25,28.8832955519573
1977.5,28.7034155633868
1977.75,28.6021240118106
1978,28.6071206781598
1978.25,28.612117344509
1978.5,28.6171140108582
1978.75,28.6221106772074
1979,28.6271073435565
1979.25,28.6321040099057
1979.5,28.6371006762549
1979.75,28.6420973426041
1980,28.6470940089532
1980.25,28.6520906753024
1980.5,28.6570873416516
1980.75,28.6620840080008
1981,28.6670806743499
1981.25,28.6720773406991
1981.5,28.6770740070483
1981.75,28.6820706733975
1982,28.6870673397466
1982.25,28.6920640060958
1982.5,28.697060672445
1982.75,28.7246880655301
1983,28.7846480617201
1983.25,28.8446080579103
1983.5,28.9045680541003
1983.75,28.9645280502905
1984,29.0244880464807
1984.25,29.0844480426707
1984.5,29.1444080388609
1984.75,29.204368035051
1985,29.2643280312411
1985.25,29.3242880274312
1985.5,29.3842480236213
1985.75,29.4442080198114
1986,29.5041680160016
1986.25,29.5641280121916
1986.5,29.6240880083818
1986.75,29.6840480045719
1987,29.744008000762
1987.25,29.8039679969521
1987.5,29.8639279931422
1987.75,29.8761120106677
1988,29.8161520144775
1988.25,29.7561920182875
1988.5,29.6962320220973
1988.75,29.6362720259073
1989,29.5763120297171
1989.25,29.516352033527
1989.5,29.4563920373369
1989.75,29.3964320411468
1990,29.3364720449566
1990.25,29.2765120487666
1990.5,29.2165520525764
1990.75,29.1565920563864
1991,29.0966320601962
1991.25,29.0366720640061
1991.5,28.976712067816
1991.75,28.9167520716259
1992,28.8567920754357
1992.25,28.7968320792457
1992.5,28.7368720830555
1992.75,28.7192399276121
1993,28.7692065911039
1993.25,28.8191732545957
1993.5,28.8691399180874
1993.75,28.9191065815792
1994,28.9690732450709
1994.25,29.0190399085627
1994.5,29.0690065720545
1994.75,29.1189732355462
1995,29.168939899038
1995.25,29.2189065625298
1995.5,29.2688732260215
1995.75,29.3188398895133
1996,29.368806553005
1996.25,29.4187732164968
1996.5,29.4687398799886
1996.75,29.5187065434803
1997,29.5686732069721
1997.25,29.6186398704639
1997.5,29.6686065339556
1997.75,29.7185731974474
1998,29.7685398609391
1998.25,29.8185065244309
1998.5,29.8684731879227
1998.75,29.9184398514144
1999,29.9684065149062
1999.25,30.0183731783979
1999.5,30.0683398418897
1999.75,30.1183065053815
2000,30.1682731688732
2000.25,30.218239832365
2000.5,30.2682064958568
2000.75,30.3181731593485
2001,30.3681398228403
2001.25,30.418106486332
2001.5,30.4680731498238
2001.75,30.5180398133156
2002,30.5680064768073
2002.25,30.6179731402991
2002.5,30.6679398037909
2002.75,30.6946280598152
2003,30.6796380607677
2003.25,30.6646480617202
2003.5,30.6496580626726
2003.75,30.6346680636251
2004,30.6196780645776
2004.25,30.60468806553
2004.5,30.5896980664825
2004.75,30.574708067435
2005,30.5597180683875
2005.25,30.5447280693399
2005.5,30.5297380702924
2005.75,30.5147480712449
2006,30.4997580721974
2006.25,30.4847680731498
2006.5,30.4697780741023
2006.75,30.4547880750548
2007,30.4397980760072
2007.25,30.4248080769597
2007.5,30.4098180779122
2007.75,30.44827126393
2008,30.5881779217068
2008.25,30.7280845794838
2008.5,30.8679912372606
2008.75,31.0078978950376
2009,31.1478045528147
2009.25,31.2877112105914
2009.5,31.4276178683685
2009.75,31.5675245261452
2010,31.7074311839223
2010.25,31.8473378416993
2010.5,31.9872444994761
2010.75,32.1271511572531
2011,32.2670578150301
2011.25,32.4069644728069
2011.5,32.5468711305839
2011.75,32.6867777883607
2012,32.8266844461377
2012.25,32.9665911039148
2012.5,33.1064977616915
2012.75,33.221544909039
2013,33.2865015715783
2013.25,33.3514582341175
2013.5,33.4164148966569
2013.75,33.4813715591961
2014,33.5463282217354
2014.25,33.6112848842747
2014.5,33.676241546814
2014.75,33.7411982093533
2015,33.8061548718925
2015.25,33.8711115344318
2015.5,33.9360681969712
2015.75,34.0010248595104
2016,34.0659815220497
2016.25,34.1309381845891
2016.5,34.1958948471283
2016.75,34.2608515096676
2017,34.3258081722068
2017.25,34.3907648347462
2017.5,34.4557214972855
2017.75,34.4920468616059
2018,34.46706352986
2018.25,34.4420801981141
2018.5,34.4170968663682
2018.75,34.3921135346223
2019,34.3671302028765
2019.25,34.3421468711306
2019.5,34.3171635393847
2019.75,34.2921802076388
2020,34.2671968758929
2020.25,34.2422135441471
2020.5,34.2172302124012
2020.75,34.1922468806553
2021,34.1672635489094
2021.25,34.1422802171635
2021.5,34.1172968854176
2021.75,34.0923135536718
2022,34.0673302219259
2022.25,34.04234689018
2022.5,34.0173635584341
2022.75,33.9359939041812
2023,33.726133917516
2023.25,33.5162739308505
2023.5,33.306413944185
2023.75,33.0965539575198
2024,32.8866939708542
2024.25,32.6768339841891
2024.5,32.4669739975235
2024.75,32.257114010858
2025,32.0472540241928
2025.25,31.8373940375273
2025.5,31.6275340508621
2025.75,31.4176740641966
2026,31.2078140775311
2026.25,30.9979540908659
2026.5,30.7880941042004
2026.75,30.5782341175348
2027,30.3683741308697
2027.25,30.1585141442041
2027.5,29.948654157539
2027.75,29.8072864082294
2028,29.8322697399753
2028.25,29.8572530717211
2028.5,29.882236403467
2028.75,29.9072197352129
2029,29.9322030669588
2029.25,29.9571863987047
2029.5,29.9821697304505
2029.75,30.0071530621964
2030,30.0321363939423
2030.25,30.0571197256882
2030.5,30.0821030574341
2030.75,30.1070863891799
2031,30.1320697209258
2031.25,30.1570530526717
2031.5,30.1820363844176
2031.75,30.2070197161635
2032,30.2320030479093
2032.25,30.2569863796552
2032.5,30.2819697114011
2032.75,30.2833126964473
2033,30.2233527002572
2033.25,30.163392704067
2033.5,30.103432707877
2033.75,30.0434727116868
2034,29.9835127154967
2034.25,29.9235527193066
2034.5,29.8635927231165
2034.75,29.8036327269264
2035,29.7436727307363
2035.25,29.6837127345461
2035.5,29.6237527383561
2035.75,29.5637927421659
2036,29.5038327459759
2036.25,29.4438727497857
2036.5,29.3839127535955
2036.75,29.3239527574055
2037,29.2639927612153
2037.25,29.2040327650252
2037.5,29.1440727688351
2037.75,29.0947042575483
2038,29.0747175921516
2038.25,29.0547309267549
2038.5,29.0347442613582
2038.75,29.0147575959615
2039,28.9947709305648
2039.25,28.9747842651681
2039.5,28.9547975997714
2039.75,28.9348109343747
2040,28.914824268978
2040.25,28.8948376035813
2040.5,28.8748509381846
2040.75,28.8548642727879
2041,28.8348776073912
2041.25,28.8148909419945
2041.5,28.7949042765978
2041.75,28.7749176112011
2042,28.7549309458044
2042.25,28.7349442804077
2042.5,28.7149576150109
2042.75,28.6886846366321
2043,28.6437146394895
2043.25,28.5987446423469
2043.5,28.5537746452043
2043.75,28.5088046480617
2044,28.4638346509192
2044.25,28.4188646537765
2044.5,28.3738946566339
2044.75,28.3289246594914
2045,28.2839546623488
2045.25,28.2389846652062
2045.5,28.1940146680636
2045.75,28.149044670921
2046,28.1040746737785
2046.25,28.0591046766359
2046.5,28.0141346794933
2046.75,27.9691646823507
2047,27.9241946852081
2047.25,27.8792246880656
2047.5,27.8342546909229
2047.75,27.8285741499191
2048,27.9484941422992
2048.25,28.0684141346796
2048.5,28.1883341270596
2048.75,28.30825411944
2049,28.4281741118203
2049.25,28.5480941042004
2049.5,28.6680140965807
2049.75,28.787934088961
2050,28.9078540813411
2050.25,29.0277740737214
2050.5,29.1476940661015
2050.75,29.2676140584818
2051,29.3875340508621
2051.25,29.5074540432422
2051.5,29.6273740356225
2051.75,29.7472940280026
2052,29.8672140203829
2052.25,29.9871340127632
2052.5,30.1070540051433
2052.75,30.2831698256978
2053,30.6529231355371
2053.25,31.0226764453757
2053.5,31.392429755215
2053.75,31.7621830650536
2054,32.1319363748929
2054.25,32.5016896847322
2054.5,32.8714429945708
2054.75,33.2411963044101
2055,33.6109496142494
2055.25,33.980702924088
2055.5,34.3504562339273
2055.75,34.7202095437659
2056,35.0899628536052
2056.25,35.4597161634444
2056.5,35.8294694732831
2056.75,36.1992227831224
2057,36.568976092961
2057.25,36.9387294028003
2057.5,37.3084827126395
2057.75,37.585198590342
2058,37.5152452614535
2058.25,37.4452919325649
2058.5,37.3753386036766
2058.75,37.305385274788
2059,37.2354319458997
2059.25,37.1654786170111
2059.5,37.0955252881226
2059.75,37.0255719592342
2060,36.9556186303457
2060.25,36.8856653014572
2060.5,36.8157119725688
2060.75,36.7457586436803
2061,36.6758053147919
2061.25,36.6058519859034
2061.5,36.5358986570149
2061.75,36.4659453281265
2062,36.395991999238
2062.25,36.3260386703496
2062.5,36.2560853414611
2062.75,36.1891037241642
2063,36.1341403943233
2063.25,36.0791770644823
2063.5,36.0242137346413
2063.75,35.9692504048005
2064,35.9142870749595
2064.25,35.8593237451186
2064.5,35.8043604152776
2064.75,35.7493970854367
2065,35.6944337555958
2065.25,35.6394704257548
2065.5,35.5845070959138
2065.75,35.529543766073
2066,35.474580436232
2066.25,35.4196171063911
2066.5,35.3646537765501
2066.75,35.3096904467092
2067,35.2547271168683
2067.25,35.1997637870273
2067.5,35.1448004571864
2067.75,35.1
2068,35.1
2068.25,35.1
2068.5,35.1
2068.75,35.1
2069,35.1
2069.25,35.1
2069.5,35.1
2069.75,35.1
2070,35.1
2070.25,35.1
2070.5,35.1
2070.75,35.1
2071,35.1
2071.25,35.1
2071.5,35.1
2071.75,35.1
2072,35.1
2072.25,35.1
2072.5,35.1
2072.75,35.1265739594246
2073,35.2814706162492
2073.25,35.4363672730737
2073.5,35.591263929898
2073.75,35.7461605867226
2074,35.9010572435472
2074.25,36.0559539003714
2074.5,36.210850557196
2074.75,36.3657472140203
2075,36.5206438708449
2075.25,36.6755405276694
2075.5,36.8304371844937
2075.75,36.9853338413183
2076,37.1402304981428
2076.25,37.2951271549671
2076.5,37.4500238117917
2076.75,37.604920468616
2077,37.7598171254405
2077.25,37.9147137822651
2077.5,38.0696104390894
2077.75,38.2387370225737
2078,38.483573673683
2078.25,38.7284103247928
2078.5,38.9732469759026
2078.75,39.218083627012
2079,39.4629202781218
2079.25,39.7077569292316
2079.5,39.9525935803409
2079.75,40.1974302314507
2080,40.4422668825601
2080.25,40.6871035336699
2080.5,40.9319401847797
2080.75,41.176776835889
2081,41.4216134869988
2081.25,41.6664501381086
2081.5,41.911286789218
2081.75,42.1561234403278
2082,42.4009600914371
2082.25,42.6457967425469
2082.5,42.8906333936567
2082.75,43.0362986951139
2083,42.5965920563861
2083.25,42.1568854176591
2083.5,41.7171787789313
2083.75,41.2774721402035
2084,40.8377655014765
2084.25,40.3980588627487
2084.5,39.9583522240209
2084.75,39.5186455852939
2085,39.0789389465661
2085.25,38.6392323078391
2085.5,38.1995256691113
2085.75,37.7598190303835
2086,37.3201123916565
2086.25,36.8804057529287
2086.5,36.4406991142009
2086.75,36.0009924754739
2087,35.5612858367461
2087.25,35.1215791980191
2087.5,34.6818725592913
2087.75,34.3078864653777
2088,34.3678464615678
2088.25,34.4278064577579
2088.5,34.4877664539479
2088.75,34.5477264501381
2089,34.6076864463283
2089.25,34.6676464425183
2089.5,34.7276064387085
2089.75,34.7875664348986
2090,34.8475264310887
2090.25,34.9074864272788
2090.5,34.9674464234689
2090.75,35.027406419659
2091,35.0873664158492
2091.25,35.1473264120392
2091.5,35.2072864082294
2091.75,35.2672464044195
2092,35.3272064006096
2092.25,35.3871663967997
2092.5,35.4471263929898
2092.75,35.4639775216687
2093,35.1591808743687
2093.25,34.8543842270693
2093.5,34.5495875797694
2093.75,34.24479093247
2094,33.93999428517
2094.25,33.6351976378701
2094.5,33.3304009905707
2094.75,33.0256043432707
2095,32.7208076959708
2095.25,32.4160110486714
2095.5,32.1112144013714
2095.75,31.806417754072
2096,31.5016211067721
2096.25,31.1968244594721
2096.5,30.8920278121727
2096.75,30.5872311648727
2097,30.2824345175728
2097.25,29.9776378702734
2097.5,29.6728412229734
2097.75,29.4047147347366
2098,29.4496847318792
2098.25,29.4946547290219
2098.5,29.5396247261644
2098.75,29.584594723307
2099,29.6295647204495
2099.25,29.6745347175921
2099.5,29.7195047147348
2099.75,29.7644747118773
2100,29.8094447090199
2100.25,29.8544147061625
2100.5,29.8993847033051
2100.75,29.9443547004477
2101,29.9893246975902
2101.25,30.0342946947328
2101.5,30.0792646918755
2101.75,30.124234689018
2102,30.1692046861606
2102.25,30.2141746833032
2102.5,30.2591446804458
2102.75,30.3100581007716
2103,30.4199847604533
2103.25,30.5299114201353
2103.5,30.6398380798172
2103.75,30.749764739499
2104,30.8596913991809
2104.25,30.9696180588627
2104.5,31.0795447185446
2104.75,31.1894713782266
2105,31.2993980379083
2105.25,31.4093246975903
2105.5,31.5192513572722
2105.75,31.629178016954
2106,31.7391046766359
2106.25,31.8490313363177
2106.5,31.9589579959996
2106.75,32.0688846556816
2107,32.1788113153633
2107.25,32.2887379750453
2107.5,32.3986646347272
2107.75,32.5046861605867
2108,32.5646461567769
2108.25,32.6246061529669
2108.5,32.6845661491571
2108.75,32.7445261453472
2109,32.8044861415373
2109.25,32.8644461377274
2109.5,32.9244061339175
2109.75,32.9843661301076
2110,33.0443261262978
2110.25,33.1042861224878
2110.5,33.164246118678
2110.75,33.2242061148681
2111,33.2841661110582
2111.25,33.3441261072483
2111.5,33.4040861034384
2111.75,33.4640460996285
2112,33.5240060958187
2112.25,33.5839660920087
2112.5,33.6439260881989
2112.75,33.6980569578055
2113,33.6680769597105
2113.25,33.6380969616154
2113.5,33.6081169635204
2113.75,33.5781369654253
2114,33.5481569673302
2114.25,33.5181769692352
2114.5,33.4881969711401
2114.75,33.4582169730451
2115,33.42823697495
2115.25,33.3982569768549
2115.5,33.3682769787599
2115.75,33.3382969806648
2116,33.3083169825697
2116.25,33.2783369844747
2116.5,33.2483569863796
2116.75,33.2183769882846
2117,33.1883969901895
2117.25,33.1584169920945
2117.5,33.1284369939994
2117.75,33.1066863510811
2118,33.2365996761598
2118.25,33.3665130012382
2118.5,33.4964263263169
2118.75,33.6263396513953
2119,33.756252976474
2119.25,33.8861663015526
2119.5,34.0160796266311
2119.75,34.1459929517097
2120,34.2759062767882
2120.25,34.4058196018668
2120.5,34.5357329269455
2120.75,34.6656462520239
2121,34.7955595771026
2121.25,34.9254729021813
2121.5,35.0553862272597
2121.75,35.1852995523384
2122,35.3152128774168
2122.25,35.4451262024955
2122.5,35.5750395275742
2122.75,35.7013334603295
2123,35.7363101247738
2123.25,35.7712867892181
2123.5,35.8062634536623
2123.75,35.8412401181065
2124,35.8762167825507
2124.25,35.911193446995
2124.5,35.9461701114392
2124.75,35.9811467758834
2125,36.0161234403277
2125.25,36.0511001047719
2125.5,36.0860767692161
2125.75,36.1210534336604
2126,36.1560300981046
2126.25,36.1910067625488
2126.5,36.2259834269931
2126.75,36.2609600914373
2127,36.2959367558815
2127.25,36.3309134203257
2127.5,36.36589008477
2127.75,36.3995047147347
2128,36.379518049338
2128.25,36.3595313839413
2128.5,36.3395447185446
2128.75,36.3195580531479
2129,36.2995713877512
2129.25,36.2795847223545
2129.5,36.2595980569578
2129.75,36.2396113915611
2130,36.2196247261644
2130.25,36.1996380607677
2130.5,36.179651395371
2130.75,36.1596647299743
2131,36.1396780645776
2131.25,36.1196913991809
2131.5,36.0997047337842
2131.75,36.0797180683874
2132,36.0597314029908
2132.25,36.039744737594
2132.5,36.0197580721974
2132.75,36.0005714829984
2133,36.0505381464902
2133.25,36.1005048099819
2133.5,36.1504714734737
2133.75,36.2004381369655
2134,36.2504048004572
2134.25,36.300371463949
2134.5,36.3503381274407
2134.75,36.4003047909325
2135,36.4502714544243
2135.25,36.500238117916
2135.5,36.5502047814078
2135.75,36.6001714448995
2136,36.6501381083913
2136.25,36.7001047718831
2136.5,36.7500714353748
2136.75,36.8000380988666
2137,36.8500047623584
2137.25,36.8999714258501
2137.5,36.9499380893419
2137.75,36.9999047528336
2138,37.0349099914278
2138.25,37.069886655872
2138.5,37.1048633203162
2138.75,37.1398399847605
2139,37.1748166492047
2139.25,37.2097933136489
2139.5,37.2447699780932
2139.75,37.2797466425374
2140,37.3147233069816
2140.25,37.3496999714259
2140.5,37.3846766358701
2140.75,37.4196533003143
2141,37.4546299647585
2141.25,37.4896066292028
2141.5,37.524583293647
2141.75,37.5595599580912
2142,37.5945366225355
2142.25,37.6295132869798
2142.5,37.6644899514239
2142.75,37.6994666158682
2143,37.7246023430803
2143.25,37.7495856748262
2143.5,37.7745690065721
2143.75,37.7995523383179
2144,37.8245356700638
2144.25,37.8495190018097
2144.5,37.8745023335556
2144.75,37.8994856653015
2145,37.9244689970473
2145.25,37.9494523287932
2145.5,37.9744356605391
2145.75,37.999418992285
2146,38.0244023240309
2146.25,38.0493856557767
2146.5,38.0743689875226
2146.75,38.0993523192685
2147,38.1243356510144
2147.25,38.1493189827603
2147.5,38.1743023145062
2147.75,38.199285646252
2148,38.2436841603963
2148.25,38.2886541575388
2148.5,38.3336241546814
2148.75,38.378594151824
2149,38.4235641489666
2149.25,38.4685341461092
2149.5,38.5135041432517
2149.75,38.5584741403943
2150,38.6034441375369
2150.25,38.6484141346795
2150.5,38.6933841318221
2150.75,38.7383541289647
2151,38.7833241261072
2151.25,38.8282941232499
2151.5,38.8732641203924
2151.75,38.918234117535
2152,38.9632041146776
2152.25,39.0081741118202
2152.5,39.0531441089628
2152.75,39.0981141061054
2153,38.9659605676731
2153.25,38.8260539098961
2153.5,38.6861472521193
2153.75,38.5462405943423
2154,38.4063339365653
2154.25,38.2664272787885
2154.5,38.1265206210115
2154.75,37.9866139632347
2155,37.8467073054577
2155.25,37.7068006476806
2155.5,37.5668939899039
2155.75,37.4269873321268
2156,37.2870806743498
2156.25,37.147174016573
2156.5,37.007267358796
2156.75,36.8673607010192
2157,36.7274540432422
2157.25,36.5875473854652
2157.5,36.4476407276884
2157.75,36.3077340699114
2158,36.0923002190683
2158.25,35.8724468997048
2158.5,35.6525935803409
2158.75,35.4327402609774
2159,35.2128869416135
2159.25,34.9930336222496
2159.5,34.7731803028861
2159.75,34.5533269835222
2160,34.3334736641587
2160.25,34.1136203447948
2160.5,33.8937670254309
2160.75,33.6739137060674
2161,33.4540603867035
2161.25,33.2342070673396
2161.5,33.0143537479761
2161.75,32.7945004286122
2162,32.5746471092487
2162.25,32.3547937898848
2162.5,32.1349404705209
2162.75,31.9150871511573
2163,31.8301933517478
2163.25,31.7552433565101
2163.5,31.6802933612725
2163.75,31.6053433660348
2164,31.5303933707973
2164.25,31.4554433755596
2164.5,31.3804933803219
2164.75,31.3055433850843
2165,31.2305933898466
2165.25,31.1556433946091
2165.5,31.0806933993714
2165.75,31.0057434041337
2166,30.9307934088961
2166.25,30.8558434136584
2166.5,30.7808934184207
2166.75,30.7059434231832
2167,30.6309934279455
2167.25,30.5560434327079
2167.5,30.4810934374702
2167.75,30.4061434422325
2168,30.2990837222593
2168.25,30.1891570625774
2168.5,30.0792304028954
2168.75,29.9693037432137
2169,29.8593770835317
2169.25,29.74945042385
2169.5,29.639523764168
2169.75,29.5295971044861
2170,29.4196704448043
2170.25,29.3097437851224
2170.5,29.1998171254406
2170.75,29.0898904657587
2171,28.9799638060767
2171.25,28.870037146395
2171.5,28.760110486713
2171.75,28.6501838270311
2172,28.5402571673493
2172.25,28.4303305076674
2172.5,28.3204038479856
2172.75,28.2104771883036
2173,28.1819182779312
2173.25,28.1619316125345
2173.5,28.1419449471378
2173.75,28.1219582817411
2174,28.1019716163444
2174.25,28.0819849509477
2174.5,28.061998285551
2174.75,28.0420116201543
2175,28.0220249547576
2175.25,28.0020382893609
2175.5,27.9820516239642
2175.75,27.9620649585675
2176,27.9420782931708
2176.25,27.9220916277741
2176.5,27.9021049623774
2176.75,27.8821182969807
2177,27.8621316315839
2177.25,27.8421449661873
2177.5,27.8221583007905
2177.75,27.8021716353939
2178,27.9603352700257
2178.25,28.1402152585962
2178.5,28.3200952471663
2178.75,28.4999752357368
2179,28.6798552243073
2179.25,28.8597352128774
2179.5,29.0396152014479
2179.75,29.219495190018
2180,29.3993751785885
2180.25,29.5792551671589
2180.5,29.7591351557291
2180.75,29.9390151442995
2181,30.1188951328697
2181.25,30.2987751214401
2181.5,30.4786551100106
2181.75,30.6585350985807
2182,30.8384150871512
2182.25,31.0182950757217
2182.5,31.1981750642918
2182.75,31.3780550528623
2183,31.5228383655585
2183.25,31.6627450233356
2183.5,31.8026516811126
2183.75,31.9425583388894
2184,32.0824649966664
2184.25,32.2223716544434
2184.5,32.3622783122202
2184.75,32.5021849699972
2185,32.642091627774
2185.25,32.781998285551
2185.5,32.921904943328
2185.75,33.0618116011048
2186,33.2017182588818
2186.25,33.3416249166586
2186.5,33.4815315744357
2186.75,33.6214382322127
2187,33.7613448899895
2187.25,33.9012515477665
2187.5,34.0411582055435
2187.75,34.1810648633203
2188,34.3857776931137
2188.25,34.6006343461281
2188.5,34.8154909991428
2188.75,35.0303476521575
2189,35.2452043051718
2189.25,35.4600609581866
2189.5,35.6749176112013
2189.75,35.8897742642156
2190,36.1046309172303
2190.25,36.3194875702447
2190.5,36.5343442232594
2190.75,36.7492008762741
2191,36.9640575292884
2191.25,37.1789141823032
2191.5,37.3937708353175
2191.75,37.6086274883322
2192,37.8234841413469
2192.25,38.0383407943613
2192.5,38.253197447376
2192.75,38.4680541003907
2193,38.4149252309744
2193.25,38.3149919039908
2193.5,38.2150585770074
2193.75,38.1151252500238
2194,38.0151919230402
2194.25,37.9152585960568
2194.5,37.8153252690732
2194.75,37.7153919420896
2195,37.6154586151062
2195.25,37.5155252881226
2195.5,37.4155919611392
2195.75,37.3156586341556
2196,37.215725307172
2196.25,37.1157919801886
2196.5,37.015858653205
2196.75,36.9159253262216
2197,36.815991999238
2197.25,36.7160586722544
2197.5,36.616125345271
2197.75,36.5161920182874
2198,36.4706905419563
2198.25,36.4357138775122
2198.5,36.4007372130679
2198.75,36.3657605486237
2199,36.3307838841794
2199.25,36.2958072197352
2199.5,36.260830555291
2199.75,36.2258538908467
2200,36.1908772264025
2200.25,36.1559005619583
2200.5,36.120923897514
2200.75,36.0859472330698
2201,36.0509705686256
2201.25,36.0159939041813
2201.5,35.9810172397371
2201.75,35.9460405752929
2202,35.9110639108487
2202.25,35.8760872464044
2202.5,35.8411105819602
2202.75,35.806133917516
2203,35.6969901895418
2203.25,35.5720735308123
2203.5,35.4471568720831
2203.75,35.3222402133536
2204,35.1973235546243
2204.25,35.0724068958948
2204.5,34.9474902371654
2204.75,34.8225735784361
2205,34.6976569197066
2205.25,34.5727402609771
2205.5,34.4478236022479
2205.75,34.3229069435184
2206,34.1979902847891
2206.25,34.0730736260596
2206.5,33.9481569673301
2206.75,33.8232403086009
2207,33.6983236498714
2207.25,33.5734069911421
2207.5,33.4484903324126
2207.75,33.3235736736831
2208,33.2027107343557
2208.25,33.0827907419754
2208.5,32.9628707495951
2208.75,32.842950757215
2209,32.7230307648347
2209.25,32.6031107724546
2209.5,32.4831907800743
2209.75,32.363270787694
2210,32.2433507953139
2210.25,32.1234308029336
2210.5,32.0035108105533
2210.75,31.8835908181732
2211,31.7636708257929
2211.25,31.6437508334128
2211.5,31.5238308410325
2211.75,31.4039108486522
2212,31.2839908562721
2212.25,31.1640708638918
2212.5,31.0441508715117
2212.75,30.9242308791314
2213,30.7644404228973
2213.25,30.5945537670255
2213.5,30.4246671111534
2213.75,30.2547804552813
2214,30.0848937994095
2214.25,29.9150071435374
2214.5,29.7451204876656
2214.75,29.5752338317935
2215,29.4053471759214
2215.25,29.2354605200496
2215.5,29.0655738641775
2215.75,28.8956872083054
2216,28.7258005524336
2216.25,28.5559138965615
2216.5,28.3860272406897
2216.75,28.2161405848176
2217,28.0462539289455
2217.25,27.8763672730737
2217.5,27.7064806172016
2217.75,27.5365939613298
2218,27.5274426135822
2218.25,27.5624192780265
2218.5,27.5973959424707
2218.75,27.632372606915
2219,27.6673492713592
2219.25,27.7023259358034
2219.5,27.7373026002477
2219.75,27.7722792646919
2220,27.8072559291361
2220.25,27.8422325935804
2220.5,27.8772092580246
2220.75,27.9121859224688
2221,27.9471625869131
2221.25,27.9821392513573
2221.5,28.0171159158015
2221.75,28.0520925802457
2222,28.08706924469
2222.25,28.1220459091342
2222.5,28.1570225735784
2222.75,28.1919992380227
2223,28.2154148014096
2223.25,28.2354014668064
2223.5,28.2553881322031
2223.75,28.2753747975998
2224,28.2953614629965
2224.25,28.3153481283932
2224.5,28.3353347937899
2224.75,28.3553214591866
2225,28.3753081245833
2225.25,28.39529478998
2225.5,28.4152814553767
2225.75,28.4352681207734
2226,28.4552547861701
2226.25,28.4752414515668
2226.5,28.4952281169635
2226.75,28.5152147823602
2227,28.5352014477569
2227.25,28.5551881131536
2227.5,28.5751747785504
2227.75,28.595161443947
2228,28.6340832460234
2228.25,28.679053243166
2228.5,28.7240232403086
2228.75,28.7689932374512
2229,28.8139632345938
2229.25,28.8589332317364
2229.5,28.903903228879
2229.75,28.9488732260215
2230,28.9938432231641
2230.25,29.0388132203067
2230.5,29.0837832174493
2230.75,29.1287532145919
2231,29.1737232117344
2231.25,29.218693208877
2231.5,29.2636632060197
2231.75,29.3086332031622
2232,29.3536032003048
2232.25,29.3985731974473
2232.5,29.44354319459
2232.75,29.4885131917326
2233,29.6599752357367
2233.25,29.8748318887514
2233.5,30.0896885417657
2233.75,30.3045451947804
2234,30.5194018477952
2234.25,30.7342585008095
2234.5,30.9491151538242
2234.75,31.1639718068389
2235,31.3788284598533
2235.25,31.593685112868
2235.5,31.8085417658823
2235.75,32.023398418897
2236,32.2382550719118
2236.25,32.4531117249261
2236.5,32.6679683779408
2236.75,32.8828250309555
2237,33.0976816839699
2237.25,33.3125383369846
2237.5,33.5273949899989
2237.75,33.7422516430136
2238,33.792692637394
2238.25,33.7826993046957
2238.5,33.7727059719973
2238.75,33.762712639299
2239,33.7527193066006
2239.25,33.7427259739023
2239.5,33.7327326412039
2239.75,33.7227393085056
2240,33.7127459758072
2240.25,33.7027526431089
2240.5,33.6927593104105
2240.75,33.6827659777122
2241,33.6727726450138
2241.25,33.6627793123155
2241.5,33.6527859796171
2241.75,33.6427926469188
2242,33.6327993142204
2242.25,33.622805981522
2242.5,33.6128126488237
2242.75,33.6028193161254
2243,33.621522049719
2243.25,33.6515020478141
2243.5,33.6814820459091
2243.75,33.7114620440042
2244,33.7414420420992
2244.25,33.7714220401943
2244.5,33.8014020382894
2244.75,33.8313820363844
2245,33.8613620344795
2245.25,33.8913420325746
2245.5,33.9213220306696
2245.75,33.9513020287647
2246,33.9812820268597
2246.25,34.0112620249548
2246.5,34.0412420230498
2246.75,34.0712220211449
2247,34.1012020192399
2247.25,34.131182017335
2247.5,34.16116201543
2247.75,34.1911420135251
2248,34.20352033527
2248.25,34.2085170016192
2248.5,34.2135136679684
2248.75,34.2185103343176
2249,34.2235070006667
2249.25,34.2285036670159
2249.5,34.2335003333651
2249.75,34.2384969997143
2250,34.2434936660634
2250.25,34.2484903324126
2250.5,34.2534869987618
2250.75,34.258483665111
2251,34.2634803314601
2251.25,34.2684769978093
2251.5,34.2734736641585
2251.75,34.2784703305077
2252,34.2834669968568
2252.25,34.288463663206
2252.5,34.2934603295552
2252.75,34.2984569959044
2253,34.2274730926754
2253.25,34.1225430993429
2253.5,34.0176131060101
2253.75,33.9126831126773
2254,33.8077531193447
2254.25,33.702823126012
2254.5,33.5978931326794
2254.75,33.4929631393466
2255,33.3880331460138
2255.25,33.2831031526813
2255.5,33.1781731593485
2255.75,33.0732431660157
2256,32.9683131726831
2256.25,32.8633831793504
2256.5,32.7584531860178
2256.75,32.653523192685
2257,32.5485931993522
2257.25,32.4436632060197
2257.5,32.3387332126869
2257.75,32.2338032193541
2258,32.2237089246595
2258.25,32.2586855891037
2258.5,32.2936622535479
2258.75,32.3286389179922
2259,32.3636155824365
2259.25,32.3985922468806
2259.5,32.4335689113249
2259.75,32.4685455757691
2260,32.5035222402134
2260.25,32.5384989046576
2260.5,32.5734755691018
2260.75,32.6084522335461
2261,32.6434288979903
2261.25,32.6784055624345
2261.5,32.7133822268788
2261.75,32.748358891323
2262,32.7833355557672
2262.25,32.8183122202115
2262.5,32.8532888846557
2262.75,32.8882655490999
2263,32.9730469568531
2263.25,33.0829736165349
2263.5,33.1929002762168
2263.75,33.3028269358986
2264,33.4127535955805
2264.25,33.5226802552625
2264.5,33.6326069149442
2264.75,33.7425335746262
2265,33.8524602343079
2265.25,33.9623868939899
2265.5,34.0723135536718
2265.75,34.1822402133536
2266,34.2921668730355
2266.25,34.4020935327175
2266.5,34.5120201923992
2266.75,34.6219468520812
2267,34.7318735117629
2267.25,34.8418001714449
2267.5,34.9517268311269
2267.75,35.0616534908086
2268,35.1032536432041
2268.25,35.1082503095533
2268.5,35.1132469759025
2268.75,35.1182436422516
2269,35.1232403086008
2269.25,35.12823697495
2269.5,35.1332336412992
2269.75,35.1382303076484
2270,35.1432269739975
2270.25,35.1482236403467
2270.5,35.1532203066959
2270.75,35.1582169730451
2271,35.1632136393942
2271.25,35.1682103057434
2271.5,35.1732069720926
2271.75,35.1782036384418
2272,35.1832003047909
2272.25,35.1881969711401
2272.5,35.1931936374893
2272.75,35.1981903038385
2273,35.1936260596247
2273.25,35.1836327269264
2273.5,35.173639394228
2273.75,35.1636460615297
2274,35.1536527288313
2274.25,35.143659396133
2274.5,35.1336660634346
2274.75,35.1236727307363
2275,35.1136793980379
2275.25,35.1036860653396
2275.5,35.0936927326412
2275.75,35.0836993999429
2276,35.0737060672445
2276.25,35.0637127345462
2276.5,35.0537194018478
2276.75,35.0437260691494
2277,35.0337327364511
2277.25,35.0237394037527
2277.5,35.0137460710544
2277.75,35.003752738356
2278,34.9656767311172
2278.25,34.9107134012763
2278.5,34.8557500714354
2278.75,34.8007867415944
2279,34.7458234117535
2279.25,34.6908600819125
2279.5,34.6358967520717
2279.75,34.5809334222307
2280,34.5259700923897
2280.25,34.4710067625488
2280.5,34.4160434327079
2280.75,34.361080102867
2281,34.306116773026
2281.25,34.251153443185
2281.5,34.1961901133442
2281.75,34.1412267835032
2282,34.0862634536622
2282.25,34.0313001238213
2282.5,33.9763367939804
2282.75,33.9213734641395
2283,33.9030536241547
2283.25,33.9080502905039
2283.5,33.913046956853
2283.75,33.9180436232022
2284,33.9230402895514
2284.25,33.9280369559006
2284.5,33.9330336222497
2284.75,33.9380302885989
2285,33.9430269549481
2285.25,33.9480236212973
2285.5,33.9530202876464
2285.75,33.9580169539956
2286,33.9630136203448
2286.25,33.968010286694
2286.5,33.9730069530431
2286.75,33.9780036193923
2287,33.9830002857415
2287.25,33.9879969520907
2287.5,33.9929936184398
2287.75,33.997990284789
2288,34.014934755691
2288.25,34.0399180874369
2288.5,34.0649014191828
2288.75,34.0898847509286
2289,34.1148680826745
2289.25,34.1398514144204
2289.5,34.1648347461663
2289.75,34.1898180779122
2290,34.214801409658
2290.25,34.2397847414039
2290.5,34.2647680731498
2290.75,34.2897514048957
2291,34.3147347366416
2291.25,34.3397180683874
2291.5,34.3647014001333
2291.75,34.3896847318792
2292,34.3559958091247
2292.25,34.281045813887
2292.5,34.2060958186493
2292.75,34.1311458234118
2293,34.0561958281741
2293.25,33.9812458329365
2293.5,33.9062958376988
2293.75,33.8313458424611
2294,33.7563958472236
2294.25,33.6814458519859
2294.5,33.6064958567482
2294.75,33.5315458615106
2295,33.4565958662729
2295.25,33.3816458710354
2295.5,33.3066958757977
2295.75,33.23174588056
2296,33.1567958853224
2296.25,33.0818458900847
2296.5,33.0068958948472
2296.75,32.9319458996095
2297,32.8856653014573
2297.25,32.8606819697114
2297.5,32.8356986379655
2297.75,32.8107153062196
2298,32.7857319744738
2298.25,32.7607486427279
2298.5,32.735765310982
2298.75,32.7107819792361
2299,32.6857986474902
2299.25,32.6608153157444
2299.5,32.6358319839985
2299.75,32.6108486522526
2300,32.5858653205067
2300.25,32.5608819887608
2300.5,32.535898657015
2300.75,32.5109153252691
2301,32.4859319935232
2301.25,32.4609486617773
2301.5,32.4359653300314
2301.75,32.4109819982856
2302,32.3859986665397
2302.25,32.3610153347938
2302.5,32.3360320030479
2302.75,32.311048671302
2303,32.3557386417755
2303.25,32.4556719687589
2303.5,32.5556052957425
2303.75,32.6555386227259
2304,32.7554719497095
2304.25,32.8554052766931
2304.5,32.9553386036765
2304.75,33.0552719306601
2305,33.1552052576437
2305.25,33.2551385846271
2305.5,33.3550719116107
2305.75,33.4550052385941
2306,33.5549385655777
2306.25,33.6548718925613
2306.5,33.7548052195447
2306.75,33.8547385465283
2307,33.8111582055435
2307.25,33.6487665491952
2307.5,33.4863748928468
2307.75,33.3239832364988
2308,33.1615915801505
2308.25,32.9991999238021
2308.5,32.8368082674541
2308.75,32.6744166111057
2309,32.5120249547577
2309.25,32.3496332984094
2309.5,32.187241642061
2309.75,32.024849985713
2310,31.8624583293647
2310.25,31.7000666730163
2310.5,31.5376750166683
2310.75,31.3752833603199
2311,31.2128917039719
2311.25,31.0505000476236
2311.5,30.8881083912752
2311.75,30.7257167349272
2312,30.5633250785788
2312.25,30.4009334222308
2312.5,30.2385417658825
2312.75,30.0761501095341
2313,29.9900490522907
2313.25,29.9713115534813
2313.5,29.9525740546719
2313.75,29.9338365558625
2314,29.915099057053
2314.25,29.8963615582437
2314.5,29.8776240594342
2314.75,29.8588865606248
2315,29.8401490618154
2315.25,29.821411563006
2315.5,29.8026740641966
2315.75,29.7839365653872
2316,29.7651990665778
2316.25,29.7464615677684
2316.5,29.7277240689589
2316.75,29.7089865701495
2317,29.0564387084488
2317.25,27.8197637870269
2317.5,26.5830888656072
2317.75,25.3464139441852
2318,24.1097390227633
2318.25,22.8730641013436
2318.5,21.6363891799216
2318.75,20.3997142584997
2319,19.16303933708
2319.25,17.9263644156581
2319.5,16.6896894942384
2319.75,15.4530145728164
2320,14.2163396513945
2320.25,12.9796647299748
2320.5,11.7429898085528
2320.75,10.5063148871309
2321,9.26963996571119
2321.25,8.03296504428925
2321.5,6.79629012286955
2321.75,5.55961520144761
2322,4.32294028002566
2322.25,3.08626535860597
2322.5,1.84959043718402
2322.75,0.612915515764325
2323,0.738430326697706
2323.25,2.20245356700732
2323.5,3.66647680731428
2323.75,5.13050004762389
2324,6.59452328793351
2324.25,8.05854652824046
2324.5,9.52256976855007
2324.75,10.986593008857
2325,12.4506162491666
2325.25,13.9146394894763
2325.5,15.3786627297832
2325.75,16.8426859700928
2326,18.3067092104024
2326.25,19.7707324507094
2326.5,21.234755691019
2326.75,22.698778931326
2327,24.1628021716356
2327.25,25.6268254119452
2327.5,27.0908486522521
2327.75,28.5548718925618
2328,29.4288122678348
2328.25,29.6911372511668
2328.5,29.9534622344987
2328.75,30.2157872178301
2329,30.4781122011621
2329.25,30.740437184494
2329.5,31.0027621678254
2329.75,31.2650871511574
2330,31.5274121344888
2330.25,31.7897371178208
2330.5,32.0520621011527
2330.75,32.3143870844841
2331,32.5767120678161
2331.25,32.839037051148
2331.5,33.1013620344794
2331.75,33.3636870178114
2332,33.4615963425089
2332.25,33.381649680922
2332.5,33.3017030193351
2332.75,33.2217563577484
2333,33.1418096961615
2333.25,33.0618630345748
2333.5,32.9819163729879
2333.75,32.901969711401
2334,32.8220230498143
2334.25,32.7420763882274
2334.5,32.6621297266406
2334.75,32.5821830650538
2335,32.502236403467
2335.25,32.4222897418802
2335.5,32.3423430802934
2335.75,32.2623964187065
2336,32.1824497571198
2336.25,32.1025030955329
2336.5,32.022556433946
2336.75,31.9426097723593
2337,31.8883322221164
2337.25,31.8633488903705
2337.5,31.8383655586246
2337.75,31.8133822268787
2338,31.7883988951329
2338.25,31.763415563387
2338.5,31.7384322316411
2338.75,31.7134488998952
2339,31.6884655681493
2339.25,31.6634822364035
2339.5,31.6384989046576
2339.75,31.6135155729117
2340,31.5885322411658
2340.25,31.5635489094199
2340.5,31.5385655776741
2340.75,31.5135822459282
2341,31.4885989141823
2341.25,31.4636155824364
2341.5,31.4386322506905
2341.75,31.4136489189446
2342,31.3886655871988
2342.25,31.3636822554529
2342.5,31.338698923707
2342.75,31.3137155919611
2343,31.3028169349462
2343.25,31.3090627678827
2343.5,31.3153086008191
2343.75,31.3215544337556
2344,31.3278002666921
2344.25,31.3340460996285
2344.5,31.340291932565
2344.75,31.3465377655015
2345,31.352783598438
2345.25,31.3590294313744
2345.5,31.3652752643109
2345.75,31.3715210972474
2346,31.3777669301838
2346.25,31.3840127631203
2346.5,31.3902585960568
2346.75,31.3965044289932
2347,31.3779979045623
2347.25,31.3280312410706
2347.5,31.2780645775788
2347.75,31.2280979140871
2348,31.1781312505953
2348.25,31.1281645871035
2348.5,31.0781979236118
2348.75,31.02823126012
2349,30.9782645966283
2349.25,30.9282979331365
2349.5,30.8783312696447
2349.75,30.828364606153
2350,30.7783979426612
2350.25,30.7284312791694
2350.5,30.6784646156777
2350.75,30.6284979521859
2351,30.5785312886942
2351.25,30.5285646252024
2351.5,30.4785979617106
2351.75,30.4286312982189
2352,30.3786646347271
2352.25,30.3286979712353
2352.5,30.2787313077436
2352.75,30.2287646442518
2353,30.1416944470903
2353.25,30.0042861224878
2353.5,29.8668777978854
2353.75,29.7294694732832
2354,29.5920611486808
2354.25,29.4546528240786
2354.5,29.3172444994761
2354.75,29.1798361748737
2355,29.0424278502715
2355.25,28.9050195256691
2355.5,28.7676112010666
2355.75,28.6302028764645
2356,28.492794551862
2356.25,28.3553862272598
2356.5,28.2179779026574
2356.75,28.080569578055
2357,27.9751976378703
2357.25,27.9152376416801
2357.5,27.85527764549
2357.75,27.7953176492999
2358,27.7353576531098
2358.25,27.6753976569197
2358.5,27.6154376607296
2358.75,27.5554776645394
2359,27.4955176683494
2359.25,27.4355576721592
2359.5,27.3755976759692
2359.75,27.315637679779
2360,27.2556776835889
2360.25,27.1957176873988
2360.5,27.1357576912087
2360.75,27.0757976950185
2361,27.0158376988285
2361.25,26.9558777026383
2361.5,26.8959177064483
2361.75,26.8359577102581
2362,26.7549957138774
2362.25,26.6425707210211
2362.5,26.5301457281646
2362.75,26.417720735308
2363,26.3052957424517
2363.25,26.1928707495951
2363.5,26.0804457567388
2363.75,25.9680207638823
2364,25.8555957710257
2364.25,25.7431707781694
2364.5,25.6307457853128
2364.75,25.5183207924565
2365,25.4058957996
2365.25,25.2934708067434
2365.5,25.1810458138871
2365.75,25.0686208210305
2366,24.956195828174
2366.25,24.8437708353177
2366.5,24.7313458424611
2366.75,24.6189208496048
2367,24.5064958567483
2367.25,24.3940708638917
2367.5,24.2816458710354
2367.75,24.1692208781788
2368,24.1422440232404
2368.25,24.2521706829222
2368.5,24.3620973426041
2368.75,24.4720240022859
2369,24.5819506619678
2369.25,24.6918773216498
2369.5,24.8018039813315
2369.75,24.9117306410135
2370,25.0216573006952
2370.25,25.1315839603772
2370.5,25.2415106200591
2370.75,25.3514372797409
2371,25.4613639394228
2371.25,25.5712905991048
2371.5,25.6812172587865
2371.75,25.7911439184685
2372,25.9010705781502
2372.25,26.0109972378322
2372.5,26.1209238975141
2372.75,26.2308505571959
2373,26.2888789408515
2373.25,26.2588989427564
2373.5,26.2289189446614
2373.75,26.1989389465663
2374,26.1689589484713
2374.25,26.1389789503762
2374.5,26.1089989522811
2374.75,26.0790189541861
2375,26.049038956091
2375.25,26.019058957996
2375.5,25.9890789599009
2375.75,25.9590989618059
2376,25.9291189637108
2376.25,25.8991389656158
2376.5,25.8691589675207
2376.75,25.8391789694257
2377,25.8091989713306
2377.25,25.7792189732356
2377.5,25.7492389751405
2377.75,25.7192589770454
2378,25.7
2378.25,25.7
2378.5,25.7
2378.75,25.7
2379,25.7
2379.25,25.7
2379.5,25.7
2379.75,25.7
2380,25.7
2380.25,25.7
2380.5,25.7
2380.75,25.7
2381,25.7
2381.25,25.7
2381.5,25.7
2381.75,25.7
2382,25.7
2382.25,25.7
2382.5,25.7
2382.75,25.7
2383,25.7653662253549
2383.25,25.9552395466234
2383.5,26.1451128678922
2383.75,26.3349861891611
2384,26.5248595104295
2384.25,26.7147328316984
2384.5,26.9046061529668
2384.75,27.0944794742357
2385,27.2843527955045
2385.25,27.474226116773
2385.5,27.6640994380418
2385.75,27.8539727593103
2386,28.0438460805791
2386.25,28.2337194018479
2386.5,28.4235927231164
2386.75,28.6134660443852
2387,28.803339365654
2387.25,28.9932126869225
2387.5,29.1830860081913
2387.75,29.3729593294598
2388,29.5248023621297
2388.25,29.5997523573674
2388.5,29.674702352605
2388.75,29.7496523478427
2389,29.8246023430804
2389.25,29.8995523383179
2389.5,29.9745023335556
2389.75,30.0494523287932
2390,30.1244023240309
2390.25,30.1993523192686
2390.5,30.2743023145061
2390.75,30.3492523097438
2391,30.4242023049814
2391.25,30.4991523002191
2391.5,30.5741022954568
2391.75,30.6490522906943
2392,30.724002285932
2392.25,30.7989522811697
2392.5,30.8739022764073
2392.75,30.948852271645
2393,31.0396704448042
2393.25,31.1645871035337
2393.5,31.2895037622632
2393.75,31.4144204209924
2394,31.5393370797219
2394.25,31.6642537384514
2394.5,31.7891703971807
2394.75,31.9140870559102
2395,32.0390037146394
2395.25,32.1639203733689
2395.5,32.2888370320984
2395.75,32.4137536908277
2396,32.5386703495572
2396.25,32.6635870082864
2396.5,32.7885036670159
2396.75,32.9134203257454
2397,33.0383369844747
2397.25,33.1632536432041
2397.5,33.2881703019336
2397.75,33.4130869606629
2398,33.5
2398.25,33.5
2398.5,33.5
2398.75,33.5
2399,33.5
2399.25,33.5
2399.5,33.5
2399.75,33.5
2400,33.5
2400.25,33.5
2400.5,33.5
2400.75,33.5
2401,33.5
2401.25,33.5
2401.5,33.5
2401.75,33.5
2402,33.5
2402.25,33.5
2402.5,33.5
2402.75,33.5
2403,33.4840118106486
2403.25,33.4290484808077
2403.5,33.3740851509668
2403.75,33.3191218211258
2404,33.2641584912848
2404.25,33.209195161444
2404.5,33.154231831603
2404.75,33.099268501762
2405,33.0443051719211
2405.25,32.9893418420802
2405.5,32.9343785122393
2405.75,32.8794151823983
2406,32.8244518525573
2406.25,32.7694885227165
2406.5,32.7145251928755
2406.75,32.6595618630346
2407,32.6045985331936
2407.25,32.5496352033527
2407.5,32.4946718735118
2407.75,32.4397085436708
2408,32.4
2408.25,32.4
2408.5,32.4
2408.75,32.4
2409,32.4
2409.25,32.4
2409.5,32.4
2409.75,32.4
2410,32.4
2410.25,32.4
2410.5,32.4
2410.75,32.4
2411,32.4
2411.25,32.4
2411.5,32.4
2411.75,32.4
2412,32.4
2412.25,32.4
2412.5,32.4
2412.75,32.4
2413,32.4
2413.25,32.4
2413.5,32.4
2413.75,32.4
2414,32.4
2414.25,32.4
2414.5,32.4
2414.75,32.4
2415,32.4
2415.25,32.4
2415.5,32.4
2415.75,32.4
2416,32.4
2416.25,32.4
2416.5,32.4
2416.75,32.4
2417,32.4
2417.25,32.4
2417.5,32.4
2417.75,32.4
2418,32.3699171349653
2418.25,32.249997142585
2418.5,32.1300771502047
2418.75,32.0101571578246
2419,31.8902371654443
2419.25,31.7703171730642
2419.5,31.6503971806839
2419.75,31.5304771883036
2420,31.4105571959235
2420.25,31.2906372035432
2420.5,31.1707172111628
2420.75,31.0507972187828
2421,30.9308772264024
2421.25,30.8109572340224
2421.5,30.691037241642
2421.75,30.5711172492617
2422,30.4511972568816
2422.25,30.3312772645013
2422.5,30.2113572721212
2422.75,30.0914372797409
2423,29.9679569482807
2423.25,29.8330469568531
2423.5,29.6981369654252
2423.75,29.5632269739974
2424,29.4283169825698
2424.25,29.2934069911419
2424.5,29.1584969997143
2424.75,29.0235870082865
2425,28.8886770168586
2425.25,28.753767025431
2425.5,28.6188570340032
2425.75,28.4839470425753
2426,28.3490370511477
2426.25,28.2141270597199
2426.5,28.0792170682923
2426.75,27.9443070768644
2427,27.8093970854366
2427.25,27.674487094009
2427.5,27.5395771025811
2427.75,27.4046671111535
2428,27.306720640061
2428.25,27.336700638156
2428.5,27.3666806362511
2428.75,27.3966606343461
2429,27.4266406324412
2429.25,27.4566206305362
2429.5,27.4866006286313
2429.75,27.5165806267263
2430,27.5465606248214
2430.25,27.5765406229165
2430.5,27.6065206210115
2430.75,27.6365006191066
2431,27.6664806172017
2431.25,27.6964606152967
2431.5,27.7264406133918
2431.75,27.7564206114868
2432,27.7864006095819
2432.25,27.8163806076769
2432.5,27.846360605772
2432.75,27.876340603867
2433,27.896839699019
2433.25,27.8818496999714
2433.5,27.8668597009239
2433.75,27.8518697018764
2434,27.8368797028288
2434.25,27.8218897037813
2434.5,27.8068997047338
2434.75,27.7919097056862
2435,27.7769197066387
2435.25,27.7619297075912
2435.5,27.7469397085437
2435.75,27.7319497094961
2436,27.7169597104486
2436.25,27.7019697114011
2436.5,27.6869797123536
2436.75,27.671989713306
2437,27.6569997142585
2437.25,27.642009715211
2437.5,27.6270197161634
2437.75,27.6120297171159
2438,27.5940794361368
2438.25,27.5640994380417
2438.5,27.5341194399467
2438.75,27.5041394418516
2439,27.4741594437566
2439.25,27.4441794456615
2439.5,27.4141994475664
2439.75,27.3842194494714
2440,27.3542394513763
2440.25,27.3242594532813
2440.5,27.2942794551862
2440.75,27.2642994570911
2441,27.2343194589961
2441.25,27.204339460901
2441.5,27.174359462806
2441.75,27.1443794647109
2442,27.1143994666159
2442.25,27.0844194685208
2442.5,27.0544394704258
2442.75,27.0244594723307
2443,27.0119611391561
2443.25,27.0769178016954
2443.5,27.1418744642346
2443.75,27.206831126774
2444,27.2717877893133
2444.25,27.3367444518525
2444.5,27.4017011143919
2444.75,27.4666577769312
2445,27.5316144394704
2445.25,27.5965711020097
2445.5,27.661527764549
2445.75,27.7264844270883
2446,27.7914410896276
2446.25,27.8563977521668
2446.5,27.9213544147062
2446.75,27.9863110772455
2447,28.0512677397847
2447.25,28.1162244023241
2447.5,28.1811810648633
2447.75,28.2461377274026
2448,28.3059739022764
2448.25,28.3409505667206
2448.5,28.3759272311649
2448.75,28.4109038956091
2449,28.4458805600533
2449.25,28.4808572244976
2449.5,28.5158338889418
2449.75,28.550810553386
2450,28.5857872178303
2450.25,28.6207638822745
2450.5,28.6557405467188
2450.75,28.6907172111629
2451,28.7256938756072
2451.25,28.7606705400515
2451.5,28.7956472044957
2451.75,28.8306238689399
2452,28.8656005333842
2452.25,28.9005771978284
2452.5,28.9355538622726
2452.75,28.9705305267168
2453,28.9819049433279
2453.25,28.8669816172968
2453.5,28.7520582912659
2453.75,28.6371349652347
2454,28.5222116392038
2454.25,28.4072883131727
2454.5,28.2923649871416
2454.75,28.1774416611106
2455,28.0625183350795
2455.25,27.9475950090484
2455.5,27.8326716830175
2455.75,27.7177483569863
2456,27.6028250309554
2456.25,27.4879017049243
2456.5,27.3729783788931
2456.75,27.2580550528622
2457,27.1431317268311
2457.25,27.0282084008
2457.5,26.913285074769
2457.75,26.7983617487379
2458,26.7180017144489
2458.25,26.8429183731784
2458.5,26.9678350319079
2458.75,27.0927516906372
2459,27.2176683493667
2459.25,27.3425850080959
2459.5,27.4675016668254
2459.75,27.5924183255549
2460,27.7173349842842
2460.25,27.8422516430137
2460.5,27.9671683017431
2460.75,28.0920849604724
2461,28.2170016192019
2461.25,28.3419182779312
2461.5,28.4668349366606
2461.75,28.5917515953901
2462,28.7166682541194
2462.25,28.8415849128489
2462.5,28.9665015715784
2462.75,29.0914182303076
2463,29.1973864177541
2463.25,29.1773997523574
2463.5,29.1574130869607
2463.75,29.1374264215639
2464,29.1174397561673
2464.25,29.0974530907705
2464.5,29.0774664253739
2464.75,29.0574797599771
2465,29.0374930945804
2465.25,29.0175064291837
2465.5,28.997519763787
2465.75,28.9775330983903
2466,28.9575464329936
2466.25,28.9375597675969
2466.5,28.9175731022002
2466.75,28.8975864368035
2467,28.8775997714068
2467.25,28.8576131060101
2467.5,28.8376264406134
2467.75,28.8176397752167
2468,28.799413277455
2468.25,28.7944166111058
2468.5,28.7894199447566
2468.75,28.7844232784075
2469,28.7794266120583
2469.25,28.7744299457091
2469.5,28.7694332793599
2469.75,28.7644366130108
2470,28.7594399466616
2470.25,28.7544432803124
2470.5,28.7494466139632
2470.75,28.7444499476141
2471,28.7394532812649
2471.25,28.7344566149157
2471.5,28.7294599485665
2471.75,28.7244632822174
2472,28.7194666158682
2472.25,28.714469949519
2472.5,28.7094732831698
2472.75,28.7044766168206
2473,28.6942794551862
2473.25,28.6393161253453
2473.5,28.5843527955043
2473.75,28.5293894656634
2474,28.4744261358225
2474.25,28.4194628059815
2474.5,28.3644994761406
2474.75,28.3095361462996
2475,28.2545728164588
2475.25,28.1996094866178
2475.5,28.1446461567768
2475.75,28.0896828269359
2476,28.0347194970949
2476.25,27.979756167254
2476.5,27.9247928374131
2476.75,27.8698295075721
2477,27.8148661777312
2477.25,27.7599028478903
2477.5,27.7049395180493
2477.75,27.6499761882084
2478,27.6040803886085
2478.25,27.6490503857511
2478.5,27.6940203828936
2478.75,27.7389903800362
2479,27.7839603771788
2479.25,27.8289303743214
2479.5,27.873900371464
2479.75,27.9188703686065
2480,27.9638403657491
2480.25,28.0088103628917
2480.5,28.0537803600343
2480.75,28.0987503571769
2481,28.1437203543194
2481.25,28.1886903514621
2481.5,28.2336603486047
2481.75,28.2786303457472
2482,28.3236003428898
2482.25,28.3685703400324
2482.5,28.413540337175
2482.75,28.4585103343176
2483,28.5
2483.25,28.5
2483.5,28.5
2483.75,28.5
2484,28.5
2484.25,28.5
2484.5,28.5
2484.75,28.5
2485,28.5
2485.25,28.5
2485.5,28.5
2485.75,28.5
2486,28.5
2486.25,28.5
2486.5,28.5
2486.75,28.5
2487,28.5
2487.25,28.5
2487.5,28.5
2487.75,28.5
2488,28.5044804267074
2488.25,28.5744337555957
2488.5,28.6443870844843
2488.75,28.7143404133728
2489,28.7842937422612
2489.25,28.8542470711497
2489.5,28.9242004000381
2489.75,28.9941537289266
2490,29.0641070578151
2490.25,29.1340603867035
2490.5,29.204013715592
2490.75,29.2739670444804
2491,29.3439203733689
2491.25,29.4138737022574
2491.5,29.4838270311458
2491.75,29.5537803600343
2492,29.6237336889228
2492.25,29.6936870178112
2492.5,29.7636403466997
2492.75,29.8335936755881
2493,29.8989865701495
2493.25,29.8789999047528
2493.5,29.8590132393561
2493.75,29.8390265739594
2494,29.8190399085627
2494.25,29.799053243166
2494.5,29.7790665777693
2494.75,29.7590799123726
2495,29.7390932469759
2495.25,29.7191065815792
2495.5,29.6991199161825
2495.75,29.6791332507858
2496,29.6591465853891
2496.25,29.6391599199924
2496.5,29.6191732545957
2496.75,29.599186589199
2497,29.5791999238023
2497.25,29.5592132584055
2497.5,29.5392265930089
2497.75,29.5192399276121
2498,29.5054138489379
2498.25,29.6503171730641
2498.5,29.7952204971903
2498.75,29.9401238213163
2499,30.0850271454425
2499.25,30.2299304695687
2499.5,30.3748337936946
2499.75,30.5197371178208
2500,30.6646404419468
2500.25,30.809543766073
2500.5,30.9544470901992
2500.75,31.0993504143251
2501,31.2442537384513
2501.25,31.3891570625773
2501.5,31.5340603867035
2501.75,31.6789637108297
2502,31.8238670349556
2502.25,31.9687703590819
2502.5,32.1136736832081
2502.75,32.258577007334
2503,32.4063606057721
2503.25,32.6711839222781
2503.5,32.9360072387847
2503.75,33.2008305552912
2504,33.4656538717972
2504.25,33.7304771883037
2504.5,33.9953005048103
2504.75,34.2601238213163
2505,34.5249471378228
2505.25,34.7897704543288
2505.5,35.0545937708354
2505.75,35.3194170873419
2506,35.5842404038479
2506.25,35.8490637203544
2506.5,36.1138870368605
2506.75,36.378710353367
2507,36.6435336698735
2507.25,36.9083569863795
2507.5,37.1731803028861
2507.75,37.4380036193926
2508,37.7051738260786
2508.25,38.189850461949
2508.5,38.6745270978185
2508.75,39.159203733689
2509,39.6438803695594
2509.25,40.1285570054289
2509.5,40.6132336412993
2509.75,41.0979102771698
2510,41.5825869130393
2510.25,42.0672635489097
2510.5,42.5519401847793
2510.75,43.0366168206497
2511,43.5212934565201
2511.25,44.0059700923896
2511.5,44.49064672826
2511.75,44.9753233641296
2512,45.46
2512.25,45.9446766358704
2512.5,46.42935327174
2512.75,46.9140299076104
2513,47.3987065434808
2513.25,47.1807334031813
2513.5,46.9608800838174
2513.75,46.7410267644539
2514,46.52117344509
2514.25,46.3013201257261
2514.5,46.0814668063626
2514.75,45.8616134869987
2515,45.6417601676348
2515.25,45.4219068482713
2515.5,45.2020535289074
2515.75,44.9822002095439
2516,44.76234689018
2516.25,44.5424935708161
2516.5,44.3226402514526
2516.75,44.1027869320887
2517,43.8829336127252
2517.25,43.6630802933613
2517.5,43.4432269739974
2517.75,43.2233736546339
2518,43.00352033527
2518.25,42.7197504524238
2518.5,42.434940470521
2518.75,42.1501304886178
2519,41.8653205067151
2519.25,41.5805105248119
2519.5,41.2957005429086
2519.75,41.0108905610059
2520,40.7260805791027
2520.25,40.4412705971994
2520.5,40.1564606152967
2520.75,39.8716506333935
2521,39.5868406514908
2521.25,39.3020306695875
2521.5,39.0172206876843
2521.75,38.7324107057816
2522,38.4476007238783
2522.25,38.1627907419756
2522.5,37.8779807600724
2522.75,37.5931707781691
2523,37.3083607962664
2523.25,36.9993008857986
2523.5,36.6895075721494
2523.75,36.3797142585009
2524,36.0699209448517
2524.25,35.7601276312032
2524.5,35.450334317554
2524.75,35.1405410039049
2525,34.8307476902563
2525.25,34.5209543766072
2525.5,34.2111610629581
2525.75,33.9013677493095
2526,33.5915744356603
2526.25,33.2817811220118
2526.5,32.9719878083626
2526.75,32.6621944947135
2527,32.3524011810649
2527.25,32.0426078674158
2527.5,31.7328145537672
2527.75,31.4230212401181
2528,31.113227926469
2528.25,30.9852004952853
2528.5,30.865280502905
2528.75,30.7453605105247
2529,30.6254405181446
2529.25,30.5055205257643
2529.5,30.3856005333842
2529.75,30.2656805410039
2530,30.1457605486236
2530.25,30.0258405562435
2530.5,29.9059205638632
2530.75,29.7860005714829
2531,29.6660805791028
2531.25,29.5461605867225
2531.5,29.4262405943424
2531.75,29.3063206019621
2532,29.1864006095818
2532.25,29.0664806172017
2532.5,28.9465606248214
2532.75,28.8266406324413
2533,28.706720640061
2533.25,28.8226326316793
2533.5,28.9525459567577
2533.75,29.0824592818364
2534,29.2123726069151
2534.25,29.3422859319935
2534.5,29.4721992570722
2534.75,29.6021125821506
2535,29.7320259072293
2535.25,29.8619392323079
2535.5,29.9918525573864
2535.75,30.121765882465
2536,30.2516792075437
2536.25,30.3815925326221
2536.5,30.5115058577008
2536.75,30.6414191827792
2537,30.7713325078579
2537.25,30.9012458329366
2537.5,31.031159158015
2537.75,31.1610724830937
2538,31.2909858081721
2538.25,31.1233012667873
2538.5,30.9334279455185
2538.75,30.74355462425
2539,30.5536813029812
2539.25,30.3638079817124
2539.5,30.1739346604439
2539.75,29.9840613391751
2540,29.7941880179066
2540.25,29.6043146966378
2540.5,29.4144413753689
2540.75,29.2245680541005
2541,29.0346947328316
2541.25,28.8448214115628
2541.5,28.6549480902943
2541.75,28.4650747690255
2542,28.275201447757
2542.25,28.0853281264882
2542.5,27.8954548052194
2542.75,27.7055814839509
2543,27.5157081626821
2543.25,27.4587503571769
2543.5,27.4137803600343
2543.75,27.3688103628917
2544,27.3238403657491
2544.25,27.2788703686065
2544.5,27.2339003714639
2544.75,27.1889303743214
2545,27.1439603771788
2545.25,27.0989903800362
2545.5,27.0540203828936
2545.75,27.009050385751
2546,26.9640803886085
2546.25,26.9191103914658
2546.5,26.8741403943232
2546.75,26.8291703971807
2547,26.7842004000381
2547.25,26.7392304028955
2547.5,26.6942604057529
2547.75,26.6492904086103
2548,26.6043204114678
2548.25,26.5503171730641
2548.5,26.4953538432232
2548.75,26.4403905133822
2549,26.3854271835413
2549.25,26.3304638537004
2549.5,26.2755005238594
2549.75,26.2205371940184
2550,26.1655738641775
2550.25,26.1106105343366
2550.5,26.0556472044957
2550.75,26.0006838746547
2551,25.9457205448137
2551.25,25.8907572149729
2551.5,25.8357938851319
2551.75,25.780830555291
2552,25.72586722545
2552.25,25.6709038956091
2552.5,25.6159405657682
2552.75,25.5609772359272
2553,25.5060139060862
2553.25,25.4332507857891
2553.5,25.3583007905514
2553.75,25.2833507953139
2554,25.2084008000762
2554.25,25.1334508048385
2554.5,25.0585008096009
2554.75,24.9835508143633
2555,24.9086008191256
2555.25,24.833650823888
2555.5,24.7587008286503
2555.75,24.6837508334128
2556,24.6088008381751
2556.25,24.5338508429374
2556.5,24.4589008476998
2556.75,24.3839508524621
2557,24.3090008572246
2557.25,24.2340508619869
2557.5,24.1591008667492
2557.75,24.0841508715116
2558,24.0092008762739
2558.25,23.9561672540241
2558.5,23.9062005905324
2558.75,23.8562339270406
2559,23.8062672635489
2559.25,23.7563006000571
2559.5,23.7063339365654
2559.75,23.6563672730736
2560,23.6064006095819
2560.25,23.5564339460901
2560.5,23.5064672825984
2560.75,23.4565006191066
2561,23.4065339556149
2561.25,23.3565672921231
2561.5,23.3066006286313
2561.75,23.2566339651396
2562,23.2066673016478
2562.25,23.1567006381561
2562.5,23.1067339746643
2562.75,23.0567673111725
2563,23.0068006476808
2563.25,23.0992818363654
2563.5,23.2142051623965
2563.75,23.3291284884274
2564,23.4440518144586
2564.25,23.5589751404895
2564.5,23.6738984665206
2564.75,23.7888217925518
2565,23.9037451185827
2565.25,24.0186684446138
2565.5,24.1335917706449
2565.75,24.2485150966759
2566,24.363438422707
2566.25,24.4783617487379
2566.5,24.593285074769
2566.75,24.7082084008002
2567,24.8231317268311
2567.25,24.9380550528622
2567.5,25.0529783788931
2567.75,25.1679017049243
2568,25.2828250309554
2568.25,25.3977483569863
2568.5,25.5126716830175
2568.75,25.6275950090486
2569,25.7425183350795
2569.25,25.8574416611106
2569.5,25.9723649871416
2569.75,26.0872883131727
2570,26.2022116392038
2570.25,26.3171349652347
2570.5,26.4320582912659
2570.75,26.546981617297
2571,26.6619049433279
2571.25,26.7768282693591
2571.5,26.89175159539
2571.75,27.0066749214211
2572,27.1215982474522
2572.25,27.2365215734832
2572.5,27.3514448995143
2572.75,27.4663682255452
2573,27.5812915515763
2573.25,27.6
2573.5,27.6
2573.75,27.6
2574,27.6
2574.25,27.6
2574.5,27.6
2574.75,27.6
2575,27.6
2575.25,27.6
2575.5,27.6
2575.75,27.6
2576,27.6
2576.25,27.6
2576.5,27.6
2576.75,27.6
2577,27.6
2577.25,27.6
2577.5,27.6
2577.75,27.6
2578,27.6
2578.25,27.5794170873417
2578.5,27.5544337555958
2578.75,27.5294504238499
2579,27.504467092104
2579.25,27.4794837603581
2579.5,27.4545004286123
2579.75,27.4295170968664
2580,27.4045337651205
2580.25,27.3795504333746
2580.5,27.3545671016287
2580.75,27.3295837698829
2581,27.304600438137
2581.25,27.2796171063911
2581.5,27.2546337746452
2581.75,27.2296504428993
2582,27.2046671111535
2582.25,27.1796837794076
2582.5,27.1547004476617
2582.75,27.1297171159158
2583,27.1047337841699
2583.25,27.1890980093341
2583.5,27.2990246690161
2583.75,27.408951328698
2584,27.5188779883798
2584.25,27.6288046480617
2584.5,27.7387313077437
2584.75,27.8486579674254
2585,27.9585846271074
2585.25,28.0685112867891
2585.5,28.1784379464711
2585.75,28.288364606153
2586,28.3982912658348
2586.25,28.5082179255167
2586.5,28.6181445851987
2586.75,28.7280712448805
2587,28.8379979045624
2587.25,28.9479245642442
2587.5,29.0578512239261
2587.75,29.1677778836081
2588,29.2777045432898
2588.25,29.3597485474807
2588.5,29.4346985427183
2588.75,29.509648537956
2589,29.5845985331937
