1747,633.900628697004
1747.25,634.245054111874
1747.5,634.222744566089
1747.75,633.881804118851
1748,633.370258430651
1748.25,633.020792401463
1748.5,633.140480496457
1748.75,633.609328079136
1749,634.075507542763
1749.25,634.37663733444
1749.5,634.781479724222
1749.75,635.573513618711
1750,636.513163823309
1750.25,637.018996749923
1750.5,636.856991238693
1750.75,636.779777305993
1751,637.629928725952
1751.25,638.901176665382
1751.5,638.973603357218
1751.75,636.862235128222
1752,634.059768270167
1752.25,632.576428688895
1752.5,632.914065776262
1752.75,633.940546186091
1753,634.63751809474
1753.25,634.930636587194
1753.5,635.027902686409
1753.75,635.051133397727
1754,635.010514641127
1754.25,634.924085182103
1754.5,634.902910708897
1754.75,635.093073665419
1755,635.640271215147
1755.25,636.689482030435
1755.5,638.316184368984
1755.75,640.050861732046
1756,641.170253933589
1756.25,641.46021759143
1756.5,641.744778091659
1756.75,642.880035070085
1757,644.640669651049
1757.25,646.108964844595
1757.5,646.627128311379
1757.75,646.340011437311
1758,645.544081016503
1758.25,644.617633968372
1758.5,644.017162276812
1758.75,644.08702854575
1759,644.60835756255
1759.25,645.193859380356
1759.5,645.627300173326
1759.75,645.941166163869
1760,646.170393802272
1760.25,646.21374212794
1760.5,645.905913522286
1760.75,645.298967860445
1761,644.939833458937
1761.25,645.399704553949
1761.5,646.613808503176
1761.75,648.03984648258
1762,649.198067233306
1762.25,649.880271432189
1762.5,649.948736806204
1762.75,649.528102642059
1763,649.051910423936
1763.25,648.865296768312
1763.5,648.617003859009
1763.75,647.679777297127
1764,646.053107506726
1764.25,644.984099822807
1764.5,645.719536724235
1764.75,647.676623334919
1765,649.037109380331
1765.25,648.627530632182
1765.5,647.445755550618
1765.75,646.883954915748
1766,647.129231828143
1766.25,647.077387745139
1766.5,645.869515672114
1766.75,644.391892705975
1767,644.13091265913
1767.25,645.581552861054
1767.5,647.54587859877
1767.75,648.773953779409
1768,649.10253842086
1768.25,648.972980029079
1768.5,648.706389396097
1768.75,648.27825534157
1769,647.604841101351
1769.25,646.5853579141
1769.5,645.10339446936
1769.75,643.134056813254
1770,641.091573670094
1770.25,639.51412614026
1770.5,638.604738653156
1770.75,638.084510983571
1771,637.665761679348
1771.25,637.270905223316
1771.5,636.91578493047
1771.75,636.57755250844
1772,636.157285783832
1772.25,635.57739564625
1772.5,635.069164854602
1772.75,635.044744735071
1773,635.695310063077
1773.25,636.650343147022
1773.5,637.482689379818
1773.75,638.188293696677
1774,639.073995045841
1774.25,640.300625305666
1774.5,641.531219785336
1774.75,642.337909540935
1775,642.50941441381
1775.25,642.043481804008
1775.5,641.054233948037
1775.75,640.163800324186
1776,640.128144746633
1776.25,641.008597179671
1776.5,641.909298448435
1776.75,642.038734461593
1777,641.821923932106
1777.25,642.197563659864
1777.5,643.479199112763
1777.75,644.761322547855
1778,645.093479280022
1778.25,644.57464594843
1778.5,643.954104602293
1778.75,643.846688103953
1779,644.440981968566
1779.25,645.823902798533
1779.5,647.606708215936
1779.75,648.955818544807
1780,649.259616436439
1780.25,649.032231931925
1780.5,649.109534419153
1780.75,649.827849351656
1781,650.782172660055
1781.25,651.515406810875
1781.5,651.638941578835
1781.75,650.799942174393
1782,649.035738950148
1782.25,647.386816402009
1782.5,646.992057112172
1782.75,647.853297999048
1783,648.963229872856
1783.25,649.462753660728
1783.5,649.324961650415
1783.75,648.761734009762
1784,648.116482224308
1784.25,647.921630246808
1784.5,648.658111675502
1784.75,650.260529587936
1785,652.393906218549
1785.25,654.655855826075
1785.5,656.486591986246
1785.75,657.340164580964
1786,657.306767305074
1786.25,657.012348681708
1786.5,657.058142229949
1786.75,657.845502861211
1787,659.705608707745
1787.25,662.25416379319
1787.5,663.92561693244
1787.75,663.220608774145
1788,660.642364303849
1788.25,657.961761025984
1788.5,656.537004249631
1788.75,656.085277248718
1789,655.940388400744
1789.25,655.671565838743
1789.5,655.165518349524
1789.75,654.39038870517
1790,653.808116090174
1790.25,654.125754633003
1790.5,655.529237995592
1790.75,656.828205031062
1791,656.689533266772
1791.25,655.434873497122
1791.5,654.932845875932
1791.75,656.638456842714
1792,659.431317296953
1792.25,661.331969804878
1792.5,661.591482387215
1792.75,661.67703378449
1793,663.122156186478
1793.25,665.288938890104
1793.5,666.010744499305
1793.75,663.902896372247
1794,660.977289814359
1794.25,660.10058101115
1794.5,662.103395855898
1794.75,664.562130918353
1795,665.015873188668
1795.25,663.804246474751
1795.5,663.00162698415
1795.75,664.003584772767
1796,665.566033653611
1796.25,665.860530030165
1796.5,664.63242797773
1796.75,663.840597860958
1797,665.357149567548
1797.25,668.495252714999
1797.5,671.082343863433
1797.75,671.641878411438
1798,671.158310282838
1798.25,671.124637019878
1798.5,672.022977112638
1798.75,672.898620445711
1799,672.773927115171
1799.25,671.624551076282
1799.5,670.016575661541
1799.75,668.379958448923
1800,666.547194638017
1800.25,664.20189065648
1800.5,661.38945921791
1800.75,658.752410059538
1801,656.961763806609
1801.25,656.350591733041
1801.5,657.023992712878
1801.75,658.759469235641
1802,660.108997048384
1802.25,659.376712779722
1802.5,656.620500339321
1802.75,654.237487659395
1803,654.469881078654
1803.25,656.795656680188
1803.5,659.270385261069
1803.75,660.551661971703
1804,660.949423582529
1804.25,661.048930253549
1804.5,661.437785891116
1804.75,662.705950529429
1805,665.144941044419
1805.25,667.185699311718
1805.5,666.551056149586
1805.75,662.491735002055
1806,657.651683777353
1806.25,655.013043695281
1806.5,655.232801102397
1806.75,656.840225348193
1807,658.455959504198
1807.25,659.591385447412
1807.5,660.051046862243
1807.75,659.825003100427
1808,659.233160961334
1808.25,658.632372050551
1808.5,658.416907311284
1808.75,659.006815761282
1809,660.572455644253
1809.25,662.301344336243
1809.5,663.155765871396
1809.75,662.849151013059
1810,662.15095272265
1810.25,661.872395410074
1810.5,662.461070937588
1810.75,664.16015770417
1811,666.791752083424
1811.25,668.818870552504
1811.5,668.476991988448
1811.75,665.709197199239
1812,662.596278429665
1812.25,661.133084607022
1812.5,661.312579667307
1812.75,662.062890497616
1813,662.573827072451
1813.25,662.865904295023
1813.5,663.111340778238
1813.75,663.279944120296
1814,663.106069702493
1814.25,662.410833865765
1814.5,661.778426398744
1814.75,662.143847009137
1815,663.996898823819
1815.25,666.638126820802
1815.5,669.184848027285
1815.75,671.051812591758
1816,671.95897177448
1816.25,671.757647627252
1816.5,671.118586289637
1816.75,671.060672580596
1817,672.040892453852
1817.25,672.983215152075
1817.5,672.590987713145
1817.75,670.702897981805
1818,668.464392845418
1818.25,666.995615830651
1818.5,666.579130475072
1818.75,667.071083135076
1819,668.223513410152
1819.25,669.473065930426
1819.5,670.200025423873
1819.75,669.971071995883
1820,668.586170557369
1820.25,666.003834826186
1820.5,663.502669352047
1820.75,663.070896466482
1821,665.755748796224
1821.25,669.456074325541
1821.5,671.472085816391
1821.75,671.090951586501
1822,670.112731047204
1822.25,670.306771539491
1822.5,671.632053811605
1822.75,673.05275224383
1823,673.730578364754
1823.25,673.551171084878
1823.5,672.563842488126
1823.75,671.13671114887
1824,670.1053114053
1824.25,670.233158755488
1824.5,670.992960212499
1824.75,671.01470713601
1825,669.377934539522
1825.25,667.119993186174
1825.5,665.782728881755
1825.75,665.986042650707
1826,666.779629178429
1826.25,667.134422285326
1826.5,666.994901248529
1826.75,666.990200072679
1827,667.635728322649
1827.25,668.880452254557
1827.5,670.51284496692
1827.75,672.021917332681
1828,672.386696755323
1828.25,670.669678737955
1828.5,667.78858751209
1828.75,666.0221579849
1829,667.063671285912
1829.25,669.563474818585
1829.5,671.245954431992
1829.75,670.953151581898
1830,669.603563673727
1830.25,668.310228956951
1830.5,667.68296987595
1830.75,667.925787828534
1831,669.124978222662
1831.25,670.803659873627
1831.5,672.300860555695
1831.75,673.236179945463
1832,673.79843333302
1832.25,674.236819356609
1832.5,674.641681308119
1832.75,674.962598990784
1833,675.209055033209
1833.25,675.798836053896
1833.5,677.307147869106
1833.75,679.751864486172
1834,681.718562425681
1834.25,681.62807205147
1834.5,679.802721753031
1834.75,678.775272540383
1835,680.873615625038
1835.25,685.193329834015
1835.5,688.995707979563
1835.75,690.085487940146
1836,688.536471903667
1836.25,684.996228458969
1836.5,680.59674308526
1836.75,677.430761660823
1837,677.601514070378
1837.25,680.831186156635
1837.5,684.450831366418
1837.75,686.052971893849
1838,686.021881372199
1838.25,686.02715190934
1838.5,687.225426612217
1838.75,688.985229025191
1839,690.298823368015
1839.25,690.743662697822
1839.5,690.872161603943
1839.75,691.292394412343
1840,691.927668630836
1840.25,692.094657165385
1840.5,691.228101059352
1840.75,689.850467810914
1841,688.996279184163
1841.25,689.665670613518
1841.5,692.71560360469
1841.75,698.953126375616
1842,707.442476666905
1842.25,713.940509945673
1842.5,714.014899721627
1842.75,708.015948605135
1843,701.45999853649
1843.25,699.762346214791
1843.5,703.195796165392
1843.75,708.18196911396
1844,711.463237638233
1844.25,712.739529755748
1844.5,712.997955818725
1844.75,713.148567972538
1845,713.745786916635
1845.25,715.247450312303
1845.5,717.648654402275
1845.75,719.656689577935
1846,719.769513776494
1846.25,717.870141234842
1846.5,716.441075277217
1846.75,718.197347336272
1847,723.525304127995
1847.25,729.643454294236
1847.5,733.638055932184
1847.75,734.626836951426
1848,733.683546731574
1848.25,731.917923091711
1848.5,729.754695894502
1848.75,727.072250930056
1849,723.732424007028
1849.25,719.580622267943
1849.5,714.451304934254
1849.75,708.314815448615
1850,702.32381642592
1850.25,698.238847076249
1850.5,697.479552096449
1850.75,699.586382143615
1851,703.464529383235
1851.25,707.883526036971
1851.5,711.218905358182
1851.75,711.790392022449
1852,709.178938116563
1852.25,705.135002640074
1852.5,701.595930953901
1852.75,699.6806531645
1853,699.567166435093
1853.25,701.305658192732
1853.5,703.953151131315
1853.75,705.868824215198
1854,705.582812070935
1854.25,702.853231210953
1854.5,697.937362983259
1854.75,691.428942827482
1855,685.219833395869
1855.25,681.507602335077
1855.5,681.02190643393
1855.75,681.383073229769
1856,679.907543812674
1856.25,676.130737665407
1856.5,671.862075999872
1856.75,668.815888403766
1857,667.072395470052
1857.25,665.908133126924
1857.5,664.699023724344
1857.75,663.149259839691
1858,661.030741185486
1858.25,658.245240784678
1858.5,654.855180442958
1858.75,650.970231438586
1859,647.003180667827
1859.25,643.513282861823
1859.5,640.661846570321
1859.75,637.59818577352
1860,633.402402345533
1860.25,628.603371639965
1860.5,624.909516863531
1860.75,623.382808208076
1861,622.630821225002
1861.25,620.795700777851
1861.5,617.739104304508
1861.75,614.893399944416
1862,613.292556326545
1862.25,612.384072855678
1862.5,611.331598047443
1862.75,610.259450581663
1863,610.056911372848
1863.25,611.143688928474
1863.5,612.635971707834
1863.75,613.50880164081
1864,613.492411307922
1864.25,612.766611053554
1864.5,611.829191926031
1864.75,611.789672949889
1865,613.523727800138
1865.25,615.61500263549
1865.5,615.639416506385
1865.75,613.071365451957
1866,610.23251862206
1866.25,609.232951786471
1866.5,609.646282951968
1866.75,610.177494274572
1867,610.420496062857
1867.25,611.002691164052
1867.5,612.32554579759
1867.75,613.664161222305
1868,614.080575590968
1868.25,613.809519441796
1868.5,614.091155378379
1868.75,615.636355973324
1869,617.499835356479
1869.25,618.528863134339
1869.5,618.773558294967
1869.75,619.100904788953
1870,619.972713436823
1870.25,620.842666810933
1870.5,621.140869535827
1870.75,621.585457240522
1871,623.64900168552
1871.25,627.412306667144
1871.5,629.955415781552
1871.75,628.407717542736
1872,624.062602294786
1872.25,620.515357345644
1872.5,619.845145524697
1872.75,620.720484679398
1873,621.488372101746
1873.25,621.809401335355
1873.5,622.079281981548
1873.75,622.509881427844
1874,622.924313933818
1874.25,623.148285296923
1874.5,623.443456892997
1874.75,624.294983200912
1875,625.850957365095
1875.25,627.60978536401
1875.5,629.057268318956
1875.75,630.193412159295
1876,631.275746042193
1876.25,632.455036084192
1876.5,633.669073757188
1876.75,634.84197938331
1877,636.003335769515
1877.25,637.2408210863
1877.5,638.545319000495
1877.75,639.682189573099
1878,640.407665260588
1878.25,640.77030575592
1878.5,641.021749938453
1878.75,641.431073328126
1879,642.309520234959
1879.25,643.958637489025
1879.5,646.293314331743
1879.75,648.856518357787
1880,651.213722833377
1880.25,653.10880768951
1880.5,654.34184823711
1880.75,654.892382654211
1881,655.008215673896
1881.25,654.951064843799
1881.5,654.907977446766
1881.75,655.025341112949
1882,655.297711826453
1882.25,655.283820224459
1882.5,654.493041927331
1882.75,653.120825508897
1883,652.065112881478
1883.25,652.0582098764
1883.5,652.664592043074
1883.75,653.02414931202
1884,652.608555664347
1884.25,651.512603343421
1884.5,649.932764634114
1884.75,648.473480336829
1885,648.013613127592
1885.25,649.015934998265
1885.5,650.479353184775
1885.75,651.131302069577
1886,651.029400522573
1886.25,651.727345783783
1886.5,654.469134034734
1886.75,658.049377307151
1887,660.322329774516
1887.25,660.405775723391
1887.5,659.923377100851
1887.75,660.677500373681
1888,662.755278752482
1888.25,664.933830477213
1888.5,666.31265873631
1888.75,667.580268734606
1889,669.857366288792
1889.25,673.388426627431
1889.5,676.944639751707
1889.75,679.212317353965
1890,679.636669735349
1890.25,678.206916959382
1890.5,675.140311838804
1890.75,671.771059215155
1891,669.789232948144
1891.25,670.106974230887
1891.5,671.915080357685
1891.75,674.190905007325
1892,676.267713463078
1892.25,677.813912420567
1892.5,678.585631159357
1892.75,678.83903927987
1893,679.035654499502
1893.25,679.666311218383
1893.5,681.302481979411
1893.75,684.5024422648
1894,688.783697648962
1894.25,692.322634701247
1894.5,693.407097260225
1894.75,692.613095104162
1895,691.975566776097
1895.25,693.019901987632
1895.5,694.380038673865
1895.75,693.715924047077
1896,689.782171454728
1896.25,684.30687511832
1896.5,679.500423679541
1896.75,676.675521698833
1897,675.83184638484
1897.25,676.794494793752
1897.5,678.455859622981
1897.75,679.046932260528
1898,677.22208678135
1898.25,673.814447501257
1898.5,670.332656903972
1898.75,668.008088651807
1899,667.471991511416
1899.25,669.22642631252
1899.5,672.740502087044
1899.75,676.520988633416
1900,679.221571087948
1900.25,680.636156719538
1900.5,680.996208229635
1900.75,680.779216042282
1901,681.09802169782
1901.25,683.12883852057
1901.5,686.747052851201
1901.75,690.237965228804
1902,691.964331826921
1902.25,692.118564348989
1902.5,691.986617886955
1902.75,692.622925787296
1903,693.870533817036
1903.25,695.20132057751
1903.5,696.361002337659
1903.75,697.773488070379
1904,699.948682843743
1904.25,702.658941515232
1904.5,704.675134312876
1904.75,704.823749082014
1905,703.9328506649
1905.25,704.4240255379
1905.5,708.336830421132
1905.75,714.207016675572
1906,718.849827583814
1906.25,719.991386156904
1906.5,719.683304460115
1906.75,721.243117702263
1907,726.698972075682
1907.25,733.908775822862
1907.5,739.893242523191
1907.75,742.738875477525
1908,742.996941016643
1908.25,741.566437945723
1908.5,739.397130622086
1908.75,737.542608170928
1909,737.064263569929
1909.25,738.502858093653
1909.5,741.42407329381
1909.75,745.28280887703
1910,749.285191492814
1910.25,752.232635013837
1910.5,752.913765784011
1910.75,751.518209163767
1911,750.372974808949
1911.25,751.952539510691
1911.5,756.696309687097
1911.75,761.837911500494
1912,764.366882011492
1912.25,763.71219435502
1912.5,763.186861209937
1912.75,766.424607506528
1913,774.42074630102
1913.25,783.283456216609
1913.5,788.600746800008
1913.75,787.819014616904
1914,782.446967225716
1914.25,774.530171925877
1914.5,766.037815742307
1914.75,758.680148828589
1915,754.112602662811
1915.25,753.233441502575
1915.5,753.477413395988
1915.75,751.289506383209
1916,744.18304417775
1916.25,734.799959498154
1916.5,727.31918260877
1916.75,724.947690809973
1917,726.168904888182
1917.25,728.03379419331
1917.5,728.290578761675
1917.75,727.258078796495
1918,725.846941722462
1918.25,724.821544224865
1918.5,724.530694833604
1918.75,725.245513180526
1919,726.429068564079
1919.25,725.798015396774
1919.5,720.878225590173
1919.75,711.812055246328
1920,703.043065824887
1920.25,699.291005627593
1920.5,700.96163210977
1920.75,703.135052531681
1921,700.940119003075
1921.25,694.748666478885
1921.5,688.767364833962
1921.75,686.647059188701
1922,687.39417290328
1922.25,687.976491359122
1922.5,686.311672882595
1922.75,683.56620609794
1923,681.581274465444
1923.25,681.226943206257
1923.5,681.742308572062
1923.75,682.231480476089
1924,682.147369662626
1924.25,681.229286598657
1924.5,679.295698506345
1924.75,676.614615889266
1925,673.630135841026
1925.25,670.738357504774
1925.5,668.201033127211
1925.75,666.243316174517
1926,664.642195935273
1926.25,662.632979304874
1926.5,659.577993960838
1926.75,656.184118322451
1927,653.83213477406
1927.25,653.323164543899
1927.5,653.778154093225
1927.75,654.04219225573
1928,653.525836941229
1928.25,652.211814919944
1928.5,650.237338624343
1928.75,648.483038445569
1929,648.087309043281
1929.25,649.415067046773
1929.5,651.414211751876
1929.75,652.938563866916
1930,653.478554274836
1930.25,652.921541591343
1930.5,651.447342555661
1930.75,650.161301853331
1931,650.296064149624
1931.25,651.421856640639
1931.5,651.261263571194
1931.75,648.01869544987
1932,643.440959910624
1932.25,640.601025729934
1932.5,640.90289741227
1932.75,642.553272831734
1933,643.548684117359
1933.25,643.485564914234
1933.5,642.925837034685
1933.75,642.35722072962
1934,642.021705576788
1934.25,642.114150696693
1934.5,642.748799974831
1934.75,643.968694882359
1935,645.750702352323
1935.25,647.800669334172
1935.5,649.756552711844
1935.75,651.414089158998
1936,652.772056760756
1936.25,653.869622346764
1936.5,654.940785764317
1936.75,656.304283933935
1937,658.111616608923
1937.25,660.135690140892
1937.5,662.089790107302
1937.75,663.558528937509
1938,664.019799190948
1938.25,663.2063100122
1938.5,662.134142111869
1938.75,662.208600512691
1939,663.948619732426
1939.25,666.250294626469
1939.5,667.893912116009
1939.75,668.445191876127
1940,668.037959242447
1940.25,666.898473889331
1940.5,665.617613547225
1940.75,664.884961449015
1941,664.911572029417
1941.25,665.060649387049
1941.5,664.675253387585
1941.75,664.009702409375
1942,663.977388158929
1942.25,665.064424160738
1942.5,665.785323822223
1942.75,664.128158028054
1943,659.765374373704
1943.25,655.166205435546
1943.5,652.824133124341
1943.75,652.247906753186
1944,650.920737950632
1944.25,647.272124001589
1944.5,643.314078708815
1944.75,641.797430157955
1945,642.96468162664
1945.25,644.028439105643
1945.5,642.583723126129
1945.75,639.675313576139
1946,637.636892365812
1946.25,637.37289821366
1946.5,637.251600905499
1946.75,635.657065079756
1947,633.525573245136
1947.25,633.170137131252
1947.5,635.645359901104
1947.75,639.034877396138
1948,641.1418949301
1948.25,641.525558197815
1948.5,640.92388610228
1948.75,640.091398101135
1949,639.76641249553
1949.25,640.619139754364
1949.5,642.002207327574
1949.75,642.042679989495
1950,639.512169807023
1950.25,636.227862594027
1950.5,634.79647240025
1950.75,635.913101861602
1951,637.788016397839
1951.25,638.755895385484
1951.5,638.930451664876
1951.75,639.09386822742
1952,639.709060673969
1952.25,640.706895006426
1952.5,642.004930503142
1952.75,643.83948198958
1953,646.608478353341
1953.25,650.285844902904
1953.5,653.863418306487
1953.75,656.262913537612
1954,657.409117625867
1954.25,657.991297003802
1954.5,658.607691184626
1954.75,659.393574528886
1955,660.35717431998
1955.25,661.214228032704
1955.5,661.248900980792
1955.75,659.837579403585
1956,657.614055437776
1956.25,655.93045644737
1956.5,655.644126219084
1956.75,655.968666365641
1957,655.805869072646
1957.25,654.765801138423
1957.5,653.278661840965
1957.75,651.76525674379
1958,650.263492167144
1958.25,648.650218290199
1958.5,647.038739674303
1958.75,646.059725847631
1959,646.336143553596
1959.25,647.406157754595
1959.5,647.998554620364
1959.75,647.236593497653
1960,645.766295911244
1960.25,644.566187839568
1960.5,644.054940571326
1960.75,643.989306791141
1961,644.057563320188
1961.25,643.760582016188
1961.5,642.531310988451
1961.75,640.1464065666
1962,636.997976536626
1962.25,633.58698301006
1962.5,630.865740922565
1962.75,630.044565422353
1963,631.399410205029
1963.25,632.889978407757
1963.5,632.320636759438
1963.75,629.974474932177
1964,627.832858578749
1964.25,627.168047646929
1964.5,627.122238257291
1964.75,626.567394811074
1965,626.014008548024
1965.25,627.233561654449
1965.5,631.086262091709
1965.75,635.561113863517
1966,638.227760437176
1966.25,638.645329972621
1966.5,637.970425683063
1966.75,637.241437353385
1967,636.91024294116
1967.25,637.271482689248
1967.5,637.983815513703
1967.75,638.042751377352
1968,636.779293923278
1968.25,635.301920066472
1968.5,635.22330356257
1968.75,636.707003556817
1969,637.952812525684
1969.25,637.424207520561
1969.5,636.178468349955
1969.75,636.280578869475
1970,638.248388156267
1970.25,639.915517259955
1970.5,639.170789810603
1970.75,636.729272096012
1971,634.76656678956
1971.25,634.807620041675
1971.5,636.847476343094
1971.75,640.599570961212
1972,644.949357943506
1972.25,648.221275433839
1972.5,649.282980714904
1972.75,648.667159568606
1973,647.194445899157
1973.25,645.151887762603
1973.5,642.298536141155
1973.75,638.603937465837
1974,635.252590153063
1974.25,633.800869179967
1974.5,634.536372377203
1974.75,635.83520219325
1975,636.111129413506
1975.25,635.188035651526
1975.5,633.507418291063
1975.75,631.4862708751
1976,629.490892315048
1976.25,627.831040025816
1976.5,626.338692128356
1976.75,624.587508322278
1977,622.676536744744
1977.25,621.843825384531
1977.5,623.247076542656
1977.75,625.781431446967
1978,627.058519228976
1978.25,626.003370812847
1978.5,624.312428520098
1978.75,623.807563397961
1979,624.149099852623
1979.25,623.78071261532
1979.5,621.827832163077
1979.75,618.883030168705
1980,615.724177915671
1980.25,613.122365031241
1980.5,611.838976369898
1980.75,611.92954256019
1981,612.086783223013
1981.25,611.099011295646
1981.5,609.585606756162
1981.75,608.955742519232
1982,609.524798333076
1982.25,610.007395794482
1982.5,609.345184160343
1982.75,608.278856658696
1983,608.078205225995
1983.25,608.962119844204
1983.5,610.042534295631
1983.75,610.629309606514
1984,610.900372812299
1984.25,611.218996099607
1984.5,611.913140464909
1984.75,613.283087428802
1985,615.24929057707
1985.25,616.796118571054
1985.5,616.900785743964
1985.75,615.873981494031
1986,614.785054088151
1986.25,614.388668723631
1986.5,614.800945381657
1986.75,616.024407882004
1987,617.759816107325
1987.25,619.567417689217
1987.5,621.06067408264
1987.75,621.93884949295
1988,622.022785398243
1988.25,621.856349652476
1988.5,622.257469823177
1988.75,623.614719197579
1989,625.696197831208
1989.25,628.239950108765
1989.5,631.091672418085
1989.75,634.130684401557
1990,636.968874847583
1990.25,638.840275939232
1990.5,639.170407644658
1990.75,638.834315867483
1991,639.278883993072
1991.25,640.619264124927
1991.5,640.586354013545
1991.75,637.026882648229
1992,631.234869270474
1992.25,626.405261217124
1992.5,624.552051670175
1992.75,624.72507655051
1993,625.562150261259
1993.25,626.15048837046
1993.5,625.876514378253
1993.75,624.583782414779
1994,623.256575533144
1994.25,622.95752405604
1994.5,623.53720056627
1994.75,624.034890662235
1995,623.935209192938
1995.25,623.871787167486
1995.5,624.617518930519
1995.75,626.510755218261
1996,629.60625866706
1996.25,633.469090964471
1996.5,636.481185115963
1996.75,637.050770708032
1997,636.077330049084
1997.25,636.1291599431
1997.5,638.524525311206
1997.75,640.823827361448
1998,640.112560229871
1998.25,637.183488738645
1998.5,635.99617330791
1998.75,639.250439573929
1999,644.14000995967
1999.25,646.576491489701
1999.5,645.659634843726
1999.75,644.099554692134
2000,644.282713360385
2000.25,645.507590572085
2000.5,645.952188730454
2000.75,645.349457257524
2001,646.126086697739
2001.25,650.637326803931
2001.5,657.835387223434
2001.75,664.710911834401
2002,669.117593331118
2002.25,671.391919947815
2002.5,672.300035603998
2002.75,672.564718711666
2003,672.861159754941
2003.25,673.761380570017
2003.5,675.033788241214
2003.75,676.062162080618
2004,676.351351446805
2004.25,675.790276597964
2004.5,674.355278482805
2004.75,672.590132697851
2005,671.814774433444
2005.25,673.222024056796
2005.5,675.978958648951
2005.75,677.992982075924
2006,677.744932191152
2006.25,676.139645054662
2006.5,674.698267110116
2006.75,674.614126188428
2007,676.494670044189
2007.25,680.806778879052
2007.5,686.725077156648
2007.75,692.376990006824
2008,696.085719464692
2008.25,697.520675912957
2008.5,696.848179432662
2008.75,694.729066331142
2009,693.306473511754
2009.25,694.974579895509
2009.5,700.248811234356
2009.75,706.531897923064
2010,711.019008380611
2010.25,712.593516826416
2010.5,711.689785385372
2010.75,708.84120462032
2011,705.014186424203
2011.25,701.433027430186
2011.5,699.041230407648
2011.75,697.002793970943
2012,693.794554771225
2012.25,688.813849098413
2012.5,684.647567425058
2012.75,684.548499349464
2013,689.485351935489
2013.25,696.255781254656
2013.5,701.328600034464
2013.75,703.420790400696
2014,703.293082077945
2014.25,701.801616106886
2014.5,699.991638814003
2014.75,699.008324434474
2015,699.738320838413
2015.25,701.781648261285
2015.5,704.340038605214
2015.75,706.512092727193
2016,707.117962283405
2016.25,704.950844063666
2016.5,700.137420199251
2016.75,694.966190656192
2017,691.837910632099
2017.25,691.122199092979
2017.5,691.117797763982
2017.75,690.191137981379
2018,688.255500658445
2018.25,686.087270997664
2018.5,684.538534326205
2018.75,684.763590822867
2019,687.995775325402
2019.25,694.196601859507
2019.5,700.588170585127
2019.75,704.114584730306
2020,703.848852282409
2020.25,701.198891701092
2020.5,697.67412698003
2020.75,694.567204666709
2021,693.025576218585
2021.25,693.867528519324
2021.5,695.867943766735
2021.75,697.013115788442
2022,696.046576334319
2022.25,694.098921374826
2022.5,692.757769857255
2022.75,692.69876772259
2023,693.020662749408
2023.25,692.719155172832
2023.5,691.912371824606
2023.75,691.781998775578
2024,693.335650000946
2024.25,695.692882831463
2024.5,696.99751425126
2024.75,696.122033500142
2025,695.062361420017
2025.25,696.635218151784
2025.5,702.101933386349
2025.75,709.181419965654
2026,715.144790283456
2026.25,718.848146152611
2026.5,721.160076231577
2026.75,723.045965457543
2027,724.879361343469
2027.25,726.523405907371
2027.5,727.840233142899
2027.75,728.873386394491
2028,729.782813311154
2028.25,730.683130788968
2028.5,731.292137471954
2028.75,731.129246685381
2029,729.792594733032
2029.25,727.401230224432
2029.5,724.28228031147
2029.75,720.703117935455
2030,716.621157126874
2030.25,711.894499309785
2030.5,706.804409706449
2030.75,703.222943926981
2031,703.391329421337
2031.25,708.150028655235
2031.5,714.964534642256
2031.75,720.827978026025
2032,724.008789752387
2032.25,724.613008482778
2032.5,722.928624229294
2032.75,720.210397572062
2033,718.719069005816
2033.25,720.55536272033
2033.5,724.581392799253
2033.75,727.09148765422
2034,724.77888492159
2034.25,718.972486860635
2034.5,713.643118578692
2034.75,712.188828732297
2035,713.615417475533
2035.25,714.986337075327
2035.5,713.974098596653
2035.75,711.098281793418
2036,707.698111836817
2036.25,704.910201256163
2036.5,703.25606903661
2036.75,703.140509128623
2037,704.915786040562
2037.25,708.835123590857
2037.5,715.099879437208
2037.75,722.699476652977
2038,729.238163655866
2038.25,732.419322146342
2038.5,732.554277550412
2038.75,731.957571045514
2039,732.827292832693
2039.25,735.481960450807
2039.5,739.06001583555
2039.75,742.674199494821
2040,745.372198227056
2040.25,746.168097030816
2040.5,744.269372880007
2040.75,740.36720755836
2041,735.838831924776
2041.25,731.9235179136
2041.5,728.829697144725
2041.75,726.310042611515
2042,724.178451150236
2042.25,722.629863005716
2042.5,722.001235082129
2042.75,722.680163667441
2043,725.280961488872
2043.25,730.481423290714
2043.5,738.190115742158
2043.75,745.840211303948
2044,750.372020105655
2044.25,750.466113141819
2044.5,749.239859510173
2044.75,750.502460568215
2045,755.953282997182
2045.25,761.91280694456
2045.5,763.862060371585
2045.75,759.523768327002
2046,752.335567620087
2046.25,746.631403932352
2046.5,745.05521461477
2046.75,745.183956714649
2047,743.650353255141
2047.25,738.544330051823
2047.5,732.174087905189
2047.75,727.604984832376
2048,726.847014478429
2048.25,729.060697852086
2048.5,732.930273707601
2048.75,737.114639543029
2049,740.219365185698
2049.25,740.860996368821
2049.5,739.108341631945
2049.75,737.539113915543
2050,738.943044973274
2050.25,743.816195735503
2050.5,749.057782639507
2050.75,751.305247073592
2051,749.546772715678
2051.25,746.015306501573
2051.5,743.147829044295
2051.75,741.859806382303
2052,740.944259315655
2052.25,739.072516877691
2052.5,736.334551512048
2052.75,734.677802113643
2053,736.101779847902
2053.25,740.285276044297
2053.5,744.171389536374
2053.75,744.687371851307
2054,742.058562283748
2054.25,739.834126822134
2054.5,741.525631741331
2054.75,746.729698067969
2055,751.298125471938
2055.25,751.166314052815
2055.5,746.438739574429
2055.75,740.812058776005
2056,737.917825102072
2056.25,738.01684375949
2056.5,738.404269215726
2056.75,736.451466974924
2057,732.258553616701
2057.25,728.064953078162
2057.5,726.023155337683
2057.75,726.442841716797
2058,728.360935816365
2058.25,730.803762076696
2058.5,732.933262528004
2058.75,733.984519640134
2059,733.495911261205
2059.25,733.123395798991
2059.5,735.427497734197
2059.75,742.166257635875
2060,750.479064476326
2060.25,755.862830528808
2060.5,754.91891521873
2060.75,749.59580631737
2061,743.45516115626
2061.25,739.45328960235
2061.5,737.398717401825
2061.75,736.080573180891
2062,734.502840681385
2062.25,732.697822732807
2062.5,731.004376838429
2062.75,729.726213080798
2063,729.025022550173
2063.25,729.026700460435
2063.5,729.907888085055
2063.75,732.008410415427
2064,735.699991937398
2064.25,741.023482487698
2064.5,747.186338745933
2064.75,753.265722669186
2065,758.143584920982
2065.25,760.286710855071
2065.5,758.117642467817
2065.75,751.743334575099
2066,744.933758741856
2066.25,741.931591169982
2066.5,744.367813929117
2066.75,747.588516520669
2067,746.029923583082
2067.25,737.372351377984
2067.5,726.429838276297
2067.75,718.950806826756
2068,718.120908117317
2068.25,721.675977456035
2068.5,726.672609452087
2068.75,731.236728985631
2069,735.134701221896
2069.25,738.284525429668
2069.5,740.997962884579
2069.75,744.050705771597
2070,748.196941196707
2070.25,753.025278007566
2070.5,756.925496126342
2070.75,758.293708698525
2071,756.898193337076
2071.25,753.860808239267
2071.5,750.343684727422
2071.75,747.060287031942
2072,744.242960758725
2072.25,742.111634477955
2072.5,741.19204364507
2072.75,742.344762557375
2073,746.387965347572
2073.25,752.728203327199
2073.5,759.335344742227
2073.75,764.188540178175
2074,766.833073800261
2074.25,768.311390543508
2074.5,769.693668289532
2074.75,771.190394520678
2075,772.080598038579
2075.25,771.610201059684
2075.5,769.570708233401
2075.75,766.475001459113
2076,762.886405762334
2076.25,759.437865626536
2076.5,756.878663966178
2076.75,755.963866456858
2077,756.805309523867
2077.25,758.2631817294
2077.5,759.057341434039
2077.75,758.50549216952
2078,757.168318850485
2078.25,755.760550391757
2078.5,754.777689896592
2078.75,754.211218056079
2079,753.982297950835
2079.25,754.09887440969
2079.5,754.782434102167
2079.75,756.285940121979
2080,758.509813419598
2080.25,760.446446363423
2080.5,760.944773190028
2080.75,759.387977784967
2081,756.633764025399
2081.25,753.7919596198
2081.5,751.719869898681
2081.75,750.482230254152
2082,749.988689407517
2082.25,750.149869689883
2082.5,750.879597116256
2082.75,752.092338791542
2083,753.629509553548
2083.25,755.092150701372
2083.5,756.031960822323
2083.75,756.155446834538
2084,755.690725172054
2084.25,754.975661591167
2084.5,754.520667659421
2084.75,755.460624956453
2085,759.071639499943
2085.25,765.729319608135
2085.5,772.349204057342
2085.75,775.015907269288
2086,771.134687944912
2086.25,763.763880475605
2086.5,757.474118060704
2086.75,755.95932408101
2087,757.831675260584
2087.25,759.876833428351
2087.5,759.415802267657
2087.75,757.168707037357
2088,755.180049035236
2088.25,755.197359393682
2088.5,756.81721878579
2088.75,758.697371593975
2089,759.713759955925
2089.25,760.440647859028
2089.5,762.236291252671
2089.75,766.19539927911
2090,771.108863099267
2090.25,774.592572213434
2090.5,774.513106543794
2090.75,771.408189722722
2091,767.385150253594
2091.25,764.470838222532
2091.5,763.196708265886
2091.75,762.947521024837
2092,763.090787748949
2092.25,763.226717193811
2092.5,763.166529135374
2092.75,762.742698131529
2093,762.123231111019
2093.25,761.824607514801
2093.5,762.371642584393
2093.75,764.036136046751
2094,766.788879052208
2094.25,770.568146182632
2094.5,774.677619883502
2094.75,777.564554240091
2095,777.631475898862
2095.25,774.418024832285
2095.5,769.34250910483
2095.75,763.997472286926
2096,759.592331359975
2096.25,756.475761199082
2096.5,754.878679845025
2096.75,754.825736646005
2097,755.791986855089
2097.25,757.1619653566
2097.5,758.33453549528
2097.75,758.749011432669
2098,757.851967142663
2098.25,755.399565155398
2098.5,752.096466627673
2098.75,748.828363596328
2099,746.486919483428
2099.25,745.983906528593
2099.5,748.235191425765
2099.75,753.470893654289
2100,759.639184271313
2100.25,764.214374640739
2100.5,765.424445694081
2100.75,763.946524617806
2101,760.954372498549
2101.25,757.597418397827
2101.5,754.93165270346
2101.75,753.990639934816
2102,755.3935995005
2102.25,757.944056539648
2102.5,759.94832531403
2102.75,760.157770392632
2103,759.37015509077
2103.25,758.971035076443
2103.5,760.088449720659
2103.75,762.513929100572
2104,765.606835085853
2104.25,768.76099555006
2104.5,771.571142506153
2104.75,773.704173630492
2105,774.866545625664
2105.25,775.043939866973
2105.5,774.342477385868
2105.75,772.932445437906
2106,771.602632215732
2106.25,771.489688967783
2106.5,773.639463189449
2106.75,777.795843216214
2107,782.756103138194
2107.25,787.333872217461
2107.5,791.086712983974
2107.75,794.253542880661
2108,797.095474966575
2108.25,799.754295802217
2108.5,802.214182415197
2108.75,804.448086021286
2109,806.348719923552
2109.25,807.63456416889
2109.5,808.001248558168
2109.75,807.399180441152
2110,806.817319783308
2110.25,807.509217680397
2110.5,810.394354159586
2110.75,813.595424881739
2111,813.840760891664
2111.25,808.030871667202
2111.5,796.729383851296
2111.75,783.889697470716
2112,773.569196432238
2112.25,767.692816996371
2112.5,764.387648188554
2112.75,761.392411631433
2113,757.46649500171
2113.25,753.793886531085
2113.5,751.909285205187
2113.75,752.377403916429
2114,753.1196912226
2114.25,751.612824675006
2114.5,746.335711118073
2114.75,738.56231449201
2115,730.049606856911
2115.25,722.155104850388
2115.5,715.096142248164
2115.75,708.886254801589
2116,703.129273713239
2116.25,696.488288868481
2116.5,687.528951618237
2116.75,676.639108006028
2117,666.909845916756
2117.25,661.412534530027
2117.5,659.438719184058
2117.75,657.259533185539
2118,652.055565409938
2118.25,645.917501095607
2118.5,642.416548544749
2118.75,642.594256680301
2119,643.224380648905
2119.25,641.071246562507
2119.5,636.63807168823
2119.75,632.459709947556
2120,630.001025326771
2120.25,627.985865745203
2120.5,624.835664758913
2120.75,620.615960818037
2121,616.574015613093
2121.25,613.516025170361
2121.5,610.930819088528
2121.75,608.134139203813
2122,605.152996800934
2122.25,602.492791186383
2122.5,600.380687649033
2122.75,598.420423088605
2123,596.221941330175
2123.25,594.049481093593
2123.5,592.446219407601
2123.75,591.352799425635
2124,589.937326736636
2124.25,587.697719526027
2124.5,585.506096058672
2124.75,584.404330019067
2125,583.842201532605
2125.25,582.277307225517
2125.5,579.068112577697
2125.75,574.992006656576
2126,570.929873275086
2126.25,567.689748087216
2126.5,565.924095781266
2126.75,564.875691260681
2127,563.002524120349
2127.25,560.118670226451
2127.5,557.660053721926
2127.75,556.511444468739
2128,556.024471221526
2128.25,555.270622194432
2128.5,553.050481768035
2128.75,548.438427478484
2129,543.890693467596
2129.25,543.519659303602
2129.5,546.629549753676
2129.75,547.938978421576
2130,545.944999818363
2130.25,545.148992369162
2130.5,547.796763642522
2130.75,549.046535730865
2131,544.687881563185
2131.25,538.191659624568
2131.5,534.533691439136
2131.75,533.895176307825
2132,534.210539413594
2132.25,534.264774458838
2132.5,533.504130205895
2132.75,532.333097430979
2133,532.091165909994
2133.25,532.363520189206
2133.5,530.114808055649
2133.75,524.883576283834
2134,521.984014790257
2134.25,524.675126975149
2134.5,528.021967136442
2134.75,527.622089594364
2135,526.890549452957
2135.25,529.680607736559
2135.5,532.127403030206
2135.75,528.861158223683
2136,522.627140169233
2136.25,519.297345241882
2136.5,518.089146068267
2136.75,514.328245796381
2137,510.041214296145
2137.25,512.311675253507
2137.5,519.565653549355
2137.75,522.024723496812
2138,517.181280827082
2138.25,510.63414360058
2138.5,506.536765523013
2138.75,506.520382433307
2139,509.861231843555
2139.25,512.494214155436
2139.5,512.238269402282
2139.75,510.499552573677
2140,509.211856600025
2140.25,510.655801368986
2140.5,514.648560150402
2140.75,515.709209695167
2141,511.179898765423
2141.25,506.70793944412
2141.5,506.295628093542
2141.75,505.817652508651
2142,502.19212032632
2142.25,500.021605476696
2142.5,502.89206181578
2142.75,506.087155504901
2143,505.39342047889
2143.25,503.989921379427
2143.5,505.152134352111
2143.75,507.027853204014
2144,507.404704889511
2144.25,507.001894677346
2144.5,506.917491530806
2144.75,506.999864345118
2145,507.137377434605
2145.25,508.803550658719
2145.5,512.858523720806
2145.75,515.094261601295
2146,511.403488568435
2146.25,506.411090569226
2146.5,506.256899375226
2146.75,507.993636344381
2147,506.183672219162
2147.25,503.230098096751
2147.5,504.066189390778
2147.75,507.355056764179
2148,509.301863695098
2148.25,509.863834553164
2148.5,510.642510564195
2148.75,511.724718134186
2149,512.459986072071
2149.25,512.863419420474
2149.5,513.314383247252
2149.75,513.828674453307
2150,514.254078762345
2150.25,515.588391125292
2150.5,519.517114664786
2150.75,524.087690578645
2151,524.305835120332
2151.25,520.246894386628
2151.5,517.391991212817
2151.75,517.960650677595
2152,519.343140701839
2152.25,520.115694664358
2152.5,521.41029892712
2152.75,523.210453967904
2153,522.650427301063
2153.25,518.858761188426
2153.5,517.056044376049
2153.75,521.105910231846
2154,526.934375846719
2154.25,529.909773381131
2154.5,530.103692250969
2154.75,529.090715557921
2155,530.050657740583
2155.25,535.877411306045
2155.5,542.170380608025
2155.75,541.545388560641
2156,535.611975130723
2156.25,532.122400934805
2156.5,533.386756853596
2156.75,535.595780118674
2157,536.56203237453
2157.25,537.126772505054
2157.5,538.008989525631
2157.75,539.042981930942
2158,540.004734370055
2158.25,540.899918792739
2158.5,541.854185403252
2158.75,543.384653242408
2159,545.900619456602
2159.25,547.470520805157
2159.5,545.158741475661
2159.75,541.545421944098
2160,543.970108615989
2160.25,552.841538877167
2160.5,558.292717547277
2160.75,554.882153120389
2161,549.166619693198
2161.25,547.619988558045
2161.5,548.749328177698
2161.75,549.201640636558
2162,548.934914134953
2162.25,549.440842674936
2162.5,550.263120634648
2162.75,549.341271144093
2163,546.61634701244
2163.25,544.909825813461
2163.5,546.209297209246
2163.75,549.955053495395
2164,554.822133715522
2164.25,557.894179807975
2164.5,556.548476717949
2164.75,553.522898784152
2165,553.725441680817
2165.25,556.788746397905
2165.5,557.866965779689
2165.75,555.37533330648
2166,552.830235397784
2166.25,552.792237102802
2166.5,553.906256413907
2166.75,554.488245669466
2167,554.807529538665
2167.25,555.677479286016
2167.5,556.734056268803
2167.75,556.932372806492
2168,556.29868470281
2168.25,556.035378867356
2168.5,556.796636525484
2168.75,558.017533437968
2169,559.100118956885
2169.25,559.87751784018
2169.5,560.367482912353
2169.75,561.224682997239
2170,563.320795840096
2170.25,565.95640316648
2170.5,567.041330459201
2170.75,565.826866103303
2171,563.95807592844
2171.25,562.941046593644
2171.5,562.89475428625
2171.75,563.590871233529
2172,564.581527680391
2172.25,565.332424434988
2172.5,565.739677421343
2172.75,566.108702416833
2173,566.588177234312
2173.25,566.998329159301
2173.5,567.247016976925
2173.75,567.747658850557
2174,568.948531952534
2174.25,570.415640280445
2174.5,571.262198762147
2174.75,571.507387495717
2175,572.194140263339
2175.25,573.74553631953
2175.5,574.948913602333
2175.75,574.655505625396
2176,573.468373462591
2176.25,572.554950595221
2176.5,572.183647319398
2176.75,571.900385246288
2177,571.456942163604
2177.25,570.998980092799
2177.5,570.721012900538
2177.75,570.854942118397
2178,571.587117034994
2178.25,572.573064565092
2178.5,573.190604555245
2178.75,573.458013723604
2179,574.156635648125
2179.25,575.74354491727
2179.5,577.707670902019
2179.75,579.434259661381
2180,580.648812473923
2180.25,581.220924652087
2180.5,581.225468692136
2180.75,580.924974003103
2181,580.658369867711
2181.25,580.915170488167
2181.5,582.044187258897
2181.75,583.490316873647
2182,584.425341976913
2182.25,584.77445958331
2182.5,585.1017178107
2182.75,585.79899175339
2183,586.859341458732
2183.25,588.244713336907
2183.5,590.020699469274
2183.75,592.26509689092
2184,594.590946042672
2184.25,596.193371132795
2184.5,596.953235557761
2184.75,598.431145233409
2185,601.906592573706
2185.25,604.640641974067
2185.5,602.173045657239
2185.75,595.15775720903
2186,590.999831469036
2186.25,595.078932995984
2186.5,602.171197171992
2186.75,604.728963727065
2187,602.303896063315
2187.25,599.696481304939
2187.5,599.78544477457
2187.75,600.868163763167
2188,600.964394059033
2188.25,600.654415853343
2188.5,601.636219861833
2188.75,604.238521595187
2189,606.978846494073
2189.25,608.639310692495
2189.5,609.598960622914
2189.75,610.603114952447
2190,611.625496535307
2190.25,611.985073632398
2190.5,611.235038158974
2190.75,609.637881179252
2191,607.599668479665
2191.25,605.766357378408
2191.5,604.931100064017
2191.75,605.307326621154
2192,605.942216790075
2192.25,605.861776823135
2192.5,604.91318379207
2192.75,603.298130337286
2193,601.433873256235
2193.25,600.019931824741
2193.5,599.58186375794
2193.75,599.821372557657
2194,600.225345435321
2194.25,600.357548466086
2194.5,599.845354730242
2194.75,598.607265996332
2195,597.247106699014
2195.25,596.356624343238
2195.5,595.646346826817
2195.75,594.422916425804
2196,592.615692285124
2196.25,590.986308485503
2196.5,590.155204661883
2196.75,589.972568132069
2197,590.100442514557
2197.25,590.179655675825
2197.5,589.841692948487
2197.75,589.157274578696
2198,588.969251080439
2198.25,589.940407118764
2198.5,591.445261709059
2198.75,592.502798711112
2199,592.892818959954
2199.25,593.027278688014
2199.5,593.272921919998
2199.75,593.853874606477
2200,594.879093790204
2200.25,595.813924741547
2200.5,595.86985977134
2200.75,594.562120653559
2201,591.748815022898
2201.25,588.053432521511
2201.5,586.518531240464
2201.75,590.132705590679
2202,596.337087280385
2202.25,599.399671010667
2202.5,597.40847693312
2202.75,594.103144892853
2203,592.873507656571
2203.25,593.492760725601
2203.5,594.749115100434
2203.75,596.036312928516
2204,597.236403191686
2204.25,598.366547117092
2204.5,599.709314128161
2204.75,601.487075918477
2205,603.258832976654
2205.25,604.315620474972
2205.5,604.435207270906
2205.75,603.99834632323
2206,603.409879810948
2206.25,603.022031509436
2206.5,603.145779466913
2206.75,603.647354127403
2207,604.03938116698
2207.25,604.056388600688
2207.5,603.987868724358
2207.75,604.167860837945
2208,604.619476730032
2208.25,605.211610484266
2208.5,605.924463142437
2208.75,606.908196119317
2209,608.236753900622
2209.25,609.528357612922
2209.5,610.282141910662
2209.75,610.569576755499
2210,611.042103676881
2210.25,611.980547794525
2210.5,612.320172621017
2210.75,610.832629484868
2211,608.032463638179
2211.25,605.735970050638
2211.5,605.124840823996
2211.75,605.730751805384
2212,606.839351945272
2212.25,607.782297665844
2212.5,607.925193219435
2212.75,607.289324236513
2213,606.963188809475
2213.25,607.910207225325
2213.5,609.822241554995
2213.75,611.949320090926
2214,613.76787824681
2214.25,615.009582159951
2214.5,615.557206107652
2214.75,615.825777313125
2215,616.335671062184
2215.25,617.178843123684
2215.5,618.072192635183
2215.75,618.663894162767
2216,618.429073766591
2216.25,616.883093009807
2216.5,614.578635968256
2216.75,612.835123439352
2217,612.557677233136
2217.25,613.517449496116
2217.5,615.275187450025
2217.75,617.106713414957
2218,618.120969947872
2218.25,618.176532397348
2218.5,618.654036705906
2218.75,620.870508153919
2219,624.080876193664
2219.25,626.525906755849
2219.5,627.315917242485
2219.75,627.100759493661
2220,626.599406349488
2220.25,625.852610500792
2220.5,624.585778123594
2220.75,622.845322748128
2221,621.263187810663
2221.25,620.434618164707
2221.5,620.165464047477
2221.75,619.8848599005
2222,619.23396346084
2222.25,618.226288133817
2222.5,616.976451769024
2222.75,616.054870460697
2223,616.220205007217
2223.25,617.668367341642
2223.5,619.735057677014
2223.75,621.783997522429
2224,623.765542866572
2224.25,625.833435749217
2224.5,627.785683701691
2224.75,628.95179581605
2225,628.757955202929
2225.25,627.336370550214
2225.5,625.066908364238
2225.75,622.621972915965
2226,621.075213406132
2226.25,621.256368525103
2226.5,622.401523863593
2226.75,623.19106532077
2227,623.162692156437
2227.25,622.99516353101
2227.5,623.243479041431
2227.75,623.363230996329
2228,622.473325237275
2228.25,620.969382695004
2228.5,620.875024126609
2228.75,623.771588208859
2229,628.409838828395
2229.25,632.66143975778
2229.5,635.442602901219
2229.75,636.920404696246
2230,637.274777057475
2230.25,636.363796088054
2230.5,633.95868454245
2230.75,630.79496596219
2231,629.00357076251
2231.25,630.32425144247
2231.5,633.018700177597
2231.75,633.899473161432
2232,631.870371433111
2232.25,629.358689324906
2232.5,628.802685756105
2232.75,629.955822818855
2233,631.259668471449
2233.25,631.924643057698
2233.5,632.667123537231
2233.75,634.286787396469
2234,636.746571415126
2234.25,639.550586522652
2234.5,642.132637785715
2234.75,643.778176585983
2235,643.825525997776
2235.25,642.555332413796
2235.5,640.902199476501
2235.75,639.577596185717
2236,638.510502305254
2236.25,637.479973226355
2236.5,636.537980245127
2236.75,636.009949713706
2237,636.079096658406
2237.25,636.2061662207
2237.5,635.661858135073
2237.75,634.534560654939
2238,633.96583543751
2238.25,634.875676682606
2238.5,636.399739118769
2238.75,637.015745569058
2239,636.358243239264
2239.25,635.905790874994
2239.5,637.036832409235
2239.75,639.011229252252
2240,640.07659100119
2240.25,639.217846817382
2240.5,636.940880437264
2240.75,633.941876325594
2241,630.967173120055
2241.25,628.794490407393
2241.5,627.802660154879
2241.75,627.274401618399
2242,626.363463462446
2242.25,625.045161671529
2242.5,623.908581499438
2242.75,623.426990366986
2243,623.689426626196
2243.25,624.688710219217
2243.5,626.041191263228
2243.75,627.079190740711
2244,627.365555966142
2244.25,627.145931273985
2244.5,626.773328490868
2244.75,626.385608433538
2245,625.956372787477
2245.25,625.324091939626
2245.5,623.932677366015
2245.75,621.24854117514
2246,618.232461573693
2246.25,617.021107540167
2246.5,618.552560169355
2246.75,620.102070214074
2247,618.572237826253
2247.25,614.918455629685
2247.5,612.963793222406
2247.75,614.734100305132
2248,617.497350938691
2248.25,618.101971951965
2248.5,616.823235331136
2248.75,615.95477253631
2249,616.800445488232
2249.25,618.56378321598
2249.5,620.258303882717
2249.75,621.48047465926
2250,622.116203067446
2250.25,622.067274312388
2250.5,621.259663447205
2250.75,619.695574637018
2251,617.923519035139
2251.25,616.729110915188
2251.5,616.34047663668
2251.75,616.077297423587
2252,615.362156055187
2252.25,614.802244412749
2252.5,615.44082519798
2252.75,617.113816156722
2253,618.017327240002
2253.25,616.768970553442
2253.5,614.698195569929
2253.75,613.934010813286
2254,615.076794370034
2254.25,616.991428108569
2254.5,618.634446658415
2254.75,619.714449672525
2255,620.134025537736
2255.25,619.864661663384
2255.5,618.941984085297
2255.75,617.463452273498
2256,615.73262344754
2256.25,614.091424323704
2256.5,612.775880745186
2256.75,611.934098971425
2257,611.652402151775
2257.25,611.847231156374
2257.5,612.385915896336
2257.75,612.914857766347
2258,612.939025360917
2258.25,612.366366343444
2258.5,611.971034589851
2258.75,612.528653196657
2259,613.899332557116
2259.25,615.491432670283
2259.5,616.875605048894
2259.75,617.891653883983
2260,618.369996430096
2260.25,617.9297420616
2260.5,616.128409493659
2260.75,613.352589108378
2261,611.113831395766
2261.25,610.658655071429
2261.5,611.452681256476
2261.75,612.407923310646
2262,612.937747318494
2262.25,612.995792853926
2262.5,612.631384900251
2262.75,612.150779813047
2263,611.914503528226
2263.25,612.189437620366
2263.5,613.164508302671
2263.75,614.816259090487
2264,616.538563960976
2264.25,617.690872639109
2264.5,618.383981170584
2264.75,619.204470871643
2265,620.214773623765
2265.25,620.302586578423
2265.5,618.41576630584
2265.75,615.541607685444
2266,613.775268063219
2266.25,614.160622653518
2266.5,615.664038888883
2266.75,617.096510429031
2267,617.91617634353
2267.25,617.883303180165
2267.5,617.084201330636
2267.75,616.115877317423
2268,615.518278065156
2268.25,615.199484445782
2268.5,614.836056995697
2268.75,614.526238415796
2269,614.92889857922
2269.25,616.425402522043
2269.5,617.843447141804
2269.75,617.595933765843
2270,615.719703261113
2270.25,614.000346413106
2270.5,613.753813426118
2270.75,614.069016051637
2271,613.54816203846
2271.25,612.127629138875
2271.5,610.934029262557
2271.75,610.719635580282
2272,610.954801402782
2272.25,610.911290515764
2272.5,610.461588967964
2272.75,609.889840577897
2273,609.410143558107
2273.25,609.062192000251
2273.5,608.89535225623
2273.75,609.239583324564
2274,610.554441412221
2274.25,612.587573820566
2274.5,613.95270472764
2274.75,613.442979336748
2275,611.445761501414
2275.25,608.900089179232
2275.5,606.381829372759
2275.75,604.027420396583
2276,601.969645974202
2276.25,600.435077117267
2276.5,599.646039426153
2276.75,599.345551624607
2277,598.880016632537
2277.25,597.828339248848
2277.5,596.360220761602
2277.75,594.717999081195
2278,593.025512569797
2278.25,591.36631117014
2278.5,590.499042647663
2278.75,592.079041269282
2279,596.924733004265
2279.25,602.506511832106
2279.5,605.865610551553
2279.75,608.28008684826
2280,613.817739534635
2280.25,623.335384977675
2280.5,631.174509128096
2280.75,632.280746770984
2281,632.061380129607
2281.25,640.656640070904
2281.5,661.340466143645
2281.75,684.498981446763
2282,699.922796457167
2282.25,705.399009138255
2282.5,703.234840025249
2282.75,695.90645909623
2283,686.427829786865
2283.25,677.96384892075
2283.5,672.415826048109
2283.75,668.378501631038
2284,663.956049135069
2284.25,658.700152101189
2284.5,653.910384252264
2284.75,650.734208921219
2285,648.1867768572
2285.25,644.228986258667
2285.5,637.94808611515
2285.75,631.331077432391
2286,626.689398705727
2286.25,624.113107143204
2286.5,621.851134623137
2286.75,618.591759498432
2287,614.698520031672
2287.25,610.870866454862
2287.5,607.498338210661
2287.75,604.710779030331
2288,602.5146956677
2288.25,600.589425492166
2288.5,598.611071963101
2288.75,596.825373246462
2289,595.810580416132
2289.25,595.56580276576
2289.5,595.089721008022
2289.75,593.512450775854
2290,591.16252475063
2290.25,588.728314688142
2290.5,586.308611309764
2290.75,583.460873845639
2291,580.143929705854
2291.25,577.334760797691
2291.5,575.933732937411
2291.75,575.342597726481
2292,574.405688164829
2292.25,572.966720435953
2292.5,571.797488818018
2292.75,571.296925143009
2293,571.021363647594
2293.25,570.552054405246
2293.5,570.088612254049
2293.75,569.974704173939
2294,570.059112885976
2294.25,569.871195757991
2294.5,569.345941220071
2294.75,568.987762381236
2295,569.072709372349
2295.25,569.064504700113
2295.5,568.353850303592
2295.75,566.879487064492
2296,564.834992720659
2296.25,562.841712393272
2296.5,561.893806425839
2296.75,562.282531325013
2297,563.017464266614
2297.25,563.240904387336
2297.5,563.061126121321
2297.75,562.806520959883
2298,562.811245920652
2298.25,563.388602595112
2298.5,564.374570195703
2298.75,565.165648351793
2299,565.542513941721
2299.25,566.011263378023
2299.5,566.936406814312
2299.75,567.851610385718
2300,568.176891373977
2300.25,568.0612286069
2300.5,568.009607215362
2300.75,568.093324644308
2301,567.92589952783
2301.25,567.538785463418
2301.5,567.923018254732
2301.75,569.768227044789
2302,571.689313404612
2302.25,571.860578078002
2302.5,570.654303928651
2302.75,569.852417633964
2303,570.43088779545
2303.25,572.216756064697
2303.5,574.722605095631
2303.75,576.769127252342
2304,577.292714822406
2304.25,576.995475943296
2304.5,577.297980678824
2304.75,578.354725985068
2305,579.05338067745
2305.25,578.762777025694
2305.5,578.075257519327
2305.75,577.619361015953
2306,577.246038643218
2306.25,576.567208435671
2306.5,575.913658788864
2306.75,576.217820100885
2307,577.663143148727
2307.25,578.965996552363
2307.5,579.018017092771
2307.75,578.28320596631
2308,577.648368219856
2308.25,577.598698377973
2308.5,578.332986718751
2308.75,579.701966289995
2309,581.012606840563
2309.25,581.710214153441
2309.5,581.960179254467
2309.75,582.050129975697
2310,581.71497449903
2310.25,580.366518778486
2310.5,578.087787853264
2310.75,575.937423786994
2311,574.730174503676
2311.25,574.13246790558
2311.5,573.576642632918
2311.75,572.711873790757
2312,571.322044343846
2312.25,569.746057124078
2312.5,568.975860032813
2312.75,569.436870054917
2313,569.992891852691
2313.25,569.573867639535
2313.5,568.965479409893
2313.75,569.530392906063
2314,571.085292319999
2314.25,572.242525998272
2314.5,572.347776898668
2314.75,571.989884418119
2315,571.676339675838
2315.25,571.197560508598
2315.5,570.258229166142
2315.75,569.273402097177
2316,569.008850971982
2316.25,569.520646173624
2316.5,570.066480144821
2316.75,570.159487964553
2317,570.015242540075
2317.25,569.914981310118
2317.5,569.94768623728
2317.75,570.140386214644
2318,570.557480557524
2318.25,571.290785027837
2318.5,572.438886467258
2318.75,574.109695931765
2319,576.187524075216
2319.25,577.798088155861
2319.5,578.060624715862
2319.75,577.387062388469
2320,576.816045400397
2320.25,576.785903488222
2320.5,577.04227981162
2320.75,577.27036075973
2321,577.095861841192
2321.25,576.300457027806
2321.5,575.770876008125
2321.75,576.764634696884
2322,578.866456875911
2322.25,580.097673801653
2322.5,579.741202207197
2322.75,579.867874481858
2323,582.320399744438
2323.25,585.799761105372
2323.5,588.082421171505
2323.75,589.080042467015
2324,590.428958253334
2324.25,592.808900894452
2324.5,594.84719826112
2324.75,595.180499370911
2325,593.972551312268
2325.25,591.940245422654
2325.5,589.708182567635
2325.75,587.805787158481
2326,586.605231429882
2326.25,586.05030793819
2326.5,585.986560761574
2326.75,586.064341726953
2327,585.844853971849
2327.25,585.105058544127
2327.5,583.885682030401
2327.75,582.374875025976
2328,581.174571319199
2328.25,580.891463674675
2328.5,581.454145820679
2328.75,582.437063192818
2329,583.426832951237
2329.25,584.028938449598
2329.5,583.957767026756
2329.75,583.255092443911
2330,582.015567376497
2330.25,580.256540080622
2330.5,577.96826836116
2330.75,575.547094208152
2331,573.88415900457
2331.25,573.522076751784
2331.5,573.906007993998
2331.75,574.317862253175
2332,574.284672539359
2332.25,573.464766079353
2332.5,572.054030389027
2332.75,570.761528708981
2333,570.077510411116
2333.25,569.987467685062
2333.5,570.367328069871
2333.75,570.872039019
2334,571.119055079885
2334.25,571.079488655726
2334.5,570.957794769064
2334.75,570.909850827981
2335,571.017675164963
2335.25,571.122611226972
2335.5,570.343080159152
2335.75,567.963800005201
2336,565.489777125357
2336.25,565.292380248462
2336.5,567.353980158834
2336.75,569.420935833086
2337,570.140542616189
2337.25,570.003858458881
2337.5,569.606016793303
2337.75,569.137532250221
2338,568.677889557186
2338.25,568.243253695086
2338.5,567.820419590855
2338.75,567.626587920116
2339,568.153291508468
2339.25,569.52197930227
2339.5,570.890580116623
2339.75,571.429937875548
2340,571.211100397712
2340.25,570.602780380955
2340.5,569.744155775191
2340.75,568.601277109035
2341,567.249554537693
2341.25,565.946838864104
2341.5,564.907633899778
2341.75,564.137152397491
2342,563.589634910783
2342.25,563.17840456409
2342.5,562.798686716772
2342.75,562.371607978064
2343,561.845745438749
2343.25,561.468598888061
2343.5,562.031779338288
2343.75,563.917213300421
2344,565.769050516278
2344.25,566.077467466793
2344.5,565.32288477609
2344.75,564.874255527377
2345,564.722633770494
2345.25,563.529237295664
2345.5,561.007121132268
2345.75,559.003568052909
2346,558.979254115169
2346.25,559.849998031762
2346.5,560.055330007892
2346.75,559.43378523947
2347,558.512736680705
2347.25,557.598451109887
2347.5,556.783165851262
2347.75,556.18866321132
2348,556.003849671438
2348.25,556.323414168719
2348.5,556.900686442305
2348.75,557.498796396036
2349,558.425838868955
2349.25,560.126592498464
2349.5,561.78167137652
2349.75,561.649355729575
2350,559.830510790292
2350.25,559.058574455513
2350.5,560.994820869341
2350.75,563.744431607292
2351,565.164125949909
2351.25,565.201009455459
2351.5,564.522226499715
2351.75,563.585349184813
2352,562.69677566487
2352.25,562.112258576227
2352.5,562.020613136479
2352.75,562.567181039583
2353,563.788543072939
2353.25,565.671568837793
2353.5,568.020892876214
2353.75,570.563017219792
2354,572.868416384233
2354.25,574.397754155055
2354.5,574.976614219068
2354.75,574.995416393301
2355,574.775171734365
2355.25,574.221127533833
2355.5,573.180081647529
2355.75,571.799967768106
2356,570.389717880488
2356.25,569.318437107712
2356.5,569.022050190426
2356.75,569.553539525084
2357,570.001694433815
2357.25,569.516268413927
2357.5,568.430089148712
2357.75,567.46785774143
2358,566.995783062491
2358.25,567.103053509818
2358.5,567.62427741952
2358.75,568.009483135103
2359,567.93436842043
2359.25,567.927900998053
2359.5,568.535545973488
2359.75,569.09925881279
2360,568.48828962948
2360.25,567.194982574342
2360.5,567.240516087179
2360.75,569.250894778697
2361,570.983703837056
2361.25,570.580556306712
2361.5,569.268438517435
2361.75,568.898427142858
2362,569.173088019531
2362.25,568.544011401267
2362.5,566.908117995679
2362.75,565.979510360892
2363,566.862562122108
2363.25,568.752206515025
2363.5,570.605469768555
2363.75,571.806205048528
2364,571.942271936088
2364.25,571.352198476944
2364.5,570.942485324296
2364.75,571.038498996007
2365,570.98976454906
2365.25,570.284689944011
2365.5,569.252779314946
2365.75,568.426690626821
2366,568.430301273329
2366.25,569.894702026823
2366.5,572.369890254968
2366.75,574.235878262886
2367,574.552055128071
2367.25,574.058238410342
2367.5,573.584734965869
2367.75,573.18547146318
2368,572.689399472942
2368.25,572.50293778888
2368.5,573.46588891764
2368.75,575.684814545367
2369,578.033887642055
2369.25,579.510129707168
2369.5,580.017771882758
2369.75,579.714849499058
2370,579.147029712111
2370.25,579.066070765845
2370.5,579.391650173952
2370.75,578.914963094551
2371,576.911008353164
2371.25,574.490868028537
2371.5,573.012250293016
2371.75,572.742518100733
2372,573.376241190612
2372.25,574.153803619333
2372.5,573.81439138993
2372.75,571.790199895946
2373,569.286229406833
2373.25,567.59948336778
2373.5,566.978832448126
2373.75,567.260119667019
2374,567.864451817657
2374.25,567.897433174816
2374.5,567.048594426116
2374.75,565.946910038567
2375,565.087180165597
2375.25,564.221665562732
2375.5,563.009479705847
2375.75,561.609017615508
2376,560.423640159778
2376.25,560.138207367591
2376.5,561.686880963441
2376.75,565.346951200484
2377,570.23187513702
2377.25,575.294109219937
2377.5,579.332796278199
2377.75,581.203515390904
2378,580.506622179091
2378.25,577.302939837729
2378.5,574.452652629483
2378.75,578.03862896461
2379,590.201006981617
2379.25,601.821760600421
2379.5,603.655476672515
2379.75,598.739494313658
2380,595.159295677816
2380.25,595.814669309285
2380.5,597.003102891953
2380.75,595.855765713303
2381,594.177582975893
2381.25,594.641037811627
2381.5,597.111404182388
2381.75,599.501342171232
2382,600.464973739174
2382.25,600.129078191346
2382.5,598.810742783896
2382.75,596.991124851734
2383,595.213257923194
2383.25,594.040802705942
2383.5,594.059714607542
2383.75,595.406905623212
2384,596.804994513775
2384.25,596.832912476743
2384.5,595.421942938136
2384.75,593.29101905935
2385,591.211535272534
2385.25,590.024019166172
2385.5,590.258419110019
2385.75,590.931447509761
2386,590.681766817447
2386.25,589.32887026996
2386.5,587.646371842204
2386.75,586.210437120051
2387,585.118905850528
2387.25,584.40164385583
2387.5,584.048016736657
2387.75,584.023438143693
2388,584.111526703281
2388.25,583.927365299776
2388.5,583.499284514563
2388.75,583.821401453423
2389,585.723006036194
2389.25,588.157703795077
2389.5,589.43613202216
2389.75,589.571540245244
2390,590.204449892278
2390.25,592.125030909047
2390.5,593.843148914277
2390.75,593.809920817851
2391,592.61413186458
2391.25,591.77000378431
2391.5,591.797699824994
2391.75,592.003182151639
2392,591.891225182094
2392.25,591.884198708169
2392.5,592.545586301519
2392.75,593.880236519955
2393,595.554590418271
2393.25,597.291521787042
2393.5,598.911927305761
2393.75,600.2259193499
2394,600.950067005543
2394.25,600.819873948646
2394.5,600.449536983395
2394.75,601.232660104818
2395,603.76892754831
2395.25,606.492983007106
2395.5,607.714543892346
2395.75,607.812549548679
2396,608.258702348013
2396.25,609.762349979604
2396.5,611.755132252502
2396.75,613.626587870605
2397,615.217112396267
2397.25,616.527400282416
2397.5,617.497257468393
2397.75,617.992974837341
2398,617.981254136219
2398.25,617.894037974379
2398.5,618.270874594367
2398.75,619.141168465394
2399,620.015072988503
2399.25,620.453720702632
2399.5,620.29704437072
2399.75,619.466079719215
2400,618.181678866013
2400.25,616.9338716063
2400.5,615.976767093932
2400.75,614.746765784512
2401,612.564597599395
2401.25,609.58680570968
2401.5,606.624619154593
2401.75,604.367148329333
2402,603.131120799871
2402.25,603.098019281
2402.5,603.711160394301
2402.75,603.998470426773
2403,603.72014415319
2403.25,603.895478677427
2403.5,605.321911715338
2403.75,606.8208158596
2404,606.578653434116
2404.25,604.617345780304
2404.5,602.969195068999
2404.75,603.07035430057
2405,603.858326150655
2405.25,603.7988372989
2405.5,602.533489438766
2405.75,600.550530075127
2406,598.335815687831
2406.25,596.329446955031
2406.5,594.920264024361
2406.75,594.168314719083
2407,593.988673101005
2407.25,594.302974495563
2407.5,595.041691398737
2407.75,596.048550359975
2408,596.862427901024
2408.25,597.022932346424
2408.5,596.855151558832
2408.75,597.187482831903
2409,598.364792901084
2409.25,599.845048134874
2409.5,601.110884679409
2409.75,602.301948648343
2410,603.762481027922
2410.25,605.268408384646
2410.5,606.011277092697
2410.75,605.593865109054
2411,605.009724236446
2411.25,605.448534052563
2411.5,607.131878193922
2411.75,609.632584160782
2412,612.275035770889
2412.25,613.902575711894
2412.5,613.535702613124
2412.75,611.950461277501
2413,610.706583678744
2413.25,610.861766395563
2413.5,612.706252349073
2413.75,616.238376284383
2414,620.214531756569
2414.25,623.005343560818
2414.5,624.048820781542
2414.75,624.014253672201
2415,623.577357253288
2415.25,623.132556702342
2415.5,622.994662237049
2415.75,623.485959012542
2416,624.937004801838
2416.25,627.496323689707
2416.5,630.512464412134
2416.75,633.131055021293
2417,634.931298606685
2417.25,635.961966856688
2417.5,636.520516530856
2417.75,637.978624483032
2418,641.976726047647
2418.25,648.136069067335
2418.5,653.4372283315
2418.75,655.144316962984
2419,653.551903640718
2419.25,650.175183208394
2419.5,646.341832251419
2419.75,642.978389828629
2420,640.88823331819
2420.25,639.861232188812
2420.5,638.942223602017
2420.75,637.525978858103
2421,636.273822438136
2421.25,636.067528258162
2421.5,636.545016889146
2421.75,636.079075449564
2422,633.534534570313
2422.25,630.33078158078
2422.5,628.597764272513
2422.75,629.252429369412
2423,631.658568435147
2423.25,635.081087100435
2423.5,638.799765415317
2423.75,642.10414980682
2424,644.511336451941
2424.25,645.865621567222
2424.5,646.095829349879
2424.75,645.571519126562
2425,644.860170580476
2425.25,644.353064573649
2425.5,644.060884403604
2425.75,643.914091451678
2426,643.436726187635
2426.25,641.866572214121
2426.5,638.992494866196
2426.75,636.479351649329
2427,636.304376104078
2427.25,638.460387104505
2427.5,640.901039040969
2427.75,641.936454053331
2428,641.994391275338
2428.25,642.109930488158
2428.5,642.637217457668
2428.75,643.001727735686
2429,642.755593084932
2429.25,642.819197072203
2429.5,644.694365140127
2429.75,648.723177940358
2430,652.938033825291
2430.25,655.248134377038
2430.5,655.30950349445
2430.75,653.9083545269
2431,651.964283389231
2431.25,650.791363100756
2431.5,651.746560522167
2431.75,654.83481897445
2432,658.453097455686
2432.25,661.063021847392
2432.5,662.19168185237
2432.75,661.808059561342
2433,660.491816515332
2433.25,660.206554433203
2433.5,663.018061103092
2433.75,669.326552892413
2434,678.053759820894
2434.25,687.745632449417
2434.5,695.202149151609
2434.75,696.649472644124
2435,691.119990857707
2435.25,684.165702489849
2435.5,682.13914790569
2435.75,686.54627533616
2436,692.55843492067
2436.25,695.292951861882
2436.5,694.158996280834
2436.75,691.312467726372
2437,688.701419105865
2437.25,686.880832439993
2437.5,685.928539981416
2437.75,686.192640977621
2438,688.75899789618
2438.25,694.779565404381
2438.5,702.930646685844
2438.75,708.54915643435
2439,707.194804199821
2439.25,700.833351040788
2439.5,696.137029744703
2439.75,698.846930908613
2440,706.551005320432
2440.25,712.99158694016
2440.5,713.749622407343
2440.75,711.901931668403
2441,712.406812541776
2441.25,717.671764085595
2441.5,723.466127507977
2441.75,724.542174801522
2442,719.512433996815
2442.25,713.572730952482
2442.5,712.467565663173
2442.75,718.236053804703
2443,728.075382717151
2443.25,738.896365527872
2443.5,748.347750612959
2443.75,754.726318833349
2444,756.524309086227
2444.25,754.654751005479
2444.5,751.80892266277
2444.75,750.558408188836
2445,751.008946216152
2445.25,751.336773917006
2445.5,749.802664345457
2445.75,746.787118836738
2446,744.346792238446
2446.25,744.428008518705
2446.5,746.504946276543
2446.75,748.076365444484
2447,746.800416926676
2447.25,743.424302319174
2447.5,741.012528518327
2447.75,742.464893471755
2448,747.598111550231
2448.25,753.964419135871
2448.5,759.179547528532
2448.75,762.269968118592
2449,763.204000953764
2449.25,762.029679415788
2449.5,759.628411891809
2449.75,757.474568944911
2450,756.960123528004
2450.25,757.921464663517
2450.5,758.925744784786
2450.75,758.563975048083
2451,756.548004372591
2451.25,753.573732505815
2451.5,750.364787465052
2451.75,747.521748800556
2452,745.52651919005
2452.25,744.836850987559
2452.5,745.478156748594
2452.75,747.050084904301
2453,749.151645474739
2453.25,751.736617129466
2453.5,755.090378406189
2453.75,759.471944157624
2454,764.369676505538
2454.25,768.56651896657
2454.5,770.855042749874
2454.75,770.825228536562
2455,768.852282121022
2455.25,765.358701051655
2455.5,761.239353670218
2455.75,757.962370927072
2456,757.003150719135
2456.25,758.458565900224
2456.5,760.424165814629
2456.75,760.858858855428
2457,758.98898803333
2457.25,756.023365725998
2457.5,753.340410066084
2457.75,752.053834466075
2458,752.811270767126
2458.25,756.204300497418
2458.5,761.959108113104
2458.75,768.210427926071
2459,772.929962923078
2459.25,775.050908660518
2459.5,775.374037400203
2459.75,774.914052669577
2460,774.440441495649
2460.25,774.113488401277
2460.5,774.000457018247
2460.75,774.061429100331
2461,773.900240370636
2461.25,773.04680651782
2461.5,771.28307310697
2461.75,769.507482746124
2462,768.927547482806
2462.25,770.493867346142
2462.5,773.652051319934
2462.75,777.301379770456
2463,780.459085177752
2463.25,783.02547195158
2463.5,785.298858555529
2463.75,787.578324319912
2464,790.150318377981
2464.25,793.293552859777
2464.5,797.23233051922
2464.75,801.157888477862
2465,803.335716099321
2465.25,802.046906238285
2465.5,797.954096160813
2465.75,795.139899871791
2466,797.945514937481
2466.25,808.023904911626
2466.5,820.118047368566
2466.75,827.875982871926
2467,826.741337704287
2467.25,820.206840177832
2467.5,814.019711390689
2467.75,813.499469968541
2468,818.680264591414
2468.25,826.032058093143
2468.5,832.00583907926
2468.75,834.930611350433
2469,835.587387879096
2469.25,834.922280118115
2469.5,833.810891484257
2469.75,832.905381584392
2470,832.813751271317
2470.25,834.083546794225
2470.5,836.714701223995
2470.75,840.415833995207
2471,844.884353771901
2471.25,849.49847925042
2471.5,853.22839285954
2471.75,855.017674778049
2472,854.180742332639
2472.25,851.371240577729
2472.5,847.545030819704
2472.75,843.642981469681
2473,840.393707925043
2473.25,838.368401208107
2473.5,838.131567454271
2473.75,839.806650557043
2474,842.61225828951
2474.25,845.655975666676
2474.5,848.075597942157
2474.75,849.183637484043
2475,848.355272915474
2475.25,845.009248370765
2475.5,839.592451204701
2475.75,833.595708419961
2476,828.556035470288
2476.25,825.496644374014
2476.5,823.941317580936
2476.75,823.141789103574
2477,822.46757898717
2477.25,822.186713591017
2477.5,822.981153495169
2477.75,825.497628743261
2478,829.514462740971
2478.25,833.937452476836
2478.5,837.636368551238
2478.75,839.941508790304
2479,841.204365854381
2479.25,841.913635274953
2479.5,842.441549286172
2479.75,842.435019347756
2480,841.262198986524
2480.25,838.336054484381
2480.5,834.184373288302
2480.75,830.490582051564
2481,828.990620575867
2481.25,830.681962775585
2481.5,834.529112450582
2481.75,839.149754630655
2482,843.327763924533
2482.25,847.035678417852
2482.5,850.76369514787
2482.75,854.98956183711
2483,859.761991122112
2483.25,864.641155121148
2483.5,869.160682198299
2483.75,872.947290149668
2484,875.959741209297
2484.25,878.230800603581
2484.5,879.7662974297
2484.75,880.102012649568
2485,878.374226498541
2485.25,873.706568042973
2485.5,865.897395192627
2485.75,857.09487545702
2486,849.958390018745
2486.25,846.992765623425
2486.5,847.865261394258
2486.75,849.754680677761
2487,849.759320473422
2487.25,846.469690044523
2487.5,842.222460259279
2487.75,839.932794663078
2488,842.147817678664
2488.25,848.298633448585
2488.5,856.248187630258
2488.75,863.866744159644
2489,869.779775503211
2489.25,873.598143471541
2489.5,874.999004175186
2489.75,873.828284173565
2490,870.706247349995
2490.25,866.47509904276
2490.5,861.96955196499
2490.75,857.808010629911
2491,854.365192256585
2491.25,852.002802730195
2491.5,850.932379256795
2491.75,850.761806761739
2492,850.947309022919
2492.25,850.990751186569
2492.5,851.103692626993
2492.75,852.058037141114
2493,854.638584965679
2493.25,859.033065723991
2493.5,864.045035733462
2493.75,868.282425135472
2494,870.514842470942
2494.25,870.827339544915
2494.5,869.945262495167
2494.75,868.59422728356
2495,867.174948501122
2495.25,865.529008969188
2495.5,863.442761580808
2495.75,860.758818702885
2496,857.71186612441
2496.25,854.703447634966
2496.5,852.129284854029
2496.75,850.077036888056
2497,848.197081112181
2497.25,846.106516151612
2497.5,843.734896296537
2497.75,842.444949201402
2498,844.010064723446
2498.25,850.042119264244
2498.5,859.428315581562
2498.75,868.7891194955
2499,874.682250195846
2499.25,875.248491427139
2499.5,872.297848008292
2499.75,868.158777699591
2500,865.007713968222
2500.25,863.398101414779
2500.5,862.900973416848
2500.75,863.073682066138
2501,863.476355051966
2501.25,863.674936533549
2501.5,863.236102482805
2501.75,861.814863109696
2502,859.78470856842
2502.25,857.868758978462
2502.5,856.78869644582
2502.75,857.013587182396
2503,858.605070838808
2503.25,861.587816583113
2503.5,865.902981993942
2503.75,871.026716578926
2504,876.274269040245
2504.25,880.971495076068
2504.5,884.774016641861
2504.75,887.720635492654
2505,889.871673891555
2505.25,891.270814442586
2505.5,891.878708933038
2505.75,891.630162411754
2506,890.46239128698
2506.25,888.428328955902
2506.5,885.745113847077
2506.75,882.642375528824
2507,879.40567942302
2507.25,876.730635341627
2507.5,875.495330953682
2507.75,876.569366627441
2508,879.92715298983
2508.25,883.917373189398
2508.5,886.71676837646
2508.75,886.769825675713
2509,884.698175549521
2509.25,882.182649662695
2509.5,880.90517003737
2509.75,881.580898038772
2510,882.899676253364
2510.25,883.296615700302
2510.5,881.376367962691
2510.75,877.502552146922
2511,873.080454363315
2511.25,869.527339565818
2511.5,867.704149529891
2511.75,867.107817339486
2512,867.030053963472
2512.25,866.83951950304
2512.5,866.737648822821
2512.75,867.435208653695
2513,869.647269504197
2513.25,873.578991166065
2513.5,878.355481208532
2513.75,882.964242183121
2514,886.484061105196
2514.25,888.808088202293
2514.5,890.257349784501
2514.75,891.155620322479
2515,891.621457770215
2515.25,891.323983552776
2515.5,889.872792584453
2515.75,886.938251875655
2516,882.962527614791
2516.25,878.918603514463
2516.5,875.789739621504
2516.75,874.219580231363
2517,873.802362080755
2517.25,873.930258097372
2517.5,874.041029265112
2517.75,874.303681063889
2518,875.476358054975
2518.25,878.333721882434
2518.5,883.191807310713
2518.75,888.949587831431
2519,894.23319894847
2519.25,897.714045337365
2519.5,898.813745600836
2519.75,897.571121526207
2520,894.043343902831
2520.25,888.511136554851
2520.5,882.174730934334
2520.75,876.470737139348
2521,872.815826088529
2521.25,871.914884901107
2521.5,873.583238707292
2521.75,877.580162666764
2522,883.495676333422
2522.25,890.055029944672
2522.5,895.708012640149
2522.75,898.939360582553
2523,899.544220887256
2523.25,898.990129796143
2523.5,898.853436241593
2523.75,900.447987601387
2524,903.236866728101
2524.25,905.88733199612
2524.5,907.066649157707
2524.75,905.96462193747
2525,902.877421123433
2525.25,898.242110941631
2525.5,892.522613413167
2525.75,886.599793310374
2526,881.683365525232
2526.25,878.991972360809
2526.5,879.278040280808
2526.75,881.466668222255
2527,884.035319073366
2527.25,885.514920589255
2527.5,885.720958609312
2527.75,885.784718461016
2528,886.897199750521
2528.25,889.92332092729
2528.5,894.21590980281
2528.75,898.689813617394
2529,902.272458129072
2529.25,904.373963675395
2529.5,905.026869229352
2529.75,904.30484968015
2530,902.343882300779
2530.25,899.742144430207
2530.5,897.305658239363
2530.75,895.839846268665
2531,895.724674488251
2531.25,896.343881155745
2531.5,896.938813583002
2531.75,896.788018904574
2532,895.729221623009
2532.25,894.031914029118
2532.5,891.976771053958
2532.75,889.867661605793
2533,888.098258531707
2533.25,887.083966322799
2533.5,887.231066772261
2533.75,888.666842141705
2534,891.19468660184
2534.25,894.599831228792
2534.5,898.554925985027
2534.75,902.114088817253
2535,904.120131439124
2535.25,903.433955746802
2535.5,900.173839879309
2535.75,896.505690496314
2536,894.783616976731
2536.25,897.032523738475
2536.5,901.86559522245
2536.75,905.877291469933
2537,905.637849909681
2537.25,899.460700152359
2537.5,890.561125774502
2537.75,883.009701341816
2538,880.735385486835
2538.25,884.330935185944
2538.5,891.008397475581
2538.75,897.829301312049
2539,902.41480338631
2539.25,904.828657943178
2539.5,905.800857647884
2539.75,906.051353674705
2540,905.855740008688
2540.25,904.879422445979
2540.5,902.743534851554
2540.75,899.17217037047
2541,894.770895226388
2541.25,890.593003001009
2541.5,887.694691345205
2541.75,886.841396027191
2542,888.044532898328
2542.25,891.194886109252
2542.5,896.170107653035
2542.75,902.647388646972
2543,910.147551718575
2543.25,918.187275421847
2543.5,926.166885200049
2543.75,933.05228700924
2544,937.708020624681
2544.25,939.01754708218
2544.5,936.867600776906
2544.75,932.628494452295
2545,927.790155259398
2545.25,923.794982223785
2545.5,921.359959968755
2545.75,920.636267131819
2546,921.760095079437
2546.25,924.652585184599
2546.5,928.039348504143
2546.75,930.232949723114
2547,929.550503955295
2547.25,925.317882907442
2547.5,919.092601674927
2547.75,912.731204516245
2548,908.058293171772
2548.25,906.101806490161
2548.5,907.056982499446
2548.75,911.079904700759
2549,918.040425182292
2549.25,925.962666532581
2549.5,932.138373566804
2549.75,933.864152117641
2550,929.952267416337
2550.25,922.643789188103
2550.5,914.651126229695
2550.75,908.629804718944
2551,905.636627955725
2551.25,904.949460498261
2551.5,905.753112158672
2551.75,907.266393997337
2552,908.947582630795
2552.25,910.357825255223
2552.5,911.059690300327
2552.75,910.859663383766
2553,910.122220710154
2553.25,909.289521006514
2553.5,908.802938350868
2553.75,909.089242812277
2554,910.562290283627
2554.25,913.635491578252
2554.5,918.483987437878
2554.75,924.037091393828
2555,928.81829254181
2555.25,931.359591922407
2555.5,931.197855640103
2555.75,929.794266241042
2556,928.827337532697
2556.25,929.884882011407
2556.5,932.744676230075
2556.75,935.515731696323
2557,936.244671288537
2557.25,933.350095740461
2557.5,927.869830472839
2557.75,921.966665293088
2558,917.807568807422
2558.25,917.019140168242
2558.5,919.480152615164
2558.75,924.716645052083
2559,932.240128690937
2559.25,940.994591229741
2559.5,949.185186857534
2559.75,954.967530961574
2560,956.696281083785
2560.25,954.906544085464
2560.5,951.479304044834
2560.75,948.31539381508
2561,947.014487299099
2561.25,947.329543016494
2561.5,948.313893473828
2561.75,949.0196222314
2562,948.804415576034
2562.25,948.026070210326
2562.5,947.24664698644
2562.75,947.024930876853
2563,947.595509600966
2563.25,948.598842871455
2563.5,949.611836992695
2563.75,950.221943011716
2564,950.279358235099
2564.25,949.90877437403
2564.5,949.247778920775
2564.75,948.408165554518
2565,947.219222411152
2565.25,945.335888824608
2565.5,942.410533994489
2565.75,938.2687038182
2566,933.709849483279
2566.25,929.873607771962
2566.5,927.899350175568
2566.75,928.416016121015
2567,930.618707945609
2567.25,933.452623766855
2567.5,935.881944647935
2567.75,937.578037668065
2568,939.113511410123
2568.25,941.119485243529
2568.5,944.167714385794
2568.75,948.141406709089
2569,952.48028605579
2569.25,956.616718045991
2569.5,959.982461147219
2569.75,962.005982872642
2570,962.114640915257
2570.25,959.735936079997
2570.5,954.78486180591
2570.75,948.752511333624
2571,943.447912012126
2571.25,940.673377402679
2571.5,941.245530138354
2571.75,943.96550852591
2572,947.388117612338
2572.25,950.105210040651
2572.5,951.707171884225
2572.75,952.871763646713
2573,954.331602102224
2573.25,956.745602697291
2573.5,959.930298812846
2573.75,963.165510058139
2574,965.72240961351
2574.25,966.974103645718
2574.5,966.9341740998
2574.75,965.86437050667
2575,964.026984870608
2575.25,961.776277277281
2575.5,959.848585159445
2575.75,959.079452602756
2576,960.303497048118
2576.25,963.76719934877
2576.5,968.121889460088
2576.75,971.751066292193
2577,973.052800335078
2577.25,971.635215755826
2577.5,969.205802553362
2577.75,967.681591915689
2578,968.937290642431
2578.25,973.196469605475
2578.5,978.534468593879
2578.75,982.882720312035
2579,984.267526412937
2579.25,982.639970150995
2579.5,979.74302058115
2579.75,977.38789389161
2580,977.274201505657
2580.25,979.373602938051
2580.5,982.297267036515
2580.75,984.619569613738
2581,985.053122400459
2581.25,983.823492657777
2581.5,982.089474858744
2581.75,981.02359975581
2582,981.649039692618
2582.25,983.660216801437
2582.5,986.054994607634
2582.75,987.82509964479
2583,988.152540254158
2583.25,987.540938983442
2583.5,987.05468162885
2583.75,987.760188554199
2584,990.48616902397
2584.25,994.640586472077
2584.5,999.105848531852
2584.75,1002.76351536421
2585,1004.60694746652
2585.25,1004.20635389224
2585.5,1001.31744939546
2585.75,995.696036670523
2586,987.374140580132
2586.25,977.861931545839
2586.5,969.161965775631
2586.75,963.277135993567
2587,961.842003790925
2587.25,964.636381477483
2587.5,970.857568202875
2587.75,979.70260162842
2588,990.193041134708
2588.25,1000.78346948413
2588.5,1009.81417152019
2588.75,1015.62750043227
2589,1017.40565755836
2589.25,1016.45595231403
2589.5,1014.41670531785
2589.75,1012.925826694
2590,1013.00415016131
2590.25,1013.81490261971
2590.5,1014.17317720382
2590.75,1012.89409748329
2591,1009.21102678254
2591.25,1003.82572565344
2591.5,997.762033781475
2591.75,992.043790852085
2592,987.602704240796
2592.25,984.992519746018
2592.5,984.670074646004
2592.75,987.092201505459
2593,992.335213818966
2593.25,999.0572709466
2593.5,1005.5862229914
2593.75,1010.25009914613
2594,1011.89197831644
2594.25,1010.99916971576
2594.5,1008.38638312019
2594.75,1004.8683255251
2595,1001.19133372765
2595.25,997.85593808605
2595.5,995.307448490017
2595.75,993.991173944904
2596,994.10955394416
2596.25,994.93802412738
2596.5,995.530883189595
2596.75,994.942452644391
2597,992.638711693596
2597.25,989.547961587134
2597.5,986.92306261031
2597.75,986.016784713749
2598,987.575817489008
2598.25,990.653102894805
2598.5,993.947656354886
2598.75,996.159018302481
2599,996.455825717894
2599.25,995.338322293339
2599.5,993.541423827388
2599.75,991.799757517273
2600,990.665886583433
2600.25,990.198990727806
2600.5,990.375482979531
2600.75,991.17153448536
2601,992.477371516691
2601.25,993.970746034401
2601.5,995.297148519742
2601.75,996.103172726991
2602,996.270210239824
2602.25,996.203962226411
2602.5,996.381141336486
2602.75,997.276972384578
2603,999.106291557213
2603.25,1001.52792122361
2603.5,1004.129171951
2603.75,1006.49733496837
2604,1008.21674842308
2604.25,1008.86565161218
2604.5,1008.0215295629
2604.75,1005.26413398061
2605,1000.63166029303
2605.25,995.174510384884
2605.5,990.078410023861
2605.75,986.52743036232
2606,985.244435647247
2606.25,985.862890885661
2606.5,987.859021165079
2606.75,990.708841891667
2607,993.85772747867
2607.25,996.688474317053
2607.5,998.57624135025
2607.75,998.901595983906
2608,997.577706816873
2608.25,995.492337337575
2608.5,993.637308489978
2608.75,993.000887564817
2609,994.233748970933
2609.25,997.375523967033
2609.5,1002.4014887981
2609.75,1009.2792522362
2610,1017.40099913929
2610.25,1025.1934592333
2610.5,1030.99107861616
2610.75,1033.13940973498
2611,1031.03886675593
2611.25,1025.99903711151
2611.5,1019.53056547443
2611.75,1013.14335856776
2612,1007.97904173375
2612.25,1004.21553258004
2612.5,1001.87505517614
2612.75,1000.97983561561
2613,1001.55593748364
2613.25,1003.64124133156
2613.5,1007.27589497652
2613.75,1012.49990731306
2614,1019.05374836692
2614.25,1025.74461664293
2614.5,1031.19846556008
2614.75,1034.04126861579
2615,1033.38301689477
2615.25,1030.07258860428
2615.5,1025.34921722549
2615.75,1020.45213623954
2616,1016.45170022831
2616.25,1013.50446946998
2616.5,1011.45935258515
2616.75,1010.16502552194
2617,1009.48256207454
2617.25,1009.35903303904
2617.5,1009.77795518336
2617.75,1010.7229767282
2618,1012.1399175346
2618.25,1013.67624126209
2618.5,1014.83796771065
2618.75,1015.13026630724
2619,1014.13942087914
2619.25,1012.19191444594
2619.5,1010.01035495271
2619.75,1008.3210992726
2620,1007.75789149739
2620.25,1007.9132123813
2620.5,1007.72417782602
2620.75,1006.11769546787
2621,1002.15800296774
2621.25,996.645084120554
2621.5,991.568653467704
2621.75,988.941645030249
2622,990.596828532408
2622.25,995.911147597029
2622.5,1002.48671904256
2622.75,1007.88621431248
2623,1009.86710029729
2623.25,1008.44078735019
2623.5,1005.06784727033
2623.75,1001.23278109502
2624,998.345134132562
2624.25,996.823484702029
2624.5,996.385282029562
2624.75,996.733171272835
2625,997.581460034179
2625.25,998.798634447029
2625.5,1000.36226154017
2625.75,1002.25221136183
2626,1004.43664020534
2626.25,1006.73568513384
2626.5,1008.86804294601
2626.75,1010.5504314808
2627,1011.50196390503
2627.25,1011.47341690419
2627.5,1010.23796757265
2627.75,1007.56926586898
2628,1003.30150938981
2628.25,998.219304000797
2628.5,993.862296114274
2628.75,991.790956458488
2629,993.463784700245
2629.25,998.572921568447
2629.5,1005.31615622217
2629.75,1011.84418558564
2630,1016.38750718517
2630.25,1018.38959961418
2630.5,1018.23747286165
2630.75,1016.34297929107
2631,1013.13159809723
2631.25,1009.29030558894
2631.5,1005.7416201378
2631.75,1003.41647814823
2632,1003.2087681926
2632.25,1005.07488253913
2632.5,1007.98366760189
2632.75,1010.85690356397
2633,1012.64676025727
2633.25,1013.12145349145
2633.5,1012.93613418656
2633.75,1012.79055158561
2634,1013.36349303127
2634.25,1014.60784144068
2634.5,1015.58198022197
2634.75,1015.2891501616
2635,1012.75471803162
2635.25,1008.05148199502
2635.5,1002.73239558047
2635.75,998.462340437392
2636,996.893936034167
2636.25,998.817801724933
2636.5,1003.61030103292
2636.75,1010.51652447481
2637,1018.78210364792
2637.25,1027.6873956725
2637.5,1036.56792401
2637.75,1044.76411797733
2638,1051.61716068903
2638.25,1056.55090300791
2638.5,1059.14534818216
2638.75,1058.99784108643
2639,1055.70580659694
2639.25,1049.30433530309
2639.5,1041.29111172206
2639.75,1033.46898159342
2640,1027.64079065683
2640.25,1025.24983202124
2640.5,1025.3702659145
2640.75,1026.1175393196
2641,1025.60439456824
2641.25,1022.21532309332
2641.5,1016.88045597453
2641.75,1011.92127719851
2642,1009.67340640021
2642.25,1012.26299983147
2642.5,1019.00693985574
2642.75,1027.21451800918
2643,1034.15159470943
2643.25,1037.2411363607
2643.5,1036.37033506704
2643.75,1033.38310274422
2644,1030.1772610137
2644.25,1028.60384210957
2644.5,1029.09311592899
2644.75,1030.43181326145
2645,1031.31502361391
2645.25,1030.45188243504
2645.5,1027.42611693723
2645.75,1023.19570077901
2646,1018.83902682745
2646.25,1015.4322059321
2646.5,1013.592700729
2646.75,1012.9267477318
2647,1012.90561053354
2647.25,1013.00086466861
2647.5,1012.8504668519
2647.75,1012.53224388512
2648,1012.19587810908
2648.25,1011.99107890533
2648.5,1012.1181310445
2648.75,1012.93286052318
2649,1014.82089708769
2649.25,1018.16785275175
2649.5,1023.05387534951
2649.75,1028.47608910059
2650,1033.19170568952
2650.25,1035.95793680086
2650.5,1035.86626397478
2650.75,1033.47877721049
2651,1029.76186861231
2651.25,1025.68194202576
2651.5,1022.14896914296
2651.75,1019.68692262389
2652,1018.65822059053
2652.25,1019.42473468823
2652.5,1022.26080517334
2652.75,1026.60994612336
2653,1031.45677217163
2653.25,1035.78107151369
2653.5,1038.63620633048
2653.75,1040.00408514119
2654,1040.50240023275
2654.25,1040.7612193341
2654.5,1041.38465707586
2654.75,1042.36951911886
2655,1043.09947452661
2655.25,1042.93107370544
2655.5,1041.23214544241
2655.75,1038.05202823156
2656,1034.49917386994
2656.25,1031.77346557812
2656.5,1031.07246835816
2656.75,1032.77888775218
2657,1035.26481310259
2657.25,1036.59769815582
2657.5,1034.84504830158
2657.75,1028.95761080549
2658,1021.01672876252
2658.25,1013.79702849088
2658.5,1010.07313630879
2658.75,1011.98589380622
2659,1018.25221517825
2659.25,1026.43801986323
2659.5,1034.10836915013
2659.75,1039.11080241399
2660,1041.01856998046
2660.25,1040.05644636327
2660.5,1036.45041255036
2660.75,1030.51265056263
2661,1023.38452800923
2661.25,1016.67028664884
2661.5,1011.97920682192
2661.75,1010.81120728887
2662,1012.89592822389
2662.25,1016.52833941779
2662.5,1019.96210178846
2662.75,1021.52567428489
2663,1021.00573837984
2663.25,1019.51491617121
2663.5,1018.21409638494
2663.75,1018.23272676955
2664,1019.78589789246
2664.25,1022.05351000867
2664.5,1024.15973900106
2664.75,1025.24198932544
2665,1025.0166485755
2665.25,1023.99196830295
2665.5,1022.73331763981
2665.75,1021.80337683353
2666,1021.51972531719
2666.25,1021.76193462122
2666.5,1022.36418051931
2666.75,1023.16105446625
2667,1024.08431862192
2667.25,1025.28715635398
2667.5,1026.953440203
2667.75,1029.2669584435
2668,1032.30119860019
2668.25,1035.80238541978
2668.5,1039.45633039305
2668.75,1042.94884501077
2669,1046.00802738071
2669.25,1048.53916665891
2669.5,1050.49395564349
2669.75,1051.82408729712
2670,1052.48094895198
2670.25,1052.41375783072
2670.5,1051.57079215888
2670.75,1049.90032640797
2671,1047.38607632248
2671.25,1044.53264535254
2671.5,1042.24085407644
2671.75,1041.42144378119
2672,1042.95989018902
2672.25,1046.80734067811
2672.5,1051.72820679282
2672.75,1056.410246346
2673,1059.54627219972
2673.25,1060.50211958163
2673.5,1059.98510980995
2673.75,1058.86160098363
2674,1057.99795117617
2674.25,1057.99181389514
2674.5,1058.38068537589
2674.75,1058.44063792458
2675,1057.44774384737
2675.25,1054.7921915849
2675.5,1050.78594116032
2675.75,1046.18689047241
2676,1041.75584760228
2676.25,1038.22619722962
2676.5,1035.81536927169
2676.75,1034.28154397866
2677,1033.36686742975
2677.25,1032.81303455366
2677.5,1032.342496154
2677.75,1031.65167013766
2678,1030.43512652893
2678.25,1028.39088973686
2678.5,1025.62426877877
2678.75,1023.02589141914
2679,1021.57582466274
2679.25,1022.25313567521
2679.5,1025.46538428021
2679.75,1030.09341875519
2680,1034.76588300925
2680.25,1038.11145999858
2680.5,1039.14962828728
2680.75,1038.25125128074
2681,1036.0790973135
2681.25,1033.29593472008
2681.5,1030.50315104112
2681.75,1027.96674238954
2682,1025.83872461422
2682.25,1024.2710196225
2682.5,1023.37877416438
2682.75,1022.97226131109
2683,1022.71099706166
2683.25,1022.25342565965
2683.5,1021.30994822475
2683.75,1020.1905467757
2684,1019.58994226246
2684.25,1020.20917481521
2684.5,1022.68044861742
2684.75,1026.52295215406
2685,1030.35451859131
2685.25,1032.76706850223
2685.5,1032.42245842873
2685.75,1029.61614428122
2686,1026.29123288572
2686.25,1024.46357741115
2686.5,1026.11482039843
2686.75,1031.57123928535
2687,1038.79887668189
2687.25,1045.58300581148
2687.5,1049.72052397293
2687.75,1050.22918068107
2688,1048.40397709983
2688.25,1045.78892036918
2688.5,1043.92788301756
2688.75,1043.85967319075
2689,1044.97777468374
2689.25,1046.34119318712
2689.5,1047.00893439147
2689.75,1046.21911490329
2690,1044.20027127913
2690.25,1041.52138179688
2690.5,1038.75173510998
2690.75,1036.43541148816
2691,1034.86055407428
2691.25,1034.16625307003
2691.5,1034.489745911
2691.75,1035.94713481807
2692,1038.27061632494
2692.25,1040.85791076923
2692.5,1043.09554808274
2692.75,1044.38457451257
2693,1044.64989639728
2693.25,1044.47440876709
2693.5,1044.48278645022
2693.75,1045.29634698849
2694,1047.07158039424
2694.25,1049.02884283884
2694.5,1050.27612638252
2694.75,1049.92147530493
2695,1047.4085363378
2695.25,1043.31359082763
2695.5,1038.45161747433
2695.75,1033.63759497777
2696,1029.64352229295
2696.25,1026.97591100279
2696.5,1026.0400096713
2696.75,1027.24086641953
2697,1030.85781610586
2697.25,1035.9791607293
2697.5,1041.03631552172
2697.75,1044.45382021325
2698,1044.79056904195
2698.25,1042.51680182046
2698.5,1039.52507335997
2698.75,1037.74180138919
2699,1039.03576767737
2699.25,1043.41595621919
2699.5,1048.67516617803
2699.75,1052.47659586183
2700,1052.50125291566
2700.25,1048.04763443157
2700.5,1041.30150171439
2700.75,1034.74742813506
2701,1030.86976325115
2701.25,1031.31831025298
2701.5,1035.02543550868
2701.75,1040.37133185959
2702,1045.73619214711
2702.25,1049.72734589691
2702.5,1052.02422576909
2702.75,1052.62228277145
2703,1051.51701289964
2703.25,1048.78756757113
2703.5,1045.21525035208
2703.75,1041.93218218776
2704,1040.07307831542
2704.25,1040.69325870893
2704.5,1043.43111225329
2704.75,1046.70386708252
2705,1048.88878170142
2705.25,1048.39100277106
2705.5,1044.71957332028
2705.75,1038.8290649037
2706,1031.77182459148
2706.25,1024.59957383972
2706.5,1018.23302885576
2706.75,1013.30140981613
2707,1010.39461833388
