1747,49.892808453736
1747.25,49.7579009164737
1747.5,49.6229933792114
1747.75,49.4880858419491
1748,49.3531783046867
1748.25,49.2182707674245
1748.5,49.0833632301621
1748.75,48.9484556928998
1749,48.8135481556375
1749.25,48.6786406183751
1749.5,48.5437330811128
1749.75,48.4088255438505
1750,48.2739180065882
1750.25,48.1390104693258
1750.5,48.1568278921105
1750.75,48.2367730993771
1751,48.3167183066436
1751.25,48.3966635139102
1751.5,48.4766087211767
1751.75,48.5565539284433
1752,48.6364991357099
1752.25,48.7164443429764
1752.5,48.796389550243
1752.75,48.8763347575095
1753,48.9562799647761
1753.25,49.0362251720427
1753.5,49.1161703793092
1753.75,49.1961155865758
1754,49.2760607938423
1754.25,49.3560060011089
1754.5,49.4359512083755
1754.75,49.515896415642
1755,49.5958416229086
1755.25,49.6757868301751
1755.5,49.797531065523
1755.75,49.9374351782394
1756,50.0773392909559
1756.25,50.2172434036724
1756.5,50.3571475163889
1756.75,50.4970516291054
1757,50.6369557418219
1757.25,50.7768598545383
1757.5,50.9167639672548
1757.75,51.0566680799713
1758,51.1965721926878
1758.25,51.3364763054043
1758.5,51.4763804181207
1758.75,51.6162845308372
1759,51.7561886435537
1759.25,51.8960927562702
1759.5,52.0359968689867
1759.75,52.1759009817031
1760,52.3158050944196
1760.25,52.4557092071361
1760.5,52.6980561625517
1760.75,52.987857538893
1761,53.2776589152344
1761.25,53.5674602915756
1761.5,53.8572616679169
1761.75,54.1470630442582
1762,54.4368644205994
1762.25,54.7266657969407
1762.5,55.0164671732819
1762.75,55.3062685496233
1763,55.5960699259646
1763.25,55.8858713023058
1763.5,56.1756726786471
1763.75,56.4654740549885
1764,56.7552754313297
1764.25,57.045076807671
1764.5,57.3348781840122
1764.75,57.6246795603535
1765,57.9144809366948
1765.25,58.204282313036
1765.5,58.1326864746747
1765.75,57.8828577019666
1766,57.6330289292587
1766.25,57.3832001565507
1766.5,57.1333713838426
1766.75,56.8835426111347
1767,56.6337138384267
1767.25,56.3838850657187
1767.5,56.1340562930107
1767.75,55.8842275203026
1768,55.6343987475947
1768.25,55.3845699748867
1768.5,55.1347412021786
1768.75,54.8849124294707
1769,54.6350836567627
1769.25,54.3852548840547
1769.5,54.1354261113467
1769.75,53.8855973386386
1770,53.6357685659307
1770.25,53.3859397932227
1770.5,53.3622778122044
1770.75,53.4572127458335
1771,53.5521476794625
1771.25,53.6470826130915
1771.5,53.7420175467206
1771.75,53.8369524803496
1772,53.9318874139786
1772.25,54.0268223476077
1772.5,54.1217572812368
1772.75,54.2166922148658
1773,54.3116271484948
1773.25,54.4065620821239
1773.5,54.5014970157529
1773.75,54.596431949382
1774,54.691366883011
1774.25,54.78630181664
1774.5,54.8812367502691
1774.75,54.9761716838981
1775,55.0711066175272
1775.25,55.1660415511562
1775.5,55.029907700336
1775.75,54.7650892012655
1776,54.5002707021951
1776.25,54.2354522031245
1776.5,53.970633704054
1776.75,53.7058152049836
1777,53.4409967059131
1777.25,53.1761782068426
1777.5,52.9113597077721
1777.75,52.6465412087016
1778,52.3817227096311
1778.25,52.1169042105607
1778.5,51.8520857114902
1778.75,51.5872672124198
1779,51.3224487133492
1779.25,51.0576302142787
1779.5,50.7928117152083
1779.75,50.5279932161378
1780,50.2631747170673
1780.25,49.9983562179969
1780.5,49.9628159551221
1780.75,50.0627474642053
1781,50.1626789732885
1781.25,50.2626104823717
1781.5,50.3625419914549
1781.75,50.4624735005381
1782,50.5624050096214
1782.25,50.6623365187045
1782.5,50.7622680277877
1782.75,50.8621995368709
1783,50.9621310459541
1783.25,51.0620625550373
1783.5,51.1619940641205
1783.75,51.2619255732037
1784,51.361857082287
1784.25,51.4617885913701
1784.5,51.5617201004533
1784.75,51.6616516095366
1785,51.7615831186197
1785.25,51.8615146277029
1785.5,51.8446984768925
1785.75,51.7547601187176
1786,51.6648217605427
1786.25,51.5748834023678
1786.5,51.484945044193
1786.75,51.3950066860181
1787,51.3050683278432
1787.25,51.2151299696683
1787.5,51.1251916114935
1787.75,51.0352532533186
1788,50.9453148951437
1788.25,50.8553765369688
1788.5,50.7654381787939
1788.75,50.675499820619
1789,50.5855614624442
1789.25,50.4956231042693
1789.5,50.4056847460944
1789.75,50.3157463879195
1790,50.2258080297446
1790.25,50.1358696715698
1790.5,50.118022895535
1790.75,50.14800234826
1791,50.177981800985
1791.25,50.2079612537099
1791.5,50.2379407064349
1791.75,50.2679201591598
1792,50.2978996118848
1792.25,50.3278790646098
1792.5,50.3578585173347
1792.75,50.3878379700597
1793,50.4178174227846
1793.25,50.4477968755096
1793.5,50.4777763282346
1793.75,50.5077557809595
1794,50.5377352336845
1794.25,50.5677146864095
1794.5,50.5976941391344
1794.75,50.6276735918594
1795,50.6576530445843
1795.25,50.6876324973093
1795.5,50.6911940249829
1795.75,50.6762042986204
1796,50.6612145722579
1796.25,50.6462248458954
1796.5,50.631235119533
1796.75,50.6162453931705
1797,50.601255666808
1797.25,50.5862659404455
1797.5,50.571276214083
1797.75,50.5562864877206
1798,50.5412967613581
1798.25,50.5263070349956
1798.5,50.5113173086331
1798.75,50.4963275822706
1799,50.4813378559082
1799.25,50.4663481295457
1799.5,50.4513584031832
1799.75,50.4363686768207
1800,50.4213789504582
1800.25,50.4063892240958
1800.5,50.3942663318222
1800.75,50.3842731809139
1801,50.3742800300055
1801.25,50.3642868790972
1801.5,50.3542937281889
1801.75,50.3443005772806
1802,50.3343074263723
1802.25,50.3243142754639
1802.5,50.3143211245556
1802.75,50.3043279736473
1803,50.294334822739
1803.25,50.2843416718307
1803.5,50.2743485209223
1803.75,50.264355370014
1804,50.2543622191057
1804.25,50.2443690681974
1804.5,50.2343759172891
1804.75,50.2243827663807
1805,50.2143896154724
1805.25,50.2043964645641
1805.5,50.2531685202701
1805.75,50.3481034538991
1806,50.4430383875281
1806.25,50.5379733211572
1806.5,50.6329082547862
1806.75,50.7278431884152
1807,50.8227781220443
1807.25,50.9177130556733
1807.5,51.0126479893024
1807.75,51.1075829229314
1808,51.2025178565604
1808.25,51.2974527901895
1808.5,51.3923877238185
1808.75,51.4873226574476
1809,51.5822575910766
1809.25,51.6771925247056
1809.5,51.7721274583347
1809.75,51.8670623919637
1810,51.9619973255928
1810.25,52.0569322592218
1810.5,52.2146537947229
1810.75,52.4245099637976
1811,52.6343661328724
1811.25,52.844222301947
1811.5,53.0540784710218
1811.75,53.2639346400966
1812,53.4737908091712
1812.25,53.683646978246
1812.5,53.8935031473207
1812.75,54.1033593163954
1813,54.3132154854701
1813.25,54.5230716545448
1813.5,54.7329278236196
1813.75,54.9427839926943
1814,55.152640161769
1814.25,55.3624963308437
1814.5,55.5723524999185
1814.75,55.7822086689931
1815,55.9920648380679
1815.25,56.2019210071426
1815.5,56.4250839829098
1815.75,56.6599230292554
1816,56.8947620756009
1816.25,57.1296011219464
1816.5,57.364440168292
1816.75,57.5992792146374
1817,57.834118260983
1817.25,58.0689573073286
1817.5,58.303796353674
1817.75,58.5386354000196
1818,58.773474446365
1818.25,59.0083134927106
1818.5,59.2431525390561
1818.75,59.4779915854016
1819,59.7128306317472
1819.25,59.9476696780927
1819.5,60.1825087244382
1819.75,60.4173477707837
1820,60.6521868171292
1820.25,60.8870258634747
1820.5,60.955921202831
1820.75,60.8709794201103
1821,60.7860376373895
1821.25,60.7010958546688
1821.5,60.6161540719481
1821.75,60.5312122892274
1822,60.4462705065066
1822.25,60.3613287237859
1822.5,60.2763869410652
1822.75,60.1914451583445
1823,60.1065033756238
1823.25,60.021561592903
1823.5,59.9366198101823
1823.75,59.8516780274616
1824,59.7667362447409
1824.25,59.6817944620202
1824.5,59.5968526792994
1824.75,59.5119108965787
1825,59.426969113858
1825.25,59.3420273311373
1825.5,59.2419392713871
1825.75,59.1270180359414
1826,59.0120968004957
1826.25,58.8971755650501
1826.5,58.7822543296044
1826.75,58.6673330941587
1827,58.552411858713
1827.25,58.4374906232673
1827.5,58.3225693878217
1827.75,58.207648152376
1828,58.0927269169303
1828.25,57.9778056814846
1828.5,57.8628844460389
1828.75,57.7479632105932
1829,57.6330419751476
1829.25,57.5181207397019
1829.5,57.4031995042563
1829.75,57.2882782688106
1830,57.1733570333649
1830.25,57.0584357979192
1830.5,56.8821173477708
1830.75,56.6422817259711
1831,56.4024461041715
1831.25,56.1626104823717
1831.5,55.9227748605721
1831.75,55.6829392387724
1832,55.4431036169727
1832.25,55.2032679951731
1832.5,54.9634323733734
1832.75,54.7235967515736
1833,54.483761129774
1833.25,54.2439255079743
1833.5,54.0040898861746
1833.75,53.764254264375
1834,53.5244186425753
1834.25,53.2845830207756
1834.5,53.0447473989759
1834.75,52.8049117771762
1835,52.5650761553766
1835.25,52.3252405335769
1835.5,52.137927660546
1835.75,52.0080166987378
1836,51.8781057369297
1836.25,51.7481947751215
1836.5,51.6182838133133
1836.75,51.4883728515052
1837,51.358461889697
1837.25,51.2285509278889
1837.5,51.0986399660807
1837.75,50.9687290042726
1838,50.8388180424644
1838.25,50.7089070806563
1838.5,50.5789961188481
1838.75,50.4490851570399
1839,50.3191741952318
1839.25,50.1892632334236
1839.5,50.0593522716154
1839.75,49.9294413098073
1840,49.7995303479991
1840.25,49.6696193861909
1840.5,49.6115945337725
1840.75,49.6365774110433
1841,49.6615602883141
1841.25,49.6865431655849
1841.5,49.7115260428557
1841.75,49.7365089201265
1842,49.7614917973973
1842.25,49.7864746746681
1842.5,49.8114575519389
1842.75,49.8364404292097
1843,49.8614233064805
1843.25,49.8864061837513
1843.5,49.9113890610221
1843.75,49.9363719382929
1844,49.9613548155637
1844.25,49.9863376928345
1844.5,50.0113205701053
1844.75,50.0363034473761
1845,50.061286324647
1845.25,50.0862692019177
1845.5,50.2192720393986
1845.75,50.484090538469
1846,50.7489090375395
1846.25,51.01372753661
1846.5,51.2785460356804
1846.75,51.543364534751
1847,51.8081830338215
1847.25,52.0730015328919
1847.5,52.3378200319624
1847.75,52.6026385310328
1848,52.8674570301034
1848.25,53.1322755291739
1848.5,53.3970940282443
1848.75,53.6619125273148
1849,53.9267310263853
1849.25,54.1915495254557
1849.5,54.4563680245263
1849.75,54.7211865235968
1850,54.9860050226672
1850.25,55.2508235217377
1850.5,55.541825119859
1850.75,55.8666025243795
1851,56.1913799288999
1851.25,56.5161573334202
1851.5,56.8409347379407
1851.75,57.1657121424611
1852,57.4904895469815
1852.25,57.8152669515019
1852.5,58.1400443560222
1852.75,58.4648217605427
1853,58.7895991650631
1853.25,59.1143765695834
1853.5,59.4391539741039
1853.75,59.7639313786243
1854,60.0887087831446
1854.25,60.4134861876651
1854.5,60.7382635921854
1854.75,61.0630409967059
1855,61.3878184012263
1855.25,61.7125958057466
1855.5,61.9211343400411
1855.75,61.9711000945827
1856,62.0210658491243
1856.25,62.0710316036659
1856.5,62.1209973582075
1856.75,62.1709631127491
1857,62.2209288672907
1857.25,62.2708946218323
1857.5,62.3208603763739
1857.75,62.3708261309155
1858,62.4207918854571
1858.25,62.4707576399987
1858.5,62.5207233945403
1858.75,62.5706891490819
1859,62.6206549036235
1859.25,62.6706206581651
1859.5,62.7205864127067
1859.75,62.7705521672483
1860,62.8205179217899
1860.25,62.8704836763315
1860.5,62.8591011382538
1860.75,62.7591696291706
1861,62.6592381200874
1861.25,62.5593066110042
1861.5,62.459375101921
1861.75,62.3594435928378
1862,62.2595120837546
1862.25,62.1595805746714
1862.5,62.0596490655882
1862.75,61.959717556505
1863,61.8597860474218
1863.25,61.7598545383386
1863.5,61.6599230292554
1863.75,61.5599915201722
1864,61.460060011089
1864.25,61.3601285020058
1864.5,61.2601969929226
1864.75,61.1602654838394
1865,61.0603339747562
1865.25,60.960402465673
1865.5,60.8940706434885
1865.75,60.879080917126
1866,60.8640911907635
1866.25,60.849101464401
1866.5,60.8341117380386
1866.75,60.8191220116761
1867,60.8041322853136
1867.25,60.7891425589511
1867.5,60.7741528325886
1867.75,60.7591631062262
1868,60.7441733798637
1868.25,60.7291836535012
1868.5,60.7141939271387
1868.75,60.6992042007762
1869,60.6842144744138
1869.25,60.6692247480513
1869.5,60.6542350216888
1869.75,60.6392452953263
1870,60.6242555689638
1870.25,60.6092658426014
1870.5,60.5961840774926
1870.75,60.5861909265843
1871,60.5761977756759
1871.25,60.5662046247676
1871.5,60.5562114738593
1871.75,60.546218322951
1872,60.5362251720427
1872.25,60.5262320211343
1872.5,60.516238870226
1872.75,60.5062457193177
1873,60.4962525684094
1873.25,60.4862594175011
1873.5,60.4762662665927
1873.75,60.4662731156844
1874,60.4562799647761
1874.25,60.4462868138678
1874.5,60.4362936629595
1874.75,60.4263005120511
1875,60.4163073611428
1875.25,60.4063142102345
1875.5,60.2693976060795
1875.75,59.9146407488341
1876,59.5598838915886
1876.25,59.2051270343434
1876.5,58.850370177098
1876.75,58.4956133198526
1877,58.1408564626073
1877.25,57.7860996053619
1877.5,57.4313427481166
1877.75,57.0765858908712
1878,56.7218290336258
1878.25,56.3670721763805
1878.5,56.0123153191351
1878.75,55.6575584618897
1879,55.3028016046444
1879.25,54.948044747399
1879.5,54.5932878901536
1879.75,54.2385310329083
1880,53.8837741756629
1880.25,53.5290173184176
1880.5,53.3371905678223
1880.75,53.4421186523597
1881,53.547046736897
1881.25,53.6519748214344
1881.5,53.7569029059718
1881.75,53.8618309905091
1882,53.9667590750465
1882.25,54.0716871595838
1882.5,54.1766152441212
1882.75,54.2815433286586
1883,54.3864714131959
1883.25,54.4913994977333
1883.5,54.5963275822706
1883.75,54.701255666808
1884,54.8061837513454
1884.25,54.9111118358827
1884.5,55.0160399204201
1884.75,55.1209680049574
1885,55.2258960894948
1885.25,55.3308241740321
1885.5,55.4
1885.75,55.4
1886,55.4
1886.25,55.4
1886.5,55.4
1886.75,55.4
1887,55.4
1887.25,55.4
1887.5,55.4
1887.75,55.4
1888,55.4
1888.25,55.4
1888.5,55.4
1888.75,55.4
1889,55.4
1889.25,55.4
1889.5,55.4
1889.75,55.4
1890,55.4
1890.25,55.4
1890.5,55.3771240337889
1890.75,55.3071719774306
1891,55.2372199210724
1891.25,55.1672678647141
1891.5,55.0973158083559
1891.75,55.0273637519977
1892,54.9574116956394
1892.25,54.8874596392812
1892.5,54.817507582923
1892.75,54.7475555265647
1893,54.6776034702064
1893.25,54.6076514138482
1893.5,54.53769935749
1893.75,54.4677473011318
1894,54.3977952447735
1894.25,54.3278431884153
1894.5,54.257891132057
1894.75,54.1879390756988
1895,54.1179870193405
1895.25,54.0480349629823
1895.5,53.9796484132938
1895.75,53.9146929323897
1896,53.8497374514856
1896.25,53.7847819705815
1896.5,53.7198264896775
1896.75,53.6548710087734
1897,53.5899155278693
1897.25,53.5249600469652
1897.5,53.4600045660611
1897.75,53.395049085157
1898,53.330093604253
1898.25,53.2651381233489
1898.5,53.2001826424448
1898.75,53.1352271615407
1899,53.0702716806366
1899.25,53.0053161997326
1899.5,52.9403607188285
1899.75,52.8754052379244
1900,52.8104497570203
1900.25,52.7454942761162
1900.5,52.6416163856365
1900.75,52.4467499429243
1901,52.251883500212
1901.25,52.0570170574998
1901.5,51.8621506147875
1901.75,51.6672841720753
1902,51.4724177293631
1902.25,51.2775512866508
1902.5,51.0826848439385
1902.75,50.8878184012263
1903,50.6929519585141
1903.25,50.4980855158019
1903.5,50.3032190730896
1903.75,50.1083526303773
1904,49.9134861876652
1904.25,49.7186197449529
1904.5,49.5237533022406
1904.75,49.3288868595284
1905,49.1340204168162
1905.25,48.939153974104
1905.5,48.9128534620527
1905.75,49.3075829229314
1906,49.7023123838099
1906.25,50.0970418446886
1906.5,50.4917713055674
1906.75,50.8865007664459
1907,51.2812302273246
1907.25,51.6759596882033
1907.5,52.0706891490818
1907.75,52.4654186099605
1908,52.8601480708391
1908.25,53.2548775317178
1908.5,53.6496069925965
1908.75,54.044336453475
1909,54.4390659143537
1909.25,54.8337953752324
1909.5,55.2285248361109
1909.75,55.6232542969897
1910,56.0179837578682
1910.25,56.4127132187469
1910.5,56.7285607123055
1910.75,56.8334887968429
1911,56.9384168813802
1911.25,57.0433449659176
1911.5,57.148273050455
1911.75,57.2532011349923
1912,57.3581292195297
1912.25,57.463057304067
1912.5,57.5679853886044
1912.75,57.6729134731417
1913,57.7778415576791
1913.25,57.8827696422165
1913.5,57.9876977267538
1913.75,58.0926258112912
1914,58.1975538958286
1914.25,58.3024819803659
1914.5,58.4074100649033
1914.75,58.5123381494406
1915,58.617266233978
1915.25,58.7221943185154
1915.5,58.8258308600502
1915.75,58.9257623691334
1916,59.0256938782166
1916.25,59.1256253872998
1916.5,59.225556896383
1916.75,59.3254884054662
1917,59.4254199145494
1917.25,59.5253514236326
1917.5,59.6252829327158
1917.75,59.725214441799
1918,59.8251459508822
1918.25,59.9250774599654
1918.5,60.0250089690486
1918.75,60.1249404781318
1919,60.224871987215
1919.25,60.3248034962982
1919.5,60.4247350053814
1919.75,60.5246665144646
1920,60.6245980235478
1920.25,60.724529532631
1920.5,60.7486318124001
1920.75,60.5387756433254
1921,60.3289194742507
1921.25,60.119063305176
1921.5,59.9092071361013
1921.75,59.6993509670265
1922,59.4894947979518
1922.25,59.2796386288771
1922.5,59.0697824598024
1922.75,58.8599262907276
1923,58.650070121653
1923.25,58.4402139525782
1923.5,58.2303577835035
1923.75,58.0205016144288
1924,57.810645445354
1924.25,57.6007892762794
1924.5,57.3909331072046
1924.75,57.1810769381299
1925,56.9712207690552
1925.25,56.7613645999804
1925.5,56.5896089494798
1925.75,56.5446397703924
1926,56.4996705913049
1926.25,56.4547014122175
1926.5,56.40973223313
1926.75,56.3647630540426
1927,56.3197938749552
1927.25,56.2748246958677
1927.5,56.2298555167803
1927.75,56.1848863376928
1928,56.1399171586054
1928.25,56.094947979518
1928.5,56.0499788004305
1928.75,56.0050096213431
1929,55.9600404422556
1929.25,55.9150712631682
1929.5,55.8701020840808
1929.75,55.8251329049933
1930,55.7801637259059
1930.25,55.7351945468184
1930.5,55.6739343139493
1930.75,55.5540165030495
1931,55.4340986921497
1931.25,55.3141808812498
1931.5,55.19426307035
1931.75,55.0743452594501
1932,54.9544274485503
1932.25,54.8345096376504
1932.5,54.7145918267506
1932.75,54.5946740158508
1933,54.474756204951
1933.25,54.3548383940511
1933.5,54.2349205831512
1933.75,54.1150027722514
1934,53.9950849613516
1934.25,53.8751671504517
1934.5,53.7552493395519
1934.75,53.635331528652
1935,53.5154137177522
1935.25,53.3954959068524
1935.5,53.2755780959525
1935.75,53.1556602850527
1936,53.0357424741528
1936.25,52.915824663253
1936.5,52.7959068523532
1936.75,52.6759890414533
1937,52.5560712305535
1937.25,52.4361534196537
1937.5,52.3162356087538
1937.75,52.196317797854
1938,52.0763999869541
1938.25,51.9564821760543
1938.5,51.8365643651545
1938.75,51.7166465542546
1939,51.5967287433547
1939.25,51.4768109324549
1939.5,51.3568931215551
1939.75,51.2369753106552
1940,51.1170574997554
1940.25,50.9971396888556
1940.5,50.9398617135774
1940.75,51.1497178826522
1941,51.359574051727
1941.25,51.5694302208017
1941.5,51.7792863898763
1941.75,51.989142558951
1942,52.1989987280258
1942.25,52.4088548971005
1942.5,52.6187110661753
1942.75,52.8285672352501
1943,53.0384234043246
1943.25,53.2482795733994
1943.5,53.4581357424741
1943.75,53.6679919115489
1944,53.8778480806236
1944.25,54.0877042496982
1944.5,54.297560418773
1944.75,54.5074165878477
1945,54.7172727569225
1945.25,54.9271289259972
1945.5,55.1008805975017
1945.75,55.1058771729559
1946,55.11087374841
1946.25,55.1158703238642
1946.5,55.1208668993184
1946.75,55.1258634747725
1947,55.1308600502267
1947.25,55.1358566256808
1947.5,55.140853201135
1947.75,55.1458497765892
1948,55.1508463520433
1948.25,55.1558429274975
1948.5,55.1608395029516
1948.75,55.1658360784058
1949,55.17083265386
1949.25,55.1758292293141
1949.5,55.1808258047683
1949.75,55.1858223802224
1950,55.1908189556766
1950.25,55.1958155311308
1950.5,55.2446658621702
1950.75,55.5194775121491
1951,55.7942891621276
1951.25,56.0691008121065
1951.5,56.3439124620853
1951.75,56.6187241120642
1952,56.893535762043
1952.25,57.1683474120219
1952.5,57.4431590620005
1952.75,57.7179707119793
1953,57.9927823619582
1953.25,58.267594011937
1953.5,58.5424056619159
1953.75,58.8172173118945
1954,59.0920289618733
1954.25,59.3668406118522
1954.5,59.641652261831
1954.75,59.9164639118098
1955,60.1912755617884
1955.25,60.4660872117673
1955.5,60.6323309742019
1955.75,60.1776426078732
1956,59.7229542415446
1956.25,59.2682658752159
1956.5,58.8135775088877
1956.75,58.3588891425591
1957,57.9042007762304
1957.25,57.4495124099018
1957.5,56.9948240435732
1957.75,56.5401356772449
1958,56.0854473109163
1958.25,55.6307589445877
1958.5,55.176070578259
1958.75,54.7213822119304
1959,54.2666938456018
1959.25,53.8120054792735
1959.5,53.3573171129449
1959.75,52.9026287466163
1960,52.4479403802876
1960.25,51.993252013959
1960.5,51.6074263722644
1960.75,51.6623887022602
1961,51.717351032256
1961.25,51.7723133622517
1961.5,51.8272756922475
1961.75,51.8822380222433
1962,51.937200352239
1962.25,51.9921626822347
1962.5,52.0471250122305
1962.75,52.1020873422263
1963,52.1570496722221
1963.25,52.2120120022178
1963.5,52.2669743322136
1963.75,52.3219366622093
1964,52.3768989922051
1964.25,52.4318613222009
1964.5,52.4868236521966
1964.75,52.5417859821923
1965,52.5967483121881
1965.25,52.6517106421839
1965.5,52.6799810834611
1965.75,52.5150940934737
1966,52.3502071034866
1966.25,52.1853201134993
1966.5,52.020433123512
1966.75,51.8555461335247
1967,51.6906591435374
1967.25,51.5257721535502
1967.5,51.3608851635629
1967.75,51.1959981735756
1968,51.0311111835883
1968.25,50.866224193601
1968.5,50.7013372036137
1968.75,50.5364502136265
1969,50.3715632236392
1969.25,50.2066762336519
1969.5,50.0417892436646
1969.75,49.8769022536773
1970,49.7120152636901
1970.25,49.5471282737028
1970.5,49.4129154300251
1970.75,49.532833240925
1971,49.6527510518248
1971.25,49.7726688627246
1971.5,49.8925866736244
1971.75,50.0125044845243
1972,50.1324222954241
1972.25,50.252340106324
1972.5,50.3722579172239
1972.75,50.4921757281236
1973,50.6120935390235
1973.25,50.7320113499233
1973.5,50.8519291608232
1973.75,50.9718469717231
1974,51.0917647826228
1974.25,51.2116825935227
1974.5,51.3316004044225
1974.75,51.4515182153224
1975,51.5714360262223
1975.25,51.6913538371221
1975.5,51.8028179120055
1975.75,51.8327973647304
1976,51.8627768174554
1976.25,51.8927562701804
1976.5,51.9227357229053
1976.75,51.9527151756303
1977,51.9826946283552
1977.25,52.0126740810802
1977.5,52.0426535338052
1977.75,52.0726329865301
1978,52.1026124392551
1978.25,52.13259189198
1978.5,52.162571344705
1978.75,52.19255079743
1979,52.2225302501549
1979.25,52.2525097028799
1979.5,52.2824891556048
1979.75,52.3124686083298
1980,52.3424480610548
1980.25,52.3724275137797
1980.5,52.3971918724112
1980.75,52.3622158442321
1981,52.327239816053
1981.25,52.2922637878739
1981.5,52.2572877596947
1981.75,52.2223117315156
1982,52.1873357033365
1982.25,52.1523596751574
1982.5,52.1173836469783
1982.75,52.0824076187991
1983,52.04743159062
1983.25,52.0124555624409
1983.5,51.9774795342618
1983.75,51.9425035060827
1984,51.9075274779035
1984.25,51.8725514497244
1984.5,51.8375754215453
1984.75,51.8025993933662
1985,51.7676233651871
1985.25,51.7326473370079
1985.5,51.688356544144
1985.75,51.5134764032484
1986,51.3385962623528
1986.25,51.1637161214573
1986.5,50.9888359805617
1986.75,50.8139558396661
1987,50.6390756987704
1987.25,50.4641955578748
1987.5,50.2893154169793
1987.75,50.1144352760837
1988,49.9395551351881
1988.25,49.7646749942924
1988.5,49.5897948533968
1988.75,49.4149147125012
1989,49.2400345716057
1989.25,49.0651544307101
1989.5,48.8902742898144
1989.75,48.7153941489188
1990,48.5405140080232
1990.25,48.3656338671277
1990.5,48.1944522357393
1990.75,48.0895241512019
1991,47.9845960666645
1991.25,47.8796679821271
1991.5,47.7747398975897
1991.75,47.6698118130525
1992,47.5648837285151
1992.25,47.4599556439777
1992.5,47.3550275594403
1992.75,47.2500994749029
1993,47.1451713903657
1993.25,47.0402433058283
1993.5,46.9353152212909
1993.75,46.8303871367535
1994,46.7254590522162
1994.25,46.6205309676789
1994.5,46.5156028831415
1994.75,46.4106747986041
1995,46.3057467140667
1995.25,46.2008186295294
1995.5,46.1095887283521
1995.75,46.3544209256057
1996,46.5992531228596
1996.25,46.8440853201135
1996.5,47.0889175173673
1996.75,47.3337497146212
1997,47.5785819118749
1997.25,47.8234141091288
1997.5,48.0682463063827
1997.75,48.3130785036365
1998,48.5579107008904
1998.25,48.8027428981443
1998.5,49.047575095398
1998.75,49.2924072926518
1999,49.5372394899057
1999.25,49.7820716871596
1999.5,50.0269038844135
1999.75,50.2717360816671
2000,50.516568278921
2000.25,50.7614004761749
2000.5,51.0123381494407
2000.75,51.4970059684943
2001,51.9816737875479
2001.25,52.466341606601
2001.5,52.9510094256546
2001.75,53.4356772447082
2002,53.9203450637618
2002.25,54.4050128828154
2002.5,54.8896807018686
2002.75,55.3743485209222
2003,55.8590163399758
2003.25,56.3436841590294
2003.5,56.828351978083
2003.75,57.3130197971362
2004,57.7976876161898
2004.25,58.2823554352434
2004.5,58.767023254297
2004.75,59.2516910733506
2005,59.7363588924042
2005.25,60.2210267114573
2005.5,60.7013502495026
2005.75,60.8162714849483
2006,60.931192720394
2006.25,61.0461139558397
2006.5,61.1610351912853
2006.75,61.275956426731
2007,61.3908776621767
2007.25,61.5057988976224
2007.5,61.6207201330681
2007.75,61.7356413685138
2008,61.8505626039594
2008.25,61.9654838394051
2008.5,62.0804050748508
2008.75,62.1953263102965
2009,62.3102475457422
2009.25,62.4251687811878
2009.5,62.5400900166335
2009.75,62.6550112520792
2010,62.7699324875249
2010.25,62.8848537229706
2010.5,62.9997749584162
2010.75,62.6010567170022
2011,62.2013306806693
2011.25,61.8016046443365
2011.5,61.4018786080036
2011.75,61.0021525716707
2012,60.6024265353382
2012.25,60.2027004990054
2012.5,59.8029744626725
2012.75,59.4032484263396
2013,59.0035223900068
2013.25,58.6037963536743
2013.5,58.2040703173414
2013.75,57.8043442810085
2014,57.4046182446757
2014.25,57.0048922083428
2014.5,56.6051661720099
2014.75,56.2054401356774
2015,55.8057140993445
2015.25,55.4059880630117
2015.5,55.0062620266788
2015.75,54.5278431884151
2016,54.0481719448161
2016.25,53.5685007012167
2016.5,53.0888294576173
2016.75,52.6091582140178
2017,52.1294869704184
2017.25,51.6498157268189
2017.5,51.1701444832199
2017.75,50.6904732396205
2018,50.210801996021
2018.25,49.7311307524216
2018.5,49.2514595088222
2018.75,48.7717882652232
2019,48.2921170216237
2019.25,47.8124457780243
2019.5,47.3327745344248
2019.75,46.8531032908254
2020,46.3734320472264
2020.25,45.8937608036269
2020.5,45.4140895600275
2020.75,45.2933041975148
2021,45.1833795375232
2021.25,45.0734548775317
2021.5,44.9635302175402
2021.75,44.8536055575487
2022,44.7436808975572
2022.25,44.6337562375656
2022.5,44.5238315775741
2022.75,44.4139069175827
2023,44.3039822575911
2023.25,44.1940575975996
2023.5,44.084132937608
2023.75,43.9742082776165
2024,43.864283617625
2024.25,43.7543589576335
2024.5,43.644434297642
2024.75,43.5345096376504
2025,43.4245849776589
2025.25,43.3146603176674
2025.5,43.2047356576759
2025.75,43.3338769120381
2026,43.4737810247546
2026.25,43.6136851374711
2026.5,43.7535892501876
2026.75,43.8934933629039
2027,44.0333974756204
2027.25,44.1733015883369
2027.5,44.3132057010534
2027.75,44.45310981377
2028,44.5930139264865
2028.25,44.7329180392028
2028.5,44.8728221519193
2028.75,45.0127262646358
2029,45.1526303773523
2029.25,45.2925344900688
2029.5,45.4324386027852
2029.75,45.5723427155017
2030,45.7122468282182
2030.25,45.8521509409347
2030.5,45.9920550536512
2030.75,46.0377026189622
2031,46.0776752225955
2031.25,46.1176478262287
2031.5,46.157620429862
2031.75,46.1975930334953
2032,46.2375656371286
2032.25,46.2775382407619
2032.5,46.3175108443951
2032.75,46.3574834480284
2033,46.3974560516617
2033.25,46.437428655295
2033.5,46.4774012589283
2033.75,46.5173738625615
2034,46.5573464661948
2034.25,46.5973190698281
2034.5,46.6372916734614
2034.75,46.6772642770947
2035,46.7172368807279
2035.25,46.7572094843612
2035.5,46.7971820879945
2035.75,46.7721339812791
2036,46.7421545285542
2036.25,46.7121750758292
2036.5,46.6821956231043
2036.75,46.6522161703793
2037,46.6222367176543
2037.25,46.5922572649294
2037.5,46.5622778122044
2037.75,46.5322983594795
2038,46.5023189067545
2038.25,46.4723394540296
2038.5,46.4423600013046
2038.75,46.4123805485796
2039,46.3824010958547
2039.25,46.3524216431297
2039.5,46.3224421904048
2039.75,46.2924627376798
2040,46.2624832849548
2040.25,46.2325038322299
2040.5,46.2025243795049
2040.75,46.1450898535599
2041,46.08513094811
2041.25,46.0251720426601
2041.5,45.9652131372101
2041.75,45.9052542317602
2042,45.8452953263103
2042.25,45.7853364208604
2042.5,45.7253775154105
2042.75,45.6654186099605
2043,45.6054597045107
2043.25,45.5455007990607
2043.5,45.4855418936108
2043.75,45.4255829881609
2044,45.3656240827109
2044.25,45.305665177261
2044.5,45.2457062718111
2044.75,45.1857473663612
2045,45.1257884609113
2045.25,45.0658295554613
2045.5,45.0058706500114
2045.75,45.1126838654968
2046,45.2375982518508
2046.25,45.3625126382049
2046.5,45.4874270245589
2046.75,45.6123414109129
2047,45.7372557972669
2047.25,45.8621701836208
2047.5,45.9870845699749
2047.75,46.1119989563289
2048,46.2369133426829
2048.25,46.3618277290369
2048.5,46.4867421153908
2048.75,46.6116565017448
2049,46.7365708880989
2049.25,46.8614852744529
2049.5,46.9863996608069
2049.75,47.1113140471608
2050,47.2362284335148
2050.25,47.3611428198689
2050.5,47.4860572062229
2050.75,47.32688431558
2051,47.1320178728678
2051.25,46.9371514301557
2051.5,46.7422849874434
2051.75,46.5474185447311
2052,46.3525521020188
2052.25,46.1576856593066
2052.5,45.9628192165945
2052.75,45.7679527738822
2053,45.5730863311699
2053.25,45.3782198884577
2053.5,45.1833534457454
2053.75,44.9884870030331
2054,44.793620560321
2054.25,44.5987541176087
2054.5,44.4038876748965
2054.75,44.2090212321842
2055,44.0141547894719
2055.25,43.8192883467598
2055.5,43.6244219040476
2055.75,43.5781481360686
2056,43.5531652587978
2056.25,43.528182381527
2056.5,43.5031995042562
2056.75,43.4782166269854
2057,43.4532337497146
2057.25,43.4282508724438
2057.5,43.403267995173
2057.75,43.3782851179022
2058,43.3533022406314
2058.25,43.3283193633606
2058.5,43.3033364860898
2058.75,43.278353608819
2059,43.2533707315482
2059.25,43.2283878542774
2059.5,43.2034049770066
2059.75,43.1784220997358
2060,43.153439222465
2060.25,43.1284563451942
2060.5,43.1034734679234
2060.75,43.0698868269137
2061,43.0349107987346
2061.25,42.9999347705554
2061.5,42.9649587423763
2061.75,42.9299827141972
2062,42.8950066860181
2062.25,42.860030657839
2062.5,42.8250546296598
2062.75,42.7900786014807
2063,42.7551025733016
2063.25,42.7201265451225
2063.5,42.6851505169434
2063.75,42.6501744887642
2064,42.6151984605851
2064.25,42.580222432406
2064.5,42.5452464042269
2064.75,42.5102703760478
2065,42.4752943478686
2065.25,42.4403183196895
2065.5,42.4053422915104
2065.75,42.3364991357098
2066,42.2615505038975
2066.25,42.1866018720851
2066.5,42.1116532402727
2066.75,42.0367046084603
2067,41.9617559766479
2067.25,41.8868073448354
2067.5,41.8118587130231
2067.75,41.7369100812107
2068,41.6619614493983
2068.25,41.5870128175859
2068.5,41.5120641857734
2068.75,41.4371155539611
2069,41.3621669221487
2069.25,41.2872182903363
2069.5,41.2122696585239
2069.75,41.1373210267114
2070,41.062372394899
2070.25,40.9874237630867
2070.5,40.9124751312743
2070.75,40.8375264994619
2071,40.7625778676494
2071.25,40.687629235837
2071.5,40.6126806040247
2071.75,40.5377319722123
2072,40.4627833403999
2072.25,40.3878347085875
2072.5,40.312886076775
2072.75,40.2379374449626
2073,40.1629888131503
2073.25,40.0880401813379
2073.5,40.0130915495255
2073.75,39.938142917713
2074,39.8631942859006
2074.25,39.7882456540883
2074.5,39.7132970222759
2074.75,39.6383483904635
2075,39.5633997586511
2075.25,39.4884511268386
2075.5,39.4135024950263
2075.75,39.3221682267376
2076,39.2272332931085
2076.25,39.1322983594795
2076.5,39.0373634258504
2076.75,38.9424284922214
2077,38.8474935585924
2077.25,38.7525586249633
2077.5,38.6576236913343
2077.75,38.5626887577052
2078,38.4677538240762
2078.25,38.3728188904472
2078.5,38.2778839568181
2078.75,38.1829490231891
2079,38.08801408956
2079.25,37.993079155931
2079.5,37.8981442223019
2079.75,37.8032092886729
2080,37.7082743550439
2080.25,37.6133394214148
2080.5,37.5184044877858
2080.75,37.5765304458433
2081,37.6714653794722
2081.25,37.7664003131013
2081.5,37.8613352467304
2081.75,37.9562701803594
2082,38.0512051139885
2082.25,38.1461400476174
2082.5,38.2410749812465
2082.75,38.3360099148756
2083,38.4309448485046
2083.25,38.5258797821337
2083.5,38.6208147157627
2083.75,38.7157496493917
2084,38.8106845830207
2084.25,38.9056195166498
2084.5,39.0005544502789
2084.75,39.0954893839079
2085,39.1904243175369
2085.25,39.2853592511659
2085.5,39.380294184795
2085.75,39.4475131274257
2086,39.5074720328756
2086.25,39.5674309383256
2086.5,39.6273898437755
2086.75,39.6873487492254
2087,39.7473076546753
2087.25,39.8072665601252
2087.5,39.8672254655752
2087.75,39.927184371025
2088,39.987143276475
2088.25,40.0471021819249
2088.5,40.1070610873748
2088.75,40.1670199928248
2089,40.2269788982746
2089.25,40.2869378037246
2089.5,40.3468967091745
2089.75,40.4068556146244
2090,40.4668145200744
2090.25,40.5267734255243
2090.5,40.5867323309742
2090.75,40.6155637454747
2091,40.6355500472913
2091.25,40.655536349108
2091.5,40.6755226509246
2091.75,40.6955089527413
2092,40.7154952545579
2092.25,40.7354815563745
2092.5,40.7554678581912
2092.75,40.7754541600078
2093,40.7954404618245
2093.25,40.8154267636411
2093.5,40.8354130654577
2093.75,40.8553993672744
2094,40.875385669091
2094.25,40.8953719709077
2094.5,40.9153582727243
2094.75,40.9353445745409
2095,40.9553308763576
2095.25,40.9753171781742
2095.5,40.9953034799909
2095.75,40.9426633182218
2096,40.8677146864095
2096.25,40.7927660545971
2096.5,40.7178174227846
2096.75,40.6428687909722
2097,40.5679201591598
2097.25,40.4929715273475
2097.5,40.4180228955351
2097.75,40.3430742637227
2098,40.2681256319102
2098.25,40.1931770000978
2098.5,40.1182283682855
2098.75,40.0432797364731
2099,39.9683311046607
2099.25,39.8933824728482
2099.5,39.8184338410358
2099.75,39.7434852092234
2100,39.6685365774111
2100.25,39.5935879455987
2100.5,39.5186393137863
2100.75,39.4099050911581
2101,39.2899872802583
2101.25,39.1700694693585
2101.5,39.0501516584587
2101.75,38.9302338475588
2102,38.810316036659
2102.25,38.6903982257591
2102.5,38.5704804148592
2102.75,38.4505626039595
2103,38.3306447930596
2103.25,38.2107269821598
2103.5,38.0908091712599
2103.75,37.97089136036
2104,37.8509735494603
2104.25,37.7310557385604
2104.5,37.6111379276606
2104.75,37.4912201167607
2105,37.3713023058608
2105.25,37.2513844949611
2105.5,37.1314666840612
2105.75,37.0963145363817
2106,37.0913179609276
2106.25,37.0863213854734
2106.5,37.0813248100192
2106.75,37.0763282345651
2107,37.0713316591109
2107.25,37.0663350836568
2107.5,37.0613385082026
2107.75,37.0563419327484
2108,37.0513453572943
2108.25,37.0463487818401
2108.5,37.041352206386
2108.75,37.0363556309318
2109,37.0313590554776
2109.25,37.0263624800235
2109.5,37.0213659045693
2109.75,37.0163693291152
2110,37.011372753661
2110.25,37.0063761782068
2110.5,37.0013796027527
2110.75,36.9746811910897
2111,36.9397051629105
2111.25,36.9047291347314
2111.5,36.8697531065523
2111.75,36.8347770783732
2112,36.799801050194
2112.25,36.764825022015
2112.5,36.7298489938358
2112.75,36.6948729656567
2113,36.6598969374776
2113.25,36.6249209092984
2113.5,36.5899448811194
2113.75,36.5549688529402
2114,36.5199928247611
2114.25,36.485016796582
2114.5,36.4500407684029
2114.75,36.4150647402238
2115,36.3800887120446
2115.25,36.3451126838655
2115.5,36.3101366556864
2115.75,36.3283878542774
2116,36.3683604579107
2116.25,36.408333061544
2116.5,36.4483056651772
2116.75,36.4882782688105
2117,36.5282508724438
2117.25,36.5682234760771
2117.5,36.6081960797104
2117.75,36.6481686833436
2118,36.6881412869769
2118.25,36.7281138906102
2118.5,36.7680864942435
2118.75,36.8080590978768
2119,36.84803170151
2119.25,36.8880043051433
2119.5,36.9279769087766
2119.75,36.9679495124099
2120,37.0079221160432
2120.25,37.0478947196764
2120.5,37.0878673233097
2120.75,37.1069599817358
2121,37.1169531326441
2121.25,37.1269462835524
2121.5,37.1369394344607
2121.75,37.146932585369
2122,37.1569257362774
2122.25,37.1669188871857
2122.5,37.176912038094
2122.75,37.1869051890023
2123,37.1968983399106
2123.25,37.206891490819
2123.5,37.2168846417273
2123.75,37.2268777926356
2124,37.2368709435439
2124.25,37.2468640944522
2124.5,37.2568572453606
2124.75,37.2668503962689
2125,37.2768435471772
2125.25,37.2868366980855
2125.5,37.2968298489938
2125.75,37.5012784971135
2126,37.796076448909
2126.25,38.0908744007044
2126.5,38.3856723524999
2126.75,38.6804703042954
2127,38.9752682560907
2127.25,39.2700662078861
2127.5,39.5648641596816
2127.75,39.8596621114771
2128,40.1544600632726
2128.25,40.4492580150681
2128.5,40.7440559668633
2128.75,41.0388539186588
2129,41.3336518704543
2129.25,41.6284498222498
2129.5,41.9232477740453
2129.75,42.2180457258405
2130,42.512843677636
2130.25,42.8076416294315
2130.5,43.102439581227
2130.75,43.2334300903428
2131,43.2833958448844
2131.25,43.333361599426
2131.5,43.3833273539676
2131.75,43.4332931085092
2132,43.4832588630508
2132.25,43.5332246175924
2132.5,43.583190372134
2132.75,43.6331561266756
2133,43.6831218812172
2133.25,43.7330876357588
2133.5,43.7830533903004
2133.75,43.833019144842
2134,43.8829848993836
2134.25,43.9329506539252
2134.5,43.9829164084668
2134.75,44.0328821630084
2135,44.08284791755
2135.25,44.1328136720916
2135.5,44.1827794266332
2135.75,44.1443331920029
2136,44.0593914092821
2136.25,43.9744496265614
2136.5,43.8895078438408
2136.75,43.80456606112
2137,43.7196242783993
2137.25,43.6346824956785
2137.5,43.5497407129578
2137.75,43.4647989302372
2138,43.3798571475164
2138.25,43.2949153647957
2138.5,43.209973582075
2138.75,43.1250317993542
2139,43.0400900166335
2139.25,42.9551482339128
2139.5,42.8702064511921
2139.75,42.7852646684714
2140,42.7003228857506
2140.25,42.6153811030299
2140.5,42.5304393203092
2140.75,42.4294674015851
2141,42.3195427415936
2141.25,42.209618081602
2141.5,42.0996934216105
2141.75,41.989768761619
2142,41.8798441016275
2142.25,41.769919441636
2142.5,41.6599947816444
2142.75,41.5500701216529
2143,41.4401454616614
2143.25,41.3302208016699
2143.5,41.2202961416784
2143.75,41.1103714816868
2144,41.0004468216953
2144.25,40.8905221617038
2144.5,40.7805975017123
2144.75,40.6706728417208
2145,40.5607481817293
2145.25,40.4508235217377
2145.5,40.3408988617462
2145.75,40.246661883174
2146,40.1617201004534
2146.25,40.0767783177326
2146.5,39.9918365350119
2146.75,39.9068947522912
2147,39.8219529695704
2147.25,39.7370111868498
2147.5,39.6520694041291
2147.75,39.5671276214083
2148,39.4821858386876
2148.25,39.3972440559669
2148.5,39.3123022732461
2148.75,39.2273604905255
2149,39.1424187078047
2149.25,39.057476925084
2149.5,38.9725351423633
2149.75,38.8875933596425
2150,38.8026515769219
2150.25,38.7177097942011
2150.5,38.6327680114804
2150.75,38.6736570888099
2151,38.7935748997097
2151.25,38.9134927106096
2151.5,39.0334105215094
2151.75,39.1533283324092
2152,39.2732461433091
2152.25,39.3931639542089
2152.5,39.5130817651088
2152.75,39.6329995760086
2153,39.7529173869084
2153.25,39.8728351978083
2153.5,39.9927530087081
2153.75,40.112670819608
2154,40.2325886305077
2154.25,40.3525064414076
2154.5,40.4724242523075
2154.75,40.5923420632073
2155,40.7122598741072
2155.25,40.832177685007
2155.5,40.9520954959068
2155.75,41.1170216235608
2156,41.3118880662731
2156.25,41.5067545089854
2156.5,41.7016209516976
2156.75,41.8964873944097
2157,42.091353837122
2157.25,42.2862202798343
2157.5,42.4810867225466
2157.75,42.6759531652588
2158,42.8708196079711
2158.25,43.0656860506832
2158.5,43.2605524933955
2158.75,43.4554189361077
2159,43.65028537882
2159.25,43.8451518215323
2159.5,44.0400182642444
2159.75,44.2348847069567
2160,44.4297511496689
2160.25,44.6246175923812
2160.5,44.8194840350935
2160.75,44.8736114281987
2161,44.8286422491113
2161.25,44.7836730700238
2161.5,44.7387038909364
2161.75,44.6937347118489
2162,44.6487655327615
2162.25,44.6037963536741
2162.5,44.5588271745866
2162.75,44.5138579954992
2163,44.4688888164117
2163.25,44.4239196373243
2163.5,44.3789504582369
2163.75,44.3339812791494
2164,44.289012100062
2164.25,44.2440429209745
2164.5,44.1990737418871
2164.75,44.1541045627996
2165,44.1091353837122
2165.25,44.0641662046248
2165.5,44.0191970255373
2165.75,43.8911842405662
2166,43.7013143733081
2166.25,43.5114445060501
2166.5,43.321574638792
2166.75,43.1317047715339
2167,42.9418349042758
2167.25,42.7519650370177
2167.5,42.5620951697596
2167.75,42.3722253025016
2168,42.1823554352435
2168.25,41.9924855679854
2168.5,41.8026157007273
2168.75,41.6127458334692
2169,41.4228759662112
2169.25,41.2330060989531
2169.5,41.043136231695
2169.75,40.8532663644369
2170,40.6633964971788
2170.25,40.4735266299209
2170.5,40.2836567626627
2170.75,40.1021721405043
2171,39.9272919996086
2171.25,39.752411858713
2171.5,39.5775317178174
2171.75,39.4026515769219
2172,39.2277714360263
2172.25,39.0528912951306
2172.5,38.878011154235
2172.75,38.7031310133394
2173,38.5282508724439
2173.25,38.3533707315483
2173.5,38.1784905906527
2173.75,38.003610449757
2174,37.8287303088614
2174.25,37.6538501679658
2174.5,37.4789700270703
2174.75,37.3040898861747
2175,37.129209745279
2175.25,36.9543296043834
2175.5,36.7794494634878
2175.75,36.7327190893969
2176,36.7926779948469
2176.25,36.8526369002968
2176.5,36.9125958057467
2176.75,36.9725547111966
2177,37.0325136166465
2177.25,37.0924725220965
2177.5,37.1524314275464
2177.75,37.2123903329963
2178,37.2723492384462
2178.25,37.3323081438962
2178.5,37.392267049346
2178.75,37.452225954796
2179,37.5121848602459
2179.25,37.5721437656958
2179.5,37.6321026711458
2179.75,37.6920615765956
2180,37.7520204820456
2180.25,37.8119793874955
2180.5,37.8719382929454
2180.75,37.881393300936
2181,37.8464172727569
2181.25,37.8114412445778
2181.5,37.7764652163987
2181.75,37.7414891882196
2182,37.7065131600404
2182.25,37.6715371318613
2182.5,37.6365611036822
2182.75,37.6015850755031
2183,37.566609047324
2183.25,37.5316330191448
2183.5,37.4966569909657
2183.75,37.4616809627866
2184,37.4267049346075
2184.25,37.3917289064284
2184.5,37.3567528782492
2184.75,37.3217768500701
2185,37.286800821891
2185.25,37.2518247937119
2185.5,37.2168487655328
2185.75,37.2129480447474
2186,37.2379309220182
2186.25,37.262913799289
2186.5,37.2878966765598
2186.75,37.3128795538306
2187,37.3378624311014
2187.25,37.3628453083722
2187.5,37.387828185643
2187.75,37.4128110629138
2188,37.4377939401846
2188.25,37.4627768174554
2188.5,37.4877596947262
2188.75,37.512742571997
2189,37.5377254492678
2189.25,37.5627083265386
2189.5,37.5876912038094
2189.75,37.6126740810802
2190,37.637656958351
2190.25,37.6626398356218
2190.5,37.6876227128926
2190.75,37.6848732918039
2191,37.654893839079
2191.25,37.624914386354
2191.5,37.594934933629
2191.75,37.5649554809041
2192,37.5349760281791
2192.25,37.5049965754542
2192.5,37.4750171227292
2192.75,37.4450376700042
2193,37.4150582172793
2193.25,37.3850787645543
2193.5,37.3550993118294
2193.75,37.3251198591044
2194,37.2951404063794
2194.25,37.2651609536545
2194.5,37.2351815009295
2194.75,37.2052020482046
2195,37.1752225954796
2195.25,37.1452431427546
2195.5,37.1152636900297
2195.75,37.2226313557941
2196,37.4724601285019
2196.25,37.7222889012099
2196.5,37.972117673918
2196.75,38.221946446626
2197,38.471775219334
2197.25,38.7216039920421
2197.5,38.9714327647499
2197.75,39.2212615374579
2198,39.471090310166
2198.25,39.720919082874
2198.5,39.9707478555821
2198.75,40.2205766282899
2199,40.4704054009979
2199.25,40.720234173706
2199.5,40.970062946414
2199.75,41.2198917191221
2200,41.4697204918299
2200.25,41.7195492645379
2200.5,41.969378037246
2200.75,42.128609634389
2201,42.1885685398389
2201.25,42.2485274452888
2201.5,42.3084863507387
2201.75,42.3684452561886
2202,42.4284041616386
2202.25,42.4883630670885
2202.5,42.5483219725384
2202.75,42.6082808779883
2203,42.6682397834382
2203.25,42.7281986888881
2203.5,42.7881575943381
2203.75,42.848116499788
2204,42.9080754052379
2204.25,42.9680343106878
2204.5,43.0279932161377
2204.75,43.0879521215877
2205,43.1479110270376
2205.25,43.2078699324875
2205.5,43.2678288379374
2205.75,43.2953687094354
2206,43.2853755585271
2206.25,43.2753824076188
2206.5,43.2653892567105
2206.75,43.2553961058022
2207,43.2454029548938
2207.25,43.2354098039855
2207.5,43.2254166530772
2207.75,43.2154235021689
2208,43.2054303512606
2208.25,43.1954372003522
2208.5,43.1854440494439
2208.75,43.1754508985356
2209,43.1654577476273
2209.25,43.155464596719
2209.5,43.1454714458106
2209.75,43.1354782949023
2210,43.125485143994
2210.25,43.1154919930857
2210.5,43.1054988421774
2210.75,43.0730341476142
2211,43.0130752421643
2211.25,42.9531163367144
2211.5,42.8931574312645
2211.75,42.8331985258146
2212,42.7732396203646
2212.25,42.7132807149147
2212.5,42.6533218094648
2212.75,42.5933629040149
2213,42.533403998565
2213.25,42.473445093115
2213.5,42.4134861876651
2213.75,42.3535272822152
2214,42.2935683767653
2214.25,42.2336094713154
2214.5,42.1736505658654
2214.75,42.1136916604155
2215,42.0537327549656
2215.25,41.9937738495157
2215.5,41.9338149440658
2215.75,41.8564267310264
2216,41.7564952219432
2216.25,41.65656371286
2216.5,41.5566322037768
2216.75,41.4567006946936
2217,41.3567691856104
2217.25,41.2568376765272
2217.5,41.156906167444
2217.75,41.0569746583608
2218,40.9570431492776
2218.25,40.8571116401944
2218.5,40.7571801311112
2218.75,40.657248622028
2219,40.5573171129448
2219.25,40.4573856038616
2219.5,40.3574540947784
2219.75,40.2575225856952
2220,40.157591076612
2220.25,40.0576595675288
2220.5,39.9577280584456
2220.75,39.9253220703825
2221,39.9852809758325
2221.25,40.0452398812824
2221.5,40.1051987867323
2221.75,40.1651576921822
2222,40.2251165976322
2222.25,40.2850755030821
2222.5,40.345034408532
2222.75,40.4049933139819
2223,40.4649522194319
2223.25,40.5249111248817
2223.5,40.5848700303317
2223.75,40.6448289357816
2224,40.7047878412315
2224.25,40.7647467466815
2224.5,40.8247056521313
2224.75,40.8846645575813
2225,40.9446234630312
2225.25,41.0045823684811
2225.5,41.0645412739311
2225.75,41.0877499103095
2226,41.0577704575846
2226.25,41.0277910048596
2226.5,40.9978115521346
2226.75,40.9678320994097
2227,40.9378526466847
2227.25,40.9078731939598
2227.5,40.8778937412348
2227.75,40.8479142885098
2228,40.8179348357849
2228.25,40.7879553830599
2228.5,40.757975930335
2228.75,40.72799647761
2229,40.698017024885
2229.25,40.6680375721601
2229.5,40.6380581194351
2229.75,40.6080786667101
2230,40.5780992139852
2230.25,40.5481197612602
2230.5,40.5181403085353
2230.75,40.4704021395258
2231,40.3954535077134
2231.25,40.320504875901
2231.5,40.2455562440886
2231.75,40.1706076122762
2232,40.0956589804638
2232.25,40.0207103486514
2232.5,39.945761716839
2232.75,39.8708130850266
2233,39.7958644532142
2233.25,39.7209158214018
2233.5,39.6459671895894
2233.75,39.571018557777
2234,39.4960699259646
2234.25,39.4211212941522
2234.5,39.3461726623398
2234.75,39.2712240305274
2235,39.196275398715
2235.25,39.1213267669026
2235.5,39.0463781350902
2235.75,38.9980953002185
2236,38.9930987247644
2236.25,38.9881021493102
2236.5,38.983105573856
2236.75,38.9781089984019
2237,38.9731124229477
2237.25,38.9681158474936
2237.5,38.9631192720394
2237.75,38.9581226965852
2238,38.9531261211311
2238.25,38.9481295456769
2238.5,38.9431329702228
2238.75,38.9381363947686
2239,38.9331398193144
2239.25,38.9281432438603
2239.5,38.9231466684061
2239.75,38.918150092952
2240,38.9131535174978
2240.25,38.9081569420436
2240.5,38.9031603665895
2240.75,38.848586151789
2241,38.7086820390725
2241.25,38.568777926356
2241.5,38.4288738136395
2241.75,38.288969700923
2242,38.1490655882066
2242.25,38.0091614754901
2242.5,37.8692573627736
2242.75,37.7293532500571
2243,37.5894491373406
2243.25,37.4495450246241
2243.5,37.3096409119077
2243.75,37.1697367991912
2244,37.0298326864747
2244.25,36.8899285737582
2244.5,36.7500244610417
2244.75,36.6101203483253
2245,36.4702162356088
2245.25,36.3303121228923
2245.5,36.1904080101758
2245.75,36.0876259743648
2246,36.0526499461857
2246.25,36.0176739180066
2246.5,35.9826978898275
2246.75,35.9477218616484
2247,35.9127458334692
2247.25,35.8777698052901
2247.5,35.842793777111
2247.75,35.8078177489319
2248,35.7728417207528
2248.25,35.7378656925736
2248.5,35.7028896643945
2248.75,35.6679136362154
2249,35.6329376080363
2249.25,35.5979615798572
2249.5,35.562985551678
2249.75,35.5280095234989
2250,35.4930334953198
2250.25,35.4580574671407
2250.5,35.4230814389616
2250.75,35.3949023189068
2251,35.3799125925443
2251.25,35.3649228661818
2251.5,35.3499331398193
2251.75,35.3349434134568
2252,35.3199536870944
2252.25,35.3049639607319
2252.5,35.2899742343694
2252.75,35.2749845080069
2253,35.2599947816444
2253.25,35.245005055282
2253.5,35.2300153289195
2253.75,35.215025602557
2254,35.2000358761945
2254.25,35.185046149832
2254.5,35.1700564234696
2254.75,35.1550666971071
2255,35.1400769707446
2255.25,35.1250872443821
2255.5,35.1100975180196
2255.75,35.0722774860572
2256,34.9873357033365
2256.25,34.9023939206158
2256.5,34.817452137895
2256.75,34.7325103551743
2257,34.6475685724537
2257.25,34.5626267897329
2257.5,34.4776850070122
2257.75,34.3927432242914
2258,34.3078014415707
2258.25,34.2228596588501
2258.5,34.1379178761293
2258.75,34.0529760934086
2259,33.9680343106878
2259.25,33.8830925279671
2259.5,33.7981507452464
2259.75,33.7132089625257
2260,33.628267179805
2260.25,33.5433253970843
2260.5,33.4583836143635
2260.75,33.4234336779622
2261,33.4983823097746
2261.25,33.573330941587
2261.5,33.6482795733994
2261.75,33.7232282052118
2262,33.7981768370242
2262.25,33.8731254688367
2262.5,33.948074100649
2262.75,34.0230227324614
2263,34.0979713642738
2263.25,34.1729199960862
2263.5,34.2478686278986
2263.75,34.322817259711
2264,34.3977658915234
2264.25,34.4727145233358
2264.5,34.5476631551482
2264.75,34.6226117869606
2265,34.697560418773
2265.25,34.7725090505854
2265.5,34.8474576823978
2265.75,34.8910374743159
2266,34.8610580215909
2266.25,34.831078568866
2266.5,34.801099116141
2266.75,34.7711196634161
2267,34.7411402106911
2267.25,34.7111607579661
2267.5,34.6811813052412
2267.75,34.6512018525162
2268,34.6212223997913
2268.25,34.5912429470663
2268.5,34.5612634943413
2268.75,34.5312840416164
2269,34.5013045888914
2269.25,34.4713251361665
2269.5,34.4413456834415
2269.75,34.4113662307165
2270,34.3813867779916
2270.25,34.3514073252666
2270.5,34.3214278725417
2270.75,34.2714947327224
2271,34.1715632236392
2271.25,34.0716317145559
2271.5,33.9717002054727
2271.75,33.8717686963896
2272,33.7718371873064
2272.25,33.6719056782232
2272.5,33.57197416914
2272.75,33.4720426600567
2273,33.3721111509735
2273.25,33.2721796418904
2273.5,33.1722481328072
2273.75,33.072316623724
2274,32.9723851146407
2274.25,32.8724536055575
2274.5,32.7725220964744
2274.75,32.6725905873912
2275,32.572659078308
2275.25,32.4727275692248
2275.5,32.3727960601415
2275.75,32.2891458204233
2276,32.2491732167901
2276.25,32.2092006131568
2276.5,32.1692280095235
2276.75,32.1292554058902
2277,32.0892828022569
2277.25,32.0493101986237
2277.5,32.0093375949904
2277.75,31.9693649913571
2278,31.9293923877238
2278.25,31.8894197840905
2278.5,31.8494471804572
2278.75,31.809474576824
2279,31.7695019731907
2279.25,31.7295293695574
2279.5,31.6895567659241
2279.75,31.6495841622908
2280,31.6096115586576
2280.25,31.5696389550243
2280.5,31.529666351391
2280.75,31.4922703108183
2281,31.4622908580933
2281.25,31.4323114053684
2281.5,31.4023319526434
2281.75,31.3723524999185
2282,31.3423730471935
2282.25,31.3123935944685
2282.5,31.2824141417436
2282.75,31.2524346890186
2283,31.2224552362937
2283.25,31.1924757835687
2283.5,31.1624963308437
2283.75,31.1325168781188
2284,31.1025374253938
2284.25,31.0725579726689
2284.5,31.0425785199439
2284.75,31.0125990672189
2285,30.982619614494
2285.25,30.952640161769
2285.5,30.9226607090441
2285.75,30.9451322526988
2286,31.1300055445028
2286.25,31.3148788363067
2286.5,31.4997521281107
2286.75,31.6846254199145
2287,31.8694987117184
2287.25,32.0543720035224
2287.5,32.2392452953263
2287.75,32.4241185871303
2288,32.608991878934
2288.25,32.793865170738
2288.5,32.9787384625419
2288.75,33.1636117543459
2289,33.3484850461498
2289.25,33.5333583379538
2289.5,33.7182316297576
2289.75,33.9031049215615
2290,34.0879782133655
2290.25,34.2728515051694
2290.5,34.4577247969734
2290.75,34.6195720948436
2291,34.7045138775643
2291.25,34.789455660285
2291.5,34.8743974430058
2291.75,34.9593392257265
2292,35.0442810084472
2292.25,35.1292227911679
2292.5,35.2141645738886
2292.75,35.2991063566094
2293,35.3840481393301
2293.25,35.4689899220508
2293.5,35.5539317047715
2293.75,35.6388734874922
2294,35.723815270213
2294.25,35.8087570529337
2294.5,35.8936988356544
2294.75,35.9786406183751
2295,36.0635824010958
2295.25,36.1485241838165
2295.5,36.2334659665373
2295.75,36.3097452790189
2296,36.3547144581064
2296.25,36.3996836371938
2296.5,36.4446528162813
2296.75,36.4896219953687
2297,36.5345911744561
2297.25,36.5795603535436
2297.5,36.624529532631
2297.75,36.6694987117185
2298,36.7144678908059
2298.25,36.7594370698933
2298.5,36.8044062489808
2298.75,36.8493754280682
2299,36.8943446071557
2299.25,36.9393137862431
2299.5,36.9842829653305
2299.75,37.029252144418
2300,37.0742213235054
2300.25,37.1191905025929
2300.5,37.1641596816803
2300.75,37.1807279606014
2301,37.0857930269724
2301.25,36.9908580933433
2301.5,36.8959231597143
2301.75,36.8009882260853
2302,36.7060532924562
2302.25,36.6111183588272
2302.5,36.5161834251981
2302.75,36.4212484915691
2303,36.3263135579401
2303.25,36.231378624311
2303.5,36.136443690682
2303.75,36.0415087570529
2304,35.9465738234239
2304.25,35.8516388897949
2304.5,35.7567039561659
2304.75,35.6617690225368
2305,35.5668340889077
2305.25,35.4718991552787
2305.5,35.3769642216496
2305.75,35.2782459802355
2306,35.1633247447898
2306.25,35.0484035093441
2306.5,34.9334822738984
2306.75,34.8185610384527
2307,34.7036398030071
2307.25,34.5887185675614
2307.5,34.4737973321157
2307.75,34.35887609667
2308,34.2439548612243
2308.25,34.1290336257786
2308.5,34.014112390333
2308.75,33.8991911548873
2309,33.7842699194416
2309.25,33.6693486839959
2309.5,33.5544274485503
2309.75,33.4395062131047
2310,33.324584977659
2310.25,33.2096637422133
2310.5,33.0947425067676
2310.75,33.0078960242654
2311,33.0528652033528
2311.25,33.0978343824402
2311.5,33.1428035615277
2311.75,33.1877727406151
2312,33.2327419197026
2312.25,33.27771109879
2312.5,33.3226802778774
2312.75,33.3676494569649
2313,33.4126186360523
2313.25,33.4575878151398
2313.5,33.5025569942272
2313.75,33.5475261733146
2314,33.5924953524021
2314.25,33.6374645314895
2314.5,33.682433710577
2314.75,33.7274028896644
2315,33.7723720687518
2315.25,33.8173412478393
2315.5,33.8623104269267
2315.75,33.8967646195493
2316,33.8767783177326
2316.25,33.856792015916
2316.5,33.8368057140994
2316.75,33.8168194122827
2317,33.7968331104661
2317.25,33.7768468086494
2317.5,33.7568605068328
2317.75,33.7368742050161
2318,33.7168879031995
2318.25,33.6969016013829
2318.5,33.6769152995662
2318.75,33.6569289977496
2319,33.6369426959329
2319.25,33.6169563941163
2319.5,33.5969700922997
2319.75,33.576983790483
2320,33.5569974886664
2320.25,33.5370111868497
2320.5,33.5170248850331
2320.75,33.5111053129382
2321,33.5860539447506
2321.25,33.6610025765631
2321.5,33.7359512083755
2321.75,33.8108998401879
2322,33.8858484720002
2322.25,33.9607971038126
2322.5,34.035745735625
2322.75,34.1106943674375
2323,34.1856429992499
2323.25,34.2605916310622
2323.5,34.3355402628746
2323.75,34.410488894687
2324,34.4854375264995
2324.25,34.5603861583119
2324.5,34.6353347901243
2324.75,34.7102834219366
2325,34.785232053749
2325.25,34.8601806855615
2325.5,34.9351293173739
2325.75,35.0073904960699
2326,35.0623528260657
2326.25,35.1173151560614
2326.5,35.1722774860572
2326.75,35.227239816053
2327,35.2822021460487
2327.25,35.3371644760445
2327.5,35.3921268060402
2327.75,35.447089136036
2328,35.5020514660318
2328.25,35.5570137960275
2328.5,35.6119761260233
2328.75,35.666938456019
2329,35.7219007860148
2329.25,35.7768631160106
2329.5,35.8318254460063
2329.75,35.8867877760021
2330,35.9417501059978
2330.25,35.9967124359936
2330.5,36.0516747659894
2330.75,36.1066370959851
2331,36.1615994259809
2331.25,36.2165617559767
2331.5,36.2715240859724
2331.75,36.3264864159682
2332,36.3814487459639
2332.25,36.4364110759597
2332.5,36.4913734059555
2332.75,36.5463357359512
2333,36.6012980659469
2333.25,36.6562603959427
2333.5,36.7112227259385
2333.75,36.7661850559343
2334,36.82114738593
2334.25,36.8761097159258
2334.5,36.9310720459215
2334.75,36.9860343759173
2335,37.0409967059131
2335.25,37.0959590359088
2335.5,37.1509213659045
2335.75,37.1866279638629
2336,37.0617135775089
2336.25,36.9367991911549
2336.5,36.8118848048009
2336.75,36.686970418447
2337,36.5620560320929
2337.25,36.4371416457389
2337.5,36.3122272593849
2337.75,36.1873128730309
2338,36.0623984866769
2338.25,35.9374841003229
2338.5,35.8125697139689
2338.75,35.6876553276149
2339,35.5627409412609
2339.25,35.4378265549069
2339.5,35.312912168553
2339.75,35.1879977821989
2340,35.0630833958449
2340.25,34.9381690094909
2340.5,34.8132546231369
2340.75,34.7004663905287
2341,34.7054629659828
2341.25,34.710459541437
2341.5,34.7154561168912
2341.75,34.7204526923453
2342,34.7254492677995
2342.25,34.7304458432536
2342.5,34.7354424187078
2342.75,34.740438994162
2343,34.7454355696161
2343.25,34.7504321450703
2343.5,34.7554287205244
2343.75,34.7604252959786
2344,34.7654218714328
2344.25,34.7704184468869
2344.5,34.7754150223411
2344.75,34.7804115977952
2345,34.7854081732494
2345.25,34.7904047487036
2345.5,34.7954013241577
2345.75,34.7984084015525
2346,34.7784220997358
2346.25,34.7584357979192
2346.5,34.7384494961025
2346.75,34.7184631942859
2347,34.6984768924693
2347.25,34.6784905906526
2347.5,34.658504288836
2347.75,34.6385179870193
2348,34.6185316852027
2348.25,34.5985453833861
2348.5,34.5785590815694
2348.75,34.5585727797528
2349,34.5385864779362
2349.25,34.5186001761195
2349.5,34.4986138743029
2349.75,34.4786275724862
2350,34.4586412706696
2350.25,34.438654968853
2350.5,34.4186686670363
2350.75,34.4023058608656
2351,34.4372818890447
2351.25,34.4722579172238
2351.5,34.507233945403
2351.75,34.5422099735821
2352,34.5771860017612
2352.25,34.6121620299403
2352.5,34.6471380581194
2352.75,34.6821140862986
2353,34.7170901144777
2353.25,34.7520661426568
2353.5,34.7870421708359
2353.75,34.822018199015
2354,34.8569942271942
2354.25,34.8919702553733
2354.5,34.9269462835524
2354.75,34.9619223117315
2355,34.9968983399106
2355.25,35.0318743680898
2355.5,35.0668503962689
2355.75,35.0966080688823
2356,35.0316525879782
2356.25,34.9666971070741
2356.5,34.9017416261701
2356.75,34.836786145266
2357,34.7718306643619
2357.25,34.7068751834578
2357.5,34.6419197025538
2357.75,34.5769642216497
2358,34.5120087407456
2358.25,34.4470532598415
2358.5,34.3820977789374
2358.75,34.3171422980334
2359,34.2521868171293
2359.25,34.1872313362252
2359.5,34.1222758553211
2359.75,34.057320374417
2360,33.992364893513
2360.25,33.9274094126089
2360.5,33.8624539317048
2360.75,33.8028864029223
2361,33.8778350347347
2361.25,33.952783666547
2361.5,34.0277322983595
2361.75,34.1026809301719
2362,34.1776295619843
2362.25,34.2525781937967
2362.5,34.327526825609
2362.75,34.4024754574214
2363,34.4774240892339
2363.25,34.5523727210463
2363.5,34.6273213528587
2363.75,34.7022699846711
2364,34.7772186164834
2364.25,34.8521672482959
2364.5,34.9271158801083
2364.75,35.0020645119207
2365,35.0770131437331
2365.25,35.1519617755454
2365.5,35.2269104073578
2365.75,35.3001239359447
2366,35.3051205113988
2366.25,35.310117086853
2366.5,35.3151136623072
2366.75,35.3201102377613
2367,35.3251068132155
2367.25,35.3301033886696
2367.5,35.3350999641238
2367.75,35.340096539578
2368,35.3450931150321
2368.25,35.3500896904863
2368.5,35.3550862659404
2368.75,35.3600828413946
2369,35.3650794168488
2369.25,35.3700759923029
2369.5,35.3750725677571
2369.75,35.3800691432112
2370,35.3850657186654
2370.25,35.3900622941196
2370.5,35.3950588695737
2370.75,35.4002217801115
2371,35.4202080819282
2371.25,35.4401943837448
2371.5,35.4601806855615
2371.75,35.4801669873781
2372,35.5001532891947
2372.25,35.5201395910114
2372.5,35.540125892828
2372.75,35.5601121946447
2373,35.5800984964613
2373.25,35.6000847982779
2373.5,35.6200711000946
2373.75,35.6400574019112
2374,35.6600437037279
2374.25,35.6800300055445
2374.5,35.7000163073611
2374.75,35.7200026091778
2375,35.7399889109944
2375.25,35.7599752128111
2375.5,35.7799615146277
2375.75,35.7999478164443
2376,35.7053129382604
2376.25,35.6103780046313
2376.5,35.5154430710023
2376.75,35.4205081373732
2377,35.3255732037442
2377.25,35.2306382701151
2377.5,35.1357033364861
2377.75,35.0407684028571
2378,34.945833469228
2378.25,34.850898535599
2378.5,34.7559636019699
2378.75,34.6610286683409
2379,34.5660937347119
2379.25,34.4711588010828
2379.5,34.3762238674538
2379.75,34.2812889338247
2380,34.1863540001957
2380.25,34.0914190665667
2380.5,33.9964841329376
2380.75,33.9015491993086
2381,33.855764652164
2381.25,33.8107954730765
2381.5,33.7658262939891
2381.75,33.7208571149017
2382,33.6758879358142
2382.25,33.6309187567268
2382.5,33.5859495776393
2382.75,33.5409803985519
2383,33.4960112194645
2383.25,33.451042040377
2383.5,33.4060728612896
2383.75,33.3611036822021
2384,33.3161345031147
2384.25,33.2711653240273
2384.5,33.2261961449398
2384.75,33.1812269658524
2385,33.1362577867649
2385.25,33.0912886076775
2385.5,33.0463194285901
2385.75,33.0013502495026
2386,32.9369948794886
2386.25,32.8720393985845
2386.5,32.8070839176804
2386.75,32.7421284367763
2387,32.6771729558723
2387.25,32.6122174749682
2387.5,32.5472619940641
2387.75,32.48230651316
2388,32.4173510322559
2388.25,32.3523955513519
2388.5,32.2874400704478
2388.75,32.2224845895437
2389,32.1575291086396
2389.25,32.0925736277355
2389.5,32.0276181468315
2389.75,31.9626626659274
2390,31.8977071850233
2390.25,31.8327517041192
2390.5,31.7677962232152
2390.75,31.7028407423111
2391,31.7812269658523
2391.25,31.8661687485731
2391.5,31.9511105312938
2391.75,32.0360523140145
2392,32.1209940967353
2392.25,32.2059358794559
2392.5,32.2908776621767
2392.75,32.3758194448974
2393,32.4607612276181
2393.25,32.5457030103389
2393.5,32.6306447930596
2393.75,32.7155865757803
2394,32.800528358501
2394.25,32.8854701412217
2394.5,32.9704119239425
2394.75,33.0553537066632
2395,33.1402954893839
2395.25,33.2252372721046
2395.5,33.3101790548253
2395.75,33.3951208375461
2396,33.4659339225727
2396.25,33.5358859789309
2396.5,33.6058380352891
2396.75,33.6757900916474
2397,33.7457421480056
2397.25,33.8156942043639
2397.5,33.8856462607221
2397.75,33.9555983170803
2398,34.0255503734385
2398.25,34.0955024297968
2398.5,34.165454486155
2398.75,34.2354065425133
2399,34.3053585988715
2399.25,34.3753106552297
2399.5,34.445262711588
2399.75,34.5152147679462
2400,34.5851668243045
2400.25,34.6551188806627
2400.5,34.7250709370209
2400.75,34.7950229933792
2401,34.8788982746812
2401.25,34.9638400574019
2401.5,35.0487818401226
2401.75,35.1337236228433
2402,35.218665405564
2402.25,35.3036071882848
2402.5,35.3885489710055
2402.75,35.4734907537262
2403,35.558432536447
2403.25,35.6433743191676
2403.5,35.7283161018884
2403.75,35.8132578846091
2404,35.8981996673298
2404.25,35.9831414500506
2404.5,36.0680832327712
2404.75,36.153025015492
2405,36.2379667982127
2405.25,36.3229085809334
2405.5,36.4078503636542
2405.75,36.4927921463748
2406,36.5868790972244
2406.25,36.6818140308535
2406.5,36.7767489644826
2406.75,36.8716838981116
2407,36.9666188317407
2407.25,37.0615537653696
2407.5,37.1564886989987
2407.75,37.2514236326277
2408,37.3463585662568
2408.25,37.4412934998859
2408.5,37.5362284335148
2408.75,37.6311633671439
2409,37.7260983007729
2409.25,37.821033234402
2409.5,37.9159681680311
2409.75,38.0109031016601
2410,38.1058380352891
2410.25,38.2007729689181
2410.5,38.2957079025472
2410.75,38.3906428361762
2411,38.4135122794429
2411.25,38.4285020058054
2411.5,38.4434917321679
2411.75,38.4584814585304
2412,38.4734711848929
2412.25,38.4884609112553
2412.5,38.5034506376178
2412.75,38.5184403639803
2413,38.5334300903428
2413.25,38.5484198167053
2413.5,38.5634095430677
2413.75,38.5783992694302
2414,38.5933889957927
2414.25,38.6083787221552
2414.5,38.6233684485177
2414.75,38.6383581748801
2415,38.6533479012426
2415.25,38.6683376276051
2415.5,38.6833273539676
2415.75,38.6983170803301
2416,38.7177424089234
2416.25,38.73772871074
2416.5,38.7577150125567
2416.75,38.7777013143733
2417,38.7976876161899
2417.25,38.8176739180066
2417.5,38.8376602198232
2417.75,38.8576465216399
2418,38.8776328234565
2418.25,38.8976191252731
2418.5,38.9176054270898
2418.75,38.9375917289064
2419,38.9575780307231
2419.25,38.9775643325397
2419.5,38.9975506343563
2419.75,39.017536936173
2420,39.0375232379896
2420.25,39.0575095398063
2420.5,39.0774958416229
2420.75,39.0974821434395
2421,39.1
2421.25,39.1
2421.5,39.1
2421.75,39.1
2422,39.1
2422.25,39.1
2422.5,39.1
2422.75,39.1
2423,39.1
2423.25,39.1
2423.5,39.1
2423.75,39.1
2424,39.1
2424.25,39.1
2424.5,39.1
2424.75,39.1
2425,39.1
2425.25,39.1
2425.5,39.1
2425.75,39.1
2426,39.065611036822
2426.25,39.0256384331888
2426.5,38.9856658295555
2426.75,38.9456932259222
2427,38.9057206222889
2427.25,38.8657480186556
2427.5,38.8257754150224
2427.75,38.7858028113891
2428,38.7458302077558
2428.25,38.7058576041225
2428.5,38.6658850004892
2428.75,38.6259123968559
2429,38.5859397932227
2429.25,38.5459671895894
2429.5,38.5059945859561
2429.75,38.4660219823228
2430,38.4260493786895
2430.25,38.3860767750563
2430.5,38.346104171423
2430.75,38.3061315677897
2431,38.1181044323408
2431.25,37.9032516878118
2431.5,37.6883989432831
2431.75,37.4735461987542
2432,37.2586934542253
2432.25,37.0438407096964
2432.5,36.8289879651675
2432.75,36.6141352206385
2433,36.3992824761098
2433.25,36.1844297315809
2433.5,35.969576987052
2433.75,35.7547242425231
2434,35.5398714979942
2434.25,35.3250187534654
2434.5,35.1101660089365
2434.75,34.8953132644076
2435,34.6804605198787
2435.25,34.4656077753498
2435.5,34.2507550308208
2435.75,34.0359022862921
2436,33.9375754215453
2436.25,33.8626267897329
2436.5,33.7876781579205
2436.75,33.7127295261081
2437,33.6377808942957
2437.25,33.5628322624833
2437.5,33.4878836306709
2437.75,33.4129349988585
2438,33.3379863670461
2438.25,33.2630377352337
2438.5,33.1880891034213
2438.75,33.1131404716089
2439,33.0381918397965
2439.25,32.9632432079841
2439.5,32.8882945761717
2439.75,32.8133459443593
2440,32.7383973125469
2440.25,32.6634486807345
2440.5,32.5885000489221
2440.75,32.5135514171097
2441,32.4549753758847
2441.25,32.4000130458889
2441.5,32.3450507158932
2441.75,32.2900883858974
2442,32.2351260559016
2442.25,32.1801637259059
2442.5,32.1252013959101
2442.75,32.0702390659144
2443,32.0152767359186
2443.25,31.9603144059228
2443.5,31.9053520759271
2443.75,31.8503897459313
2444,31.7954274159356
2444.25,31.7404650859398
2444.5,31.685502755944
2444.75,31.6305404259483
2445,31.5755780959525
2445.25,31.5206157659568
2445.5,31.465653435961
2445.75,31.4106911059652
2446,31.3879260298099
2446.25,31.3729363034474
2446.5,31.3579465770849
2446.75,31.3429568507224
2447,31.3279671243599
2447.25,31.3129773979975
2447.5,31.297987671635
2447.75,31.2829979452725
2448,31.26800821891
2448.25,31.2530184925475
2448.5,31.2380287661851
2448.75,31.2230390398226
2449,31.2080493134601
2449.25,31.1930595870976
2449.5,31.1780698607351
2449.75,31.1630801343727
2450,31.1480904080102
2450.25,31.1331006816477
2450.5,31.1181109552852
2450.75,31.1031212289227
2451,31.1553863213855
2451.25,31.2253383777437
2451.5,31.295290434102
2451.75,31.3652424904602
2452,31.4351945468184
2452.25,31.5051466031767
2452.5,31.5750986595349
2452.75,31.6450507158932
2453,31.7150027722514
2453.25,31.7849548286096
2453.5,31.8549068849679
2453.75,31.9248589413261
2454,31.9948109976844
2454.25,32.0647630540426
2454.5,32.1347151104008
2454.75,32.204667166759
2455,32.2746192231173
2455.25,32.3445712794756
2455.5,32.4145233358338
2455.75,32.4844753921921
2456,32.4611232510355
2456.25,32.4111574964939
2456.5,32.3611917419523
2456.75,32.3112259874107
2457,32.2612602328691
2457.25,32.2112944783275
2457.5,32.1613287237859
2457.75,32.1113629692443
2458,32.0613972147027
2458.25,32.0114314601611
2458.5,31.9614657056195
2458.75,31.9114999510779
2459,31.8615341965363
2459.25,31.8115684419947
2459.5,31.7616026874531
2459.75,31.7116369329115
2460,31.6616711783699
2460.25,31.6117054238283
2460.5,31.5617396692867
2460.75,31.5117739147451
2461,31.4541697922442
2461.25,31.3942108867943
2461.5,31.3342519813444
2461.75,31.2742930758945
2462,31.2143341704445
2462.25,31.1543752649946
2462.5,31.0944163595447
2462.75,31.0344574540948
2463,30.9744985486449
2463.25,30.9145396431949
2463.5,30.854580737745
2463.75,30.7946218322951
2464,30.7346629268452
2464.25,30.6747040213953
2464.5,30.6147451159454
2464.75,30.5547862104954
2465,30.4948273050455
2465.25,30.4348683995956
2465.5,30.3749094941457
2465.75,30.3149505886958
2466,30.2887479208115
2466.25,30.273758194449
2466.5,30.2587684680865
2466.75,30.243778741724
2467,30.2287890153615
2467.25,30.2137992889991
2467.5,30.1988095626366
2467.75,30.1838198362741
2468,30.1688301099116
2468.25,30.1538403835491
2468.5,30.1388506571867
2468.75,30.1238609308242
2469,30.1088712044617
2469.25,30.0938814780992
2469.5,30.0788917517367
2469.75,30.0639020253743
2470,30.0489122990118
2470.25,30.0339225726493
2470.5,30.0189328462868
2470.75,30.0039431199243
2471,29.9852711914158
2471.25,29.9652848895992
2471.5,29.9452985877825
2471.75,29.9253122859659
2472,29.9053259841492
2472.25,29.8853396823326
2472.5,29.865353380516
2472.75,29.8453670786993
2473,29.8253807768827
2473.25,29.805394475066
2473.5,29.7854081732494
2473.75,29.7654218714328
2474,29.7454355696161
2474.25,29.7254492677995
2474.5,29.7054629659828
2474.75,29.6854766641662
2475,29.6654903623496
2475.25,29.6455040605329
2475.5,29.6255177587163
2475.75,29.6055314568996
2476,29.715638759336
2476.25,29.875529173869
2476.5,30.0354195884021
2476.75,30.1953100029353
2477,30.3552004174684
2477.25,30.5150908320016
2477.5,30.6749812465346
2477.75,30.8348716610677
2478,30.9947620756009
2478.25,31.154652490134
2478.5,31.3145429046672
2478.75,31.4744333192003
2479,31.6343237337333
2479.25,31.7942141482665
2479.5,31.9541045627996
2479.75,32.1139949773328
2480,32.2738853918659
2480.25,32.4337758063989
2480.5,32.5936662209321
2480.75,32.7535566354652
2481,32.7964547796876
2481.25,32.7914582042334
2481.5,32.7864616287792
2481.75,32.7814650533251
2482,32.7764684778709
2482.25,32.7714719024167
2482.5,32.7664753269626
2482.75,32.7614787515084
2483,32.7564821760543
2483.25,32.7514856006001
2483.5,32.746489025146
2483.75,32.7414924496918
2484,32.7364958742376
2484.25,32.7314992987835
2484.5,32.7265027233293
2484.75,32.7215061478752
2485,32.716509572421
2485.25,32.7115129969668
2485.5,32.7065164215127
2485.75,32.7015198460585
2486,32.7243371057695
2486.25,32.7593131339487
2486.5,32.7942891621278
2486.75,32.8292651903069
2487,32.864241218486
2487.25,32.8992172466651
2487.5,32.9341932748443
2487.75,32.9691693030234
2488,33.0041453312025
2488.25,33.0391213593816
2488.5,33.0740973875607
2488.75,33.1090734157399
2489,33.144049443919
2489.25,33.1790254720981
2489.5,33.2140015002772
2489.75,33.2489775284563
2490,33.2839535566355
2490.25,33.3189295848146
2490.5,33.3539056129937
2490.75,33.3888816411728
2491,33.2773034147614
2491.25,33.0974266984117
2491.5,32.917549982062
2491.75,32.7376732657122
2492,32.5577965493624
2492.25,32.3779198330126
2492.5,32.198043116663
2492.75,32.0181664003132
2493,31.8382896839634
2493.25,31.6584129676136
2493.5,31.4785362512638
2493.75,31.2986595349142
2494,31.1187828185644
2494.25,30.9389061022146
2494.5,30.7590293858648
2494.75,30.579152669515
2495,30.3992759531652
2495.25,30.2193992368156
2495.5,30.0395225204658
2495.75,29.859645804116
2496,29.7766217670657
2496.25,29.7416457388865
2496.5,29.7066697107074
2496.75,29.6716936825283
2497,29.6367176543492
2497.25,29.6017416261701
2497.5,29.5667655979909
2497.75,29.5317895698118
2498,29.4968135416327
2498.25,29.4618375134536
2498.5,29.4268614852745
2498.75,29.3918854570953
2499,29.3569094289162
2499.25,29.3219334007371
2499.5,29.286957372558
2499.75,29.2519813443789
2500,29.2170053161997
2500.25,29.1820292880206
2500.5,29.1470532598415
2500.75,29.1120772316624
2501,29.191595186067
2501.25,29.3314992987835
2501.5,29.4714034115
2501.75,29.6113075242165
2502,29.7512116369328
2502.25,29.8911157496493
2502.5,30.0310198623658
2502.75,30.1709239750824
2503,30.3108280877989
2503.25,30.4507322005152
2503.5,30.5906363132317
2503.75,30.7305404259482
2504,30.8704445386647
2504.25,31.0103486513812
2504.5,31.1502527640978
2504.75,31.2901568768141
2505,31.4300609895306
2505.25,31.5699651022471
2505.5,31.7098692149636
2505.75,31.8497733276801
2506,31.807119793875
2506.25,31.6622191057044
2506.5,31.5173184175337
2506.75,31.372417729363
2507,31.2275170411924
2507.25,31.0826163530217
2507.5,30.9377156648512
2507.75,30.7928149766805
2508,30.6479142885098
2508.25,30.5030136003392
2508.5,30.3581129121685
2508.75,30.213212223998
2509,30.0683115358273
2509.25,29.9234108476567
2509.5,29.778510159486
2509.75,29.6336094713153
2510,29.4887087831448
2510.25,29.3438080949741
2510.5,29.1989074068035
2510.75,29.0540067186328
2511,28.9655229770718
2511.25,28.9105606470761
2511.5,28.8555983170804
2511.75,28.8006359870846
2512,28.7456736570888
2512.25,28.690711327093
2512.5,28.6357489970973
2512.75,28.5807866671016
2513,28.5258243371058
2513.25,28.47086200711
2513.5,28.4158996771143
2513.75,28.3609373471185
2514,28.3059750171227
2514.25,28.251012687127
2514.5,28.1960503571312
2514.75,28.1410880271355
2515,28.0861256971397
2515.25,28.0311633671439
2515.5,27.9762010371482
2515.75,27.9212387071524
2516,27.860144809367
2516.25,27.7951893284629
2516.5,27.7302338475588
2516.75,27.6652783666547
2517,27.6003228857507
2517.25,27.5353674048466
2517.5,27.4704119239425
2517.75,27.4054564430384
2518,27.3405009621343
2518.25,27.2755454812303
2518.5,27.2105900003262
2518.75,27.1456345194221
2519,27.080679038518
2519.25,27.0157235576139
2519.5,26.9507680767099
2519.75,26.8858125958058
2520,26.8208571149017
2520.25,26.7559016339976
2520.5,26.6909461530935
2520.75,26.6259906721894
2521,26.6989106682756
2521.25,26.8637976582629
2521.5,27.0286846482502
2521.75,27.1935716382375
2522,27.3584586282248
2522.25,27.523345618212
2522.5,27.6882326081993
2522.75,27.8531195981866
2523,28.0180065881739
2523.25,28.1828935781612
2523.5,28.3477805681485
2523.75,28.5126675581357
2524,28.677554548123
2524.25,28.8424415381103
2524.5,29.0073285280976
2524.75,29.1722155180849
2525,29.3371025080721
2525.25,29.5019894980594
2525.5,29.6668764880467
2525.75,29.831763478034
2526,29.935145624735
2526.25,29.9951045301849
2526.5,30.0550634356348
2526.75,30.1150223410848
2527,30.1749812465347
2527.25,30.2349401519846
2527.5,30.2948990574345
2527.75,30.3548579628844
2528,30.4148168683343
2528.25,30.4747757737843
2528.5,30.5347346792342
2528.75,30.5946935846841
2529,30.654652490134
2529.25,30.7146113955839
2529.5,30.7745703010339
2529.75,30.8345292064838
2530,30.8944881119337
2530.25,30.9544470173837
2530.5,31.0144059228335
2530.75,31.0743648282835
2531,31.1228824891556
2531.25,31.1628550927889
2531.5,31.2028276964222
2531.75,31.2428003000554
2532,31.2827729036887
2532.25,31.322745507322
2532.5,31.3627181109553
2532.75,31.4026907145886
2533,31.4426633182218
2533.25,31.4826359218551
2533.5,31.5226085254884
2533.75,31.5625811291217
2534,31.602553732755
2534.25,31.6425263363883
2534.5,31.6824989400215
2534.75,31.7224715436548
2535,31.7624441472881
2535.25,31.8024167509214
2535.5,31.8423893545547
2535.75,31.8823619581879
2536,31.8581226965853
2536.25,31.7831740647729
2536.5,31.7082254329604
2536.75,31.633276801148
2537,31.5583281693356
2537.25,31.4833795375233
2537.5,31.4084309057109
2537.75,31.3334822738984
2538,31.258533642086
2538.25,31.1835850102736
2538.5,31.1086363784613
2538.75,31.0336877466489
2539,30.9587391148365
2539.25,30.883790483024
2539.5,30.8088418512116
2539.75,30.7338932193993
2540,30.6589445875869
2540.25,30.5839959557745
2540.5,30.509047323962
2540.75,30.4340986921496
2541,30.3319167672287
2541.25,30.2070023808748
2541.5,30.0820879945208
2541.75,29.9571736081667
2542,29.8322592218127
2542.25,29.7073448354587
2542.5,29.5824304491048
2542.75,29.4575160627508
2543,29.3326016763968
2543.25,29.2076872900427
2543.5,29.0827729036887
2543.75,28.9578585173347
2544,28.8329441309808
2544.25,28.7080297446268
2544.5,28.5831153582727
2544.75,28.4582009719187
2545,28.3332865855647
2545.25,28.2083721992108
2545.5,28.0834578128568
2545.75,27.9585434265028
2546,27.9345128991227
2546.25,27.9994683800267
2546.5,28.0644238609308
2546.75,28.1293793418349
2547,28.194334822739
2547.25,28.2592903036431
2547.5,28.3242457845471
2547.75,28.3892012654512
2548,28.4541567463553
2548.25,28.5191122272594
2548.5,28.5840677081635
2548.75,28.6490231890675
2549,28.7139786699716
2549.25,28.7789341508757
2549.5,28.8438896317798
2549.75,28.9088451126838
2550,28.9738005935879
2550.25,29.038756074492
2550.5,29.1037115553961
2550.75,29.1686670363002
2551,29.2439679071132
2551.25,29.328909689834
2551.5,29.4138514725547
2551.75,29.4987932552754
2552,29.5837350379961
2552.25,29.6686768207168
2552.5,29.7536186034376
2552.75,29.8385603861583
2553,29.923502168879
2553.25,30.0084439515998
2553.5,30.0933857343204
2553.75,30.1783275170412
2554,30.2632692997619
2554.25,30.3482110824826
2554.5,30.4331528652034
2554.75,30.518094647924
2555,30.6030364306448
2555.25,30.6879782133655
2555.5,30.7729199960862
2555.75,30.857861778807
2556,30.8647500081537
2556.25,30.7947979517955
2556.5,30.7248458954372
2556.75,30.654893839079
2557,30.5849417827207
2557.25,30.5149897263625
2557.5,30.4450376700043
2557.75,30.375085613646
2558,30.3051335572878
2558.25,30.2351815009295
2558.5,30.1652294445713
2558.75,30.0952773882131
2559,30.0253253318548
2559.25,29.9553732754966
2559.5,29.8854212191383
2559.75,29.8154691627801
2560,29.7455171064218
2560.25,29.6755650500636
2560.5,29.6056129937054
2560.75,29.5356609373471
2561,29.4240696650468
2561.25,29.2691758259678
2561.5,29.114281986889
2561.75,28.95938814781
2562,28.804494308731
2562.25,28.649600469652
2562.5,28.494706630573
2562.75,28.339812791494
2563,28.1849189524152
2563.25,28.0300251133362
2563.5,27.8751312742572
2563.75,27.7202374351782
2564,27.5653435960992
2564.25,27.4104497570204
2564.5,27.2555559179414
2564.75,27.1006620788624
2565,26.9457682397834
2565.25,26.7908744007045
2565.5,26.6359805616256
2565.75,26.4810867225466
2566,26.3595251296435
2566.25,26.2745833469228
2566.5,26.1896415642021
2566.75,26.1046997814813
2567,26.0197579987607
2567.25,25.9348162160399
2567.5,25.8498744333192
2567.75,25.7649326505985
2568,25.6799908678777
2568.25,25.5950490851571
2568.5,25.5101073024364
2568.75,25.4251655197156
2569,25.3402237369949
2569.25,25.2552819542742
2569.5,25.1703401715534
2569.75,25.0853983888328
2570,25.000456606112
2570.25,24.9155148233913
2570.5,24.8305730406706
2570.75,24.7456312579498
2571,24.7693715143015
2571.25,24.9192687779263
2571.5,25.0691660415511
2571.75,25.219063305176
2572,25.3689605688008
2572.25,25.5188578324255
2572.5,25.6687550960503
2572.75,25.8186523596751
2573,25.9685496232999
2573.25,26.1184468869248
2573.5,26.2683441505496
2573.75,26.4182414141743
2574,26.5681386777991
2574.25,26.7180359414239
2574.5,26.8679332050488
2574.75,27.0178304686736
2575,27.1677277322983
2575.25,27.3176249959231
2575.5,27.4675222595479
2575.75,27.6174195231727
2576,27.7471217507583
2576.25,27.8520498352957
2576.5,27.956977919833
2576.75,28.0619060043703
2577,28.1668340889077
2577.25,28.2717621734451
2577.5,28.3766902579825
2577.75,28.4816183425198
2578,28.5865464270571
2578.25,28.6914745115945
2578.5,28.7964025961319
2578.75,28.9013306806693
2579,29.0062587652066
2579.25,29.1111868497439
2579.5,29.2161149342813
2579.75,29.3210430188187
2580,29.4259711033561
2580.25,29.5308991878934
2580.5,29.6358272724307
2580.75,29.7407553569681
2581,29.8174032158116
2581.25,29.8573758194449
2581.5,29.8973484230782
2581.75,29.9373210267114
2582,29.9772936303447
2582.25,30.017266233978
2582.5,30.0572388376113
2582.75,30.0972114412446
2583,30.1371840448779
2583.25,30.1771566485111
2583.5,30.2171292521444
2583.75,30.2571018557777
2584,30.297074459411
2584.25,30.3370470630443
2584.5,30.3770196666775
2584.75,30.4169922703108
2585,30.4569648739441
2585.25,30.4969374775774
2585.5,30.5369100812107
2585.75,30.576882684844
2586,30.5957861778807
2586.25,30.5857930269724
2586.5,30.5757998760641
2586.75,30.5658067251557
2587,30.5558135742474
2587.25,30.5458204233391
2587.5,30.5358272724308
2587.75,30.5258341215225
2588,30.5158409706141
2588.25,30.5058478197058
2588.5,30.4958546687975
2588.75,30.4858615178892
2589,30.4758683669809
2589.25,30.4658752160725
2589.5,30.4558820651642
2589.75,30.4458889142559
2590,30.4358957633476
2590.25,30.4259026124393
2590.5,30.4159094615309
2590.75,30.4059163106226
2591,30.4
2591.25,30.4
2591.5,30.4
2591.75,30.4
2592,30.4
2592.25,30.4
2592.5,30.4
2592.75,30.4
2593,30.4
2593.25,30.4
2593.5,30.4
2593.75,30.4
2594,30.4
2594.25,30.4
2594.5,30.4
2594.75,30.4
2595,30.4
2595.25,30.4
2595.5,30.4
2595.75,30.4
2596,30.4078797169042
2596.25,30.4278660187208
2596.5,30.4478523205375
2596.75,30.4678386223541
2597,30.4878249241708
2597.25,30.5078112259874
2597.5,30.5277975278041
2597.75,30.5477838296207
2598,30.5677701314373
2598.25,30.587756433254
2598.5,30.6077427350706
2598.75,30.6277290368872
2599,30.6477153387039
2599.25,30.6677016405205
2599.5,30.6876879423372
2599.75,30.7076742441538
2600,30.7276605459704
2600.25,30.7476468477871
2600.5,30.7676331496037
2600.75,30.7876194514204
2601,30.8190143830925
2601.25,30.8689801376341
2601.5,30.9189458921757
2601.75,30.9689116467173
2602,31.0188774012589
2602.25,31.0688431558005
2602.5,31.1188089103421
2602.75,31.1687746648837
2603,31.2187404194253
2603.25,31.2687061739669
2603.5,31.3186719285085
2603.75,31.3686376830501
2604,31.4186034375917
2604.25,31.4685691921333
2604.5,31.5185349466749
2604.75,31.5685007012165
2605,31.6184664557581
2605.25,31.6684322102997
2605.5,31.7183979648413
2605.75,31.7683637193829
2606,31.7816705260755
2606.25,31.7317047715339
2606.5,31.6817390169923
2606.75,31.6317732624507
2607,31.5818075079091
2607.25,31.5318417533675
2607.5,31.4818759988259
2607.75,31.4319102442843
2608,31.3819444897427
2608.25,31.3319787352011
2608.5,31.2820129806595
2608.75,31.2320472261179
2609,31.1820814715763
2609.25,31.1321157170347
2609.5,31.0821499624931
2609.75,31.0321842079515
2610,30.9822184534099
2610.25,30.9322526988683
2610.5,30.8822869443267
2610.75,30.8323211897851
2611,30.8176445647565
2611.25,30.8676103192981
2611.5,30.9175760738397
2611.75,30.9675418283813
2612,31.0175075829229
2612.25,31.0674733374645
2612.5,31.1174390920061
2612.75,31.1674048465477
2613,31.2173706010893
2613.25,31.2673363556309
2613.5,31.3173021101725
2613.75,31.3672678647141
2614,31.4172336192557
2614.25,31.4671993737973
2614.5,31.5171651283389
2614.75,31.5671308828805
2615,31.6170966374221
2615.25,31.6670623919637
2615.5,31.7170281465053
2615.75,31.7669939010469
2616,31.811871758912
2616.25,31.8468477870911
2616.5,31.8818238152702
2616.75,31.9167998434493
2617,31.9517758716284
2617.25,31.9867518998076
2617.5,32.0217279279867
2617.75,32.0567039561658
2618,32.0916799843449
2618.25,32.1266560125241
2618.5,32.1616320407032
2618.75,32.1966080688823
2619,32.2315840970614
2619.25,32.2665601252405
2619.5,32.3015361534197
2619.75,32.3365121815988
2620,32.3714882097779
2620.25,32.406464237957
2620.5,32.4414402661361
2620.75,32.4764162943153
2621,32.5081373732103
2621.25,32.5331202504811
2621.5,32.5581031277519
2621.75,32.5830860050227
2622,32.6080688822935
2622.25,32.6330517595643
2622.5,32.6580346368351
2622.75,32.6830175141059
2623,32.7080003913767
2623.25,32.7329832686475
2623.5,32.7579661459183
2623.75,32.7829490231891
2624,32.8079319004599
2624.25,32.8329147777307
2624.5,32.8578976550015
2624.75,32.8828805322723
2625,32.9078634095431
2625.25,32.9328462868139
2625.5,32.9578291640847
2625.75,32.9828120413555
2626,32.9766152441212
2626.25,32.9016666123088
2626.5,32.8267179804964
2626.75,32.751769348684
2627,32.6768207168716
2627.25,32.6018720850592
2627.5,32.5269234532468
2627.75,32.4519748214344
2628,32.377026189622
2628.25,32.3020775578096
2628.5,32.2271289259972
2628.75,32.1521802941848
2629,32.0772316623724
2629.25,32.00228303056
2629.5,31.9273343987476
2629.75,31.8523857669352
2630,31.7774371351228
2630.25,31.7024885033104
2630.5,31.627539871498
2630.75,31.5525912396856
2631,31.4865855647239
2631.25,31.4416163856365
2631.5,31.396647206549
2631.75,31.3516780274616
2632,31.3067088483742
2632.25,31.2617396692867
2632.5,31.2167704901993
2632.75,31.1718013111118
2633,31.1268321320244
2633.25,31.081862952937
2633.5,31.0368937738495
2633.75,30.9919245947621
2634,30.9469554156746
2634.25,30.9019862365872
2634.5,30.8570170574997
2634.75,30.8120478784123
2635,30.7670786993249
2635.25,30.7221095202374
2635.5,30.67714034115
2635.75,30.6321711620625
2636,30.5800919735169
2636.25,30.5101399171586
2636.5,30.4401878608004
2636.75,30.3702358044421
2637,30.3002837480839
2637.25,30.2303316917257
2637.5,30.1603796353674
2637.75,30.0904275790092
2638,30.0204755226509
2638.25,29.9505234662927
2638.5,29.8805714099344
2638.75,29.8106193535762
2639,29.740667297218
2639.25,29.6707152408597
2639.5,29.6007631845015
2639.75,29.5308111281432
2640,29.460859071785
2640.25,29.3909070154268
2640.5,29.3209549590685
2640.75,29.2510029027103
2641,29.190525423176
2641.25,29.1555493949969
2641.5,29.1205733668178
2641.75,29.0855973386387
2642,29.0506213104595
2642.25,29.0156452822804
2642.5,28.9806692541013
2642.75,28.9456932259222
2643,28.9107171977431
2643.25,28.8757411695639
2643.5,28.8407651413848
2643.75,28.8057891132057
2644,28.7708130850266
2644.25,28.7358370568475
2644.5,28.7008610286683
2644.75,28.6658850004892
2645,28.6309089723101
2645.25,28.595932944131
2645.5,28.5609569159519
2645.75,28.5259808877728
2646,28.5077101203483
2646.25,28.5376895730733
2646.5,28.5676690257982
2646.75,28.5976484785232
2647,28.6276279312482
2647.25,28.6576073839731
2647.5,28.6875868366981
2647.75,28.717566289423
2648,28.747545742148
2648.25,28.777525194873
2648.5,28.8075046475979
2648.75,28.8374841003229
2649,28.8674635530478
2649.25,28.8974430057728
2649.5,28.9274224584978
2649.75,28.9574019112227
2650,28.9873813639477
2650.25,29.0173608166726
2650.5,29.0473402693976
2650.75,29.0773197221225
2651,29.1279801702488
2651.25,29.2429014056945
2651.5,29.3578226411402
2651.75,29.4727438765859
2652,29.5876651120316
2652.25,29.7025863474772
2652.5,29.8175075829229
2652.75,29.9324288183686
2653,30.0473500538143
2653.25,30.16227128926
2653.5,30.2771925247056
2653.75,30.3921137601513
2654,30.507034995597
2654.25,30.6219562310427
2654.5,30.7368774664884
2654.75,30.8517987019341
2655,30.9667199373797
2655.25,31.0816411728254
2655.5,31.1965624082711
2655.75,31.3114836437168
2656,31.425256840938
2656.25,31.5351815009295
2656.5,31.645106160921
2656.75,31.7550308209125
2657,31.8649554809041
2657.25,31.9748801408956
2657.5,32.0848048008871
2657.75,32.1947294608786
2658,32.3046541208701
2658.25,32.4145787808617
2658.5,32.5245034408532
2658.75,32.6344281008447
2659,32.7443527608362
2659.25,32.8542774208277
2659.5,32.9642020808193
2659.75,33.0741267408108
2660,33.1840514008023
2660.25,33.2939760607938
2660.5,33.4039007207853
2660.75,33.5138253807769
2661,33.6021590946153
2661.25,33.6121522455236
2661.5,33.622145396432
2661.75,33.6321385473403
2662,33.6421316982486
2662.25,33.6521248491569
2662.5,33.6621180000652
2662.75,33.6721111509735
2663,33.6821043018819
2663.25,33.6920974527902
2663.5,33.7020906036985
2663.75,33.7120837546068
2664,33.7220769055152
2664.25,33.7320700564235
2664.5,33.7420632073318
2664.75,33.7520563582401
2665,33.7620495091484
2665.25,33.7720426600567
2665.5,33.7820358109651
2665.75,33.7920289618734
2666,33.8040442255634
2666.25,33.8240305273801
2666.5,33.8440168291967
2666.75,33.8640031310133
2667,33.88398943283
2667.25,33.9039757346466
2667.5,33.9239620364633
2667.75,33.9439483382799
2668,33.9639346400965
2668.25,33.9839209419132
2668.5,34.0039072437298
2668.75,34.0238935455465
2669,34.0438798473631
2669.25,34.0638661491797
2669.5,34.0838524509964
2669.75,34.103838752813
2670,34.1238250546297
2670.25,34.1438113564463
2670.5,34.1637976582629
2670.75,34.1837839600796
2671,34.2103682202146
2671.25,34.2653305502103
2671.5,34.3202928802061
2671.75,34.3752552102019
2672,34.4302175401976
2672.25,34.4851798701934
2672.5,34.5401422001891
2672.75,34.5951045301849
2673,34.6500668601807
2673.25,34.7050291901764
2673.5,34.7599915201722
2673.75,34.814953850168
2674,34.8699161801637
2674.25,34.9248785101595
2674.5,34.9798408401552
2674.75,35.034803170151
2675,35.0897655001468
2675.25,35.1447278301425
2675.5,35.1996901601383
2675.75,35.254652490134
2676,35.2938814780992
2676.25,35.2589054499201
2676.5,35.223929421741
2676.75,35.1889533935619
2677,35.1539773653827
2677.25,35.1190013372036
2677.5,35.0840253090245
2677.75,35.0490492808454
2678,35.0140732526663
2678.25,34.9790972244871
2678.5,34.944121196308
2678.75,34.9091451681289
2679,34.8741691399498
2679.25,34.8391931117707
2679.5,34.8042170835915
2679.75,34.7692410554124
2680,34.7342650272333
2680.25,34.6992889990542
2680.5,34.664312970875
2680.75,34.629336942696
2681,34.5975832490786
2681.25,34.5825935227162
2681.5,34.5676037963537
2681.75,34.5526140699912
2682,34.5376243436287
2682.25,34.5226346172662
2682.5,34.5076448909038
2682.75,34.4926551645413
2683,34.4776654381788
2683.25,34.4626757118163
2683.5,34.4476859854538
2683.75,34.4326962590914
2684,34.4177065327289
2684.25,34.4027168063664
2684.5,34.3877270800039
2684.75,34.3727373536414
2685,34.357747627279
2685.25,34.3427579009165
2685.5,34.327768174554
2685.75,34.3127784481915
2686,34.2948403509344
2686.25,34.2598643227553
2686.5,34.2248882945762
2686.75,34.1899122663971
2687,34.1549362382179
2687.25,34.1199602100388
2687.5,34.0849841818597
2687.75,34.0500081536806
2688,34.0150321255015
2688.25,33.9800560973223
2688.5,33.9450800691432
2688.75,33.9101040409641
2689,33.875128012785
2689.25,33.8401519846059
2689.5,33.8051759564267
2689.75,33.7701999282476
2690,33.7352239000685
2690.25,33.7002478718894
2690.5,33.6652718437103
2690.75,33.6302958155311
2691,33.6060174162617
2691.25,33.6509865953492
2691.5,33.6959557744366
2691.75,33.740924953524
2692,33.7858941326115
2692.25,33.8308633116989
2692.5,33.8758324907864
2692.75,33.9208016698738
2693,33.9657708489612
2693.25,34.0107400280487
2693.5,34.0557092071361
2693.75,34.1006783862235
2694,34.145647565311
2694.25,34.1906167443984
2694.5,34.2355859234859
2694.75,34.2805551025733
2695,34.3255242816607
2695.25,34.3704934607482
2695.5,34.4154626398356
2695.75,34.460431818923
2696,34.4873976713089
2696.25,34.3824695867715
2696.5,34.2775415022341
2696.75,34.1726134176967
2697,34.0676853331594
2697.25,33.9627572486221
2697.5,33.8578291640847
2697.75,33.7529010795473
2698,33.6479729950099
2698.25,33.5430449104726
2698.5,33.4381168259353
2698.75,33.3331887413979
2699,33.2282606568605
2699.25,33.1233325723231
2699.5,33.0184044877859
2699.75,32.9134764032485
2700,32.8085483187111
2700.25,32.7036202341737
2700.5,32.5986921496363
2700.75,32.493764065099
2701,32.3941521802942
2701.25,32.3391898502984
2701.5,32.2842275203027
2701.75,32.2292651903069
2702,32.1743028603111
2702.25,32.1193405303154
2702.5,32.0643782003196
2702.75,32.0094158703239
2703,31.9544535403281
2703.25,31.8994912103323
2703.5,31.8445288803366
2703.75,31.7895665503409
2704,31.7346042203451
2704.25,31.6796418903493
2704.5,31.6246795603535
2704.75,31.5697172303578
2705,31.5147549003621
2705.25,31.4597925703663
2705.5,31.4048302403705
2705.75,31.3498679103747
2706,31.2972212256613
2706.25,31.2672417729363
2706.5,31.2372623202114
2706.75,31.2072828674864
2707,31.1773034147614
