1147,26.8266894556929
1147.25,26.8017091769656
1147.5,26.6836444911911
1147.75,26.5587430975545
1148,26.4338417039179
1148.25,26.3089403102813
1148.5,26.1840389166447
1148.75,26.0591375230081
1149,25.9342361293715
1149.25,25.8093347357349
1149.5,25.6844333420983
1149.75,25.5595319484618
1150,25.4346305548252
1150.25,25.3097291611885
1150.5,25.1848277675519
1150.75,25.0599263739153
1151,24.9350249802787
1151.25,24.8101235866421
1151.5,24.6852221930055
1151.75,24.5603207993689
1152,24.4354194057323
1152.25,24.3105180120957
1152.5,24.249671312122
1152.75,24.1947146989219
1153,24.1397580857218
1153.25,24.0848014725217
1153.5,24.0298448593216
1153.75,23.9748882461215
1154,23.9199316329214
1154.25,23.8649750197213
1154.5,23.8100184065212
1154.75,23.755061793321
1155,23.700105180121
1155.25,23.6451485669209
1155.5,23.5901919537208
1155.75,23.5352353405206
1156,23.4802787273205
1156.25,23.4253221141204
1156.5,23.3703655009203
1156.75,23.3154088877202
1157,23.2604522745201
1157.25,23.20549566132
1157.5,23.2044964501709
1157.75,23.2094925059164
1158,23.2144885616618
1158.25,23.2194846174073
1158.5,23.2244806731528
1158.75,23.2294767288982
1159,23.2344727846437
1159.25,23.2394688403892
1159.5,23.2444648961346
1159.75,23.2494609518801
1160,23.2544570076256
1160.25,23.259453063371
1160.5,23.2644491191165
1160.75,23.269445174862
1161,23.2744412306074
1161.25,23.2794372863529
1161.5,23.2844333420983
1161.75,23.2894293978438
1162,23.2944254535893
1162.25,23.2994215093347
1162.5,23.366263476203
1162.75,23.441204312385
1163,23.5161451485669
1163.25,23.5910859847489
1163.5,23.6660268209309
1163.75,23.7409676571128
1164,23.8159084932948
1164.25,23.8908493294767
1164.5,23.9657901656587
1164.75,24.0407310018407
1165,24.1156718380226
1165.25,24.1906126742046
1165.5,24.2655535103865
1165.75,24.3404943465685
1166,24.4154351827505
1166.25,24.4903760189324
1166.5,24.5653168551144
1166.75,24.6402576912963
1167,24.7151985274783
1167.25,24.7901393636603
1167.5,24.8780962398107
1167.75,24.968025243229
1168,25.0579542466474
1168.25,25.1478832500658
1168.5,25.2378122534841
1168.75,25.3277412569025
1169,25.4176702603208
1169.25,25.5075992637392
1169.5,25.5975282671575
1169.75,25.6874572705759
1170,25.7773862739942
1170.25,25.8673152774126
1170.5,25.9572442808309
1170.75,26.0471732842493
1171,26.1371022876676
1171.25,26.227031291086
1171.5,26.3169602945043
1171.75,26.4068892979227
1172,26.4968183013411
1172.25,26.5867473047594
1172.5,26.5957402051012
1172.75,26.5907441493558
1173,26.5857480936103
1173.25,26.5807520378648
1173.5,26.5757559821194
1173.75,26.5707599263739
1174,26.5657638706285
1174.25,26.560767814883
1174.5,26.5557717591375
1174.75,26.5507757033921
1175,26.5457796476466
1175.25,26.5407835919011
1175.5,26.5357875361557
1175.75,26.5307914804102
1176,26.5257954246647
1176.25,26.5207993689193
1176.5,26.5158033131738
1176.75,26.5108072574283
1177,26.5058112016829
1177.25,26.5008151459374
1177.5,26.5125427294241
1177.75,26.5275308966605
1178,26.5425190638969
1178.25,26.5575072311333
1178.5,26.5724953983697
1178.75,26.5874835656061
1179,26.6024717328425
1179.25,26.6174599000789
1179.5,26.6324480673153
1179.75,26.6474362345517
1180,26.6624244017881
1180.25,26.6774125690245
1180.5,26.6924007362608
1180.75,26.7073889034972
1181,26.7223770707336
1181.25,26.73736523797
1181.5,26.7523534052064
1181.75,26.7673415724428
1182,26.7823297396792
1182.25,26.7973179069156
1182.5,26.824612148304
1182.75,26.8545884827768
1183,26.8845648172495
1183.25,26.9145411517223
1183.5,26.9445174861951
1183.75,26.9744938206679
1184,27.0044701551407
1184.25,27.0344464896135
1184.5,27.0644228240863
1184.75,27.094399158559
1185,27.1243754930318
1185.25,27.1543518275046
1185.5,27.1843281619774
1185.75,27.2143044964502
1186,27.244280830923
1186.25,27.2742571653957
1186.5,27.3042334998685
1186.75,27.3342098343413
1187,27.3641861688141
1187.25,27.3941625032869
1187.5,27.4523008151459
1187.75,27.517249539837
1188,27.582198264528
1188.25,27.647146989219
1188.5,27.7120957139101
1188.75,27.7770444386011
1189,27.8419931632921
1189.25,27.9069418879832
1189.5,27.9718906126742
1189.75,28.0368393373653
1190,28.1017880620563
1190.25,28.1667367867473
1190.5,28.2316855114384
1190.75,28.2966342361294
1191,28.3615829608204
1191.25,28.4265316855114
1191.5,28.4914804102025
1191.75,28.5564291348935
1192,28.6213778595845
1192.25,28.6863265842756
1192.5,28.625059163818
1192.75,28.5301341046542
1193,28.4352090454904
1193.25,28.3402839863266
1193.5,28.2453589271628
1193.75,28.1504338679989
1194,28.0555088088351
1194.25,27.9605837496713
1194.5,27.8656586905075
1194.75,27.7707336313437
1195,27.6758085721798
1195.25,27.580883513016
1195.5,27.4859584538522
1195.75,27.3910333946884
1196,27.2961083355246
1196.25,27.2011832763608
1196.5,27.106258217197
1196.75,27.0113331580331
1197,26.9164080988693
1197.25,26.8214830397055
1197.5,26.8927688666842
1197.75,27.0126742045753
1198,27.1325795424665
1198.25,27.2524848803576
1198.5,27.3723902182488
1198.75,27.4922955561399
1199,27.612200894031
1199.25,27.7321062319222
1199.5,27.8520115698133
1199.75,27.9719169077045
1200,28.0918222455956
1200.25,28.2117275834868
1200.5,28.3316329213779
1200.75,28.451538259269
1201,28.5714435971601
1201.25,28.6913489350513
1201.5,28.8112542729424
1201.75,28.9311596108335
1202,29.0510649487247
1202.25,29.1709702866158
1202.5,29.1166973442019
1202.75,29.0067841178017
1203,28.8968708914015
1203.25,28.7869576650013
1203.5,28.6770444386011
1203.75,28.5671312122009
1204,28.4572179858007
1204.25,28.3473047594005
1204.5,28.2373915330002
1204.75,28.1274783066
1205,28.0175650801998
1205.25,27.9076518537996
1205.5,27.7977386273994
1205.75,27.6878254009992
1206,27.577912174599
1206.25,27.4679989481988
1206.5,27.3580857217986
1206.75,27.2481724953984
1207,27.1382592689982
1207.25,27.0283460425979
1207.5,27
1207.75,27
1208,27
1208.25,27
1208.5,27
1208.75,27
1209,27
1209.25,27
1209.5,27
1209.75,27
1210,27
1210.25,27
1210.5,27
1210.75,27
1211,27
1211.25,27
1211.5,27
1211.75,27
1212,27
1212.25,27
1212.5,26.9383118590586
1212.75,26.8533789113857
1213,26.7684459637129
1213.25,26.68351301604
1213.5,26.5985800683671
1213.75,26.5136471206942
1214,26.4287141730213
1214.25,26.3437812253484
1214.5,26.2588482776755
1214.75,26.1739153300026
1215,26.0889823823297
1215.25,26.0040494346568
1215.5,25.9191164869839
1215.75,25.834183539311
1216,25.7492505916382
1216.25,25.6643176439653
1216.5,25.5793846962924
1216.75,25.4944517486195
1217,25.4095188009466
1217.25,25.3245858532737
1217.5,25.2822508545885
1217.75,25.2572705758612
1218,25.2322902971338
1218.25,25.2073100184065
1218.5,25.1823297396792
1218.75,25.1573494609519
1219,25.1323691822246
1219.25,25.1073889034972
1219.5,25.0824086247699
1219.75,25.0574283460426
1220,25.0324480673153
1220.25,25.007467788588
1220.5,24.9824875098606
1220.75,24.9575072311333
1221,24.932526952406
1221.25,24.9075466736787
1221.5,24.8825663949514
1221.75,24.857586116224
1222,24.8326058374967
1222.25,24.8076255587694
1222.5,24.8104128319748
1222.75,24.8254009992112
1223,24.8403891664475
1223.25,24.8553773336839
1223.5,24.8703655009203
1223.75,24.8853536681567
1224,24.9003418353931
1224.25,24.9153300026295
1224.5,24.9303181698659
1224.75,24.9453063371023
1225,24.9602945043387
1225.25,24.9752826715751
1225.5,24.9902708388115
1225.75,25.0052590060479
1226,25.0202471732843
1226.25,25.0352353405206
1226.5,25.050223507757
1226.75,25.0652116749934
1227,25.0801998422298
1227.25,25.0951880094662
1227.5,25.150880883513
1227.75,25.225821719695
1228,25.3007625558769
1228.25,25.3757033920589
1228.5,25.4506442282409
1228.75,25.5255850644228
1229,25.6005259006048
1229.25,25.6754667367868
1229.5,25.7504075729687
1229.75,25.8253484091507
1230,25.9002892453326
1230.25,25.9752300815146
1230.5,26.0501709176966
1230.75,26.1251117538785
1231,26.2000525900605
1231.25,26.2749934262425
1231.5,26.3499342624244
1231.75,26.4248750986064
1232,26.4998159347883
1232.25,26.5747567709703
1232.5,26.5503023928478
1232.75,26.4753615566658
1233,26.4004207204838
1233.25,26.3254798843019
1233.5,26.2505390481199
1233.75,26.1755982119379
1234,26.100657375756
1234.25,26.025716539574
1234.5,25.9507757033921
1234.75,25.8758348672101
1235,25.8008940310281
1235.25,25.7259531948462
1235.5,25.6510123586642
1235.75,25.5760715224822
1236,25.5011306863003
1236.25,25.4261898501183
1236.5,25.3512490139363
1236.75,25.2763081777544
1237,25.2013673415725
1237.25,25.1264265053905
1237.5,25.1097028661583
1237.75,25.1246910333947
1238,25.1396792006311
1238.25,25.1546673678675
1238.5,25.1696555351039
1238.75,25.1846437023403
1239,25.1996318695767
1239.25,25.214620036813
1239.5,25.2296082040494
1239.75,25.2445963712858
1240,25.2595845385222
1240.25,25.2745727057586
1240.5,25.289560872995
1240.75,25.3045490402314
1241,25.3195372074678
1241.25,25.3345253747042
1241.5,25.3495135419406
1241.75,25.364501709177
1242,25.3794898764134
1242.25,25.3944780436497
1242.5,25.3905337891139
1242.75,25.3755456218775
1243,25.3605574546411
1243.25,25.3455692874047
1243.5,25.3305811201683
1243.75,25.3155929529319
1244,25.3006047856955
1244.25,25.2856166184591
1244.5,25.2706284512227
1244.75,25.2556402839863
1245,25.2406521167499
1245.25,25.2256639495135
1245.5,25.2106757822771
1245.75,25.1956876150408
1246,25.1806994478044
1246.25,25.165711280568
1246.5,25.1507231133316
1246.75,25.1357349460952
1247,25.1207467788588
1247.25,25.1057586116224
1247.5,25.133841703918
1247.75,25.1887983171181
1248,25.2437549303182
1248.25,25.2987115435183
1248.5,25.3536681567184
1248.75,25.4086247699185
1249,25.4635813831186
1249.25,25.5185379963187
1249.5,25.5734946095188
1249.75,25.6284512227189
1250,25.683407835919
1250.25,25.7383644491191
1250.5,25.7933210623192
1250.75,25.8482776755193
1251,25.9032342887194
1251.25,25.9581909019196
1251.5,26.0131475151197
1251.75,26.0681041283198
1252,26.1230607415199
1252.25,26.17801735472
1252.5,26.3738627399421
1252.75,26.6636339731791
1253,26.953405206416
1253.25,27.2431764396529
1253.5,27.5329476728898
1253.75,27.8227189061268
1254,28.1124901393637
1254.25,28.4022613726006
1254.5,28.6920326058375
1254.75,28.9818038390745
1255,29.2715750723114
1255.25,29.5613463055483
1255.5,29.8511175387852
1255.75,30.1408887720221
1256,30.4306600052591
1256.25,30.720431238496
1256.5,31.0102024717329
1256.75,31.2999737049698
1257,31.5897449382068
1257.25,31.8795161714436
1257.5,32.0642124638443
1257.75,32.1741256902445
1258,32.2840389166447
1258.25,32.393952143045
1258.5,32.5038653694452
1258.75,32.6137785958454
1259,32.7236918222456
1259.25,32.8336050486458
1259.5,32.943518275046
1259.75,33.0534315014462
1260,33.1633447278465
1260.25,33.2732579542467
1260.5,33.3831711806469
1260.75,33.4930844070471
1261,33.6029976334473
1261.25,33.7129108598475
1261.5,33.8228240862477
1261.75,33.9327373126479
1262,34.0426505390482
1262.25,34.1525637654484
1262.5,34.2113594530634
1262.75,34.2313436760452
1263,34.2513278990271
1263.25,34.2713121220089
1263.5,34.2912963449908
1263.75,34.3112805679727
1264,34.3312647909545
1264.25,34.3512490139364
1264.5,34.3712332369182
1264.75,34.3912174599001
1265,34.4112016828819
1265.25,34.4311859058638
1265.5,34.4511701288457
1265.75,34.4711543518275
1266,34.4911385748094
1266.25,34.5111227977912
1266.5,34.5311070207731
1266.75,34.5510912437549
1267,34.5710754667368
1267.25,34.5910596897186
1267.5,34.5226926110965
1267.75,34.3828030502235
1268,34.2429134893505
1268.25,34.1030239284775
1268.5,33.9631343676045
1268.75,33.8232448067315
1269,33.6833552458585
1269.25,33.5434656849855
1269.5,33.4035761241125
1269.75,33.2636865632395
1270,33.1237970023665
1270.25,32.9839074414935
1270.5,32.8440178806205
1270.75,32.7041283197475
1271,32.5642387588745
1271.25,32.4243491980015
1271.5,32.2844596371285
1271.75,32.1445700762555
1272,32.0046805153826
1272.25,31.8647909545096
1272.5,31.8053641861688
1272.75,31.8153562976597
1273,31.8253484091507
1273.25,31.8353405206416
1273.5,31.8453326321325
1273.75,31.8553247436235
1274,31.8653168551144
1274.25,31.8753089666053
1274.5,31.8853010780962
1274.75,31.8952931895872
1275,31.9052853010781
1275.25,31.915277412569
1275.5,31.92526952406
1275.75,31.9352616355509
1276,31.9452537470418
1276.25,31.9552458585327
1276.5,31.9652379700237
1276.75,31.9752300815146
1277,31.9852221930055
1277.25,31.9952143044965
1277.5,31.9687615040757
1277.75,31.9088088351302
1278,31.8488561661846
1278.25,31.788903497239
1278.5,31.7289508282935
1278.75,31.6689981593479
1279,31.6090454904023
1279.25,31.5490928214567
1279.5,31.4891401525112
1279.75,31.4291874835656
1280,31.36923481462
1280.25,31.3092821456745
1280.5,31.2493294767289
1280.75,31.1893768077833
1281,31.1294241388377
1281.25,31.0694714698922
1281.5,31.0095188009466
1281.75,30.949566132001
1282,30.8896134630555
1282.25,30.8296607941099
1282.5,30.7873783854851
1282.75,30.7623981067578
1283,30.7374178280305
1283.25,30.7124375493032
1283.5,30.6874572705759
1283.75,30.6624769918485
1284,30.6374967131212
1284.25,30.6125164343939
1284.5,30.5875361556666
1284.75,30.5625558769393
1285,30.5375755982119
1285.25,30.5125953194846
1285.5,30.4876150407573
1285.75,30.46263476203
1286,30.4376544833027
1286.25,30.4126742045753
1286.5,30.387693925848
1286.75,30.3627136471207
1287,30.3377333683934
1287.25,30.312753089666
1287.5,30.1777281093873
1287.75,29.927925322114
1288,29.6781225348409
1288.25,29.4283197475677
1288.5,29.1785169602945
1288.75,28.9287141730213
1289,28.6789113857481
1289.25,28.4291085984749
1289.5,28.1793058112017
1289.75,27.9295030239285
1290,27.6797002366553
1290.25,27.429897449382
1290.5,27.1800946621088
1290.75,26.9302918748356
1291,26.6804890875624
1291.25,26.4306863002892
1291.5,26.180883513016
1291.75,25.9310807257428
1292,25.6812779384696
1292.25,25.4314751511964
1292.5,25.2834341309492
1292.75,25.248461740731
1293,25.2134893505127
1293.25,25.1785169602945
1293.5,25.1435445700763
1293.75,25.108572179858
1294,25.0735997896398
1294.25,25.0386273994215
1294.5,25.0036550092033
1294.75,24.968682618985
1295,24.9337102287668
1295.25,24.8987378385485
1295.5,24.8637654483303
1295.75,24.828793058112
1296,24.7938206678938
1296.25,24.7588482776755
1296.5,24.7238758874573
1296.75,24.688903497239
1297,24.6539311070208
1297.25,24.6189587168025
1297.5,24.6045753352616
1297.75,24.6145674467526
1298,24.6245595582435
1298.25,24.6345516697344
1298.5,24.6445437812253
1298.75,24.6545358927163
1299,24.6645280042072
1299.25,24.6745201156981
1299.5,24.6845122271891
1299.75,24.69450433868
1300,24.7044964501709
1300.25,24.7144885616618
1300.5,24.7244806731528
1300.75,24.7344727846437
1301,24.7444648961346
1301.25,24.7544570076256
1301.5,24.7644491191165
1301.75,24.7744412306074
1302,24.7844333420983
1302.25,24.7944254535893
1302.5,24.8463844333421
1302.75,24.9513016039969
1303,25.0562187746516
1303.25,25.1611359453064
1303.5,25.2660531159611
1303.75,25.3709702866158
1304,25.4758874572706
1304.25,25.5808046279253
1304.5,25.6857217985801
1304.75,25.7906389692348
1305,25.8955561398896
1305.25,26.0004733105443
1305.5,26.1053904811991
1305.75,26.2103076518538
1306,26.3152248225086
1306.25,26.4201419931633
1306.5,26.5250591638181
1306.75,26.6299763344728
1307,26.7348935051276
1307.25,26.8398106757823
1307.5,26.9596371285827
1307.75,27.0995266894557
1308,27.2394162503287
1308.25,27.3793058112017
1308.5,27.5191953720747
1308.75,27.6590849329477
1309,27.7989744938207
1309.25,27.9388640546937
1309.5,28.0787536155667
1309.75,28.2186431764397
1310,28.3585327373127
1310.25,28.4984222981856
1310.5,28.6383118590586
1310.75,28.7782014199316
1311,28.9180909808046
1311.25,29.0579805416776
1311.5,29.1978701025506
1311.75,29.3377596634236
1312,29.4776492242966
1312.25,29.6175387851696
1312.5,29.7082040494347
1312.75,29.7281882724165
1313,29.7481724953984
1313.25,29.7681567183802
1313.5,29.7881409413621
1313.75,29.8081251643439
1314,29.8281093873258
1314.25,29.8480936103077
1314.5,29.8680778332895
1314.75,29.8880620562714
1315,29.9080462792532
1315.25,29.9280305022351
1315.5,29.9480147252169
1315.75,29.9679989481988
1316,29.9879831711807
1316.25,30.0079673941625
1316.5,30.0279516171444
1316.75,30.0479358401262
1317,30.0679200631081
1317.25,30.0879042860899
1317.5,30.0566132001052
1317.75,29.9466999737049
1318,29.8367867473047
1318.25,29.7268735209045
1318.5,29.6169602945043
1318.75,29.5070470681041
1319,29.3971338417039
1319.25,29.2872206153037
1319.5,29.1773073889035
1319.75,29.0673941625033
1320,28.9574809361031
1320.25,28.8475677097029
1320.5,28.7376544833026
1320.75,28.6277412569024
1321,28.5178280305022
1321.25,28.407914804102
1321.5,28.2980015777018
1321.75,28.1880883513016
1322,28.0781751249014
1322.25,27.9682618985012
1322.5,27.924612148304
1322.75,27.989560872995
1323,28.0545095976861
1323.25,28.1194583223771
1323.5,28.1844070470681
1323.75,28.2493557717592
1324,28.3143044964502
1324.25,28.3792532211412
1324.5,28.4442019458322
1324.75,28.5091506705233
1325,28.5740993952143
1325.25,28.6390481199053
1325.5,28.7039968445964
1325.75,28.7689455692874
1326,28.8338942939784
1326.25,28.8988430186695
1326.5,28.9637917433605
1326.75,29.0287404680515
1327,29.0936891927426
1327.25,29.1586379174336
1327.5,29.2054430712595
1327.75,29.2204312384959
1328,29.2354194057323
1328.25,29.2504075729687
1328.5,29.2653957402051
1328.75,29.2803839074415
1329,29.2953720746779
1329.25,29.3103602419143
1329.5,29.3253484091507
1329.75,29.3403365763871
1330,29.3553247436235
1330.25,29.3703129108598
1330.5,29.3853010780962
1330.75,29.4002892453326
1331,29.415277412569
1331.25,29.4302655798054
1331.5,29.4452537470418
1331.75,29.4602419142782
1332,29.4752300815146
1332.25,29.490218248751
1332.5,29.4774388640547
1332.75,29.4124901393636
1333,29.3475414146726
1333.25,29.2825926899816
1333.5,29.2176439652905
1333.75,29.1526952405995
1334,29.0877465159085
1334.25,29.0227977912175
1334.5,28.9578490665264
1334.75,28.8929003418354
1335,28.8279516171444
1335.25,28.7630028924533
1335.5,28.6980541677623
1335.75,28.6331054430713
1336,28.5681567183802
1336.25,28.5032079936892
1336.5,28.4382592689982
1336.75,28.3733105443071
1337,28.3083618196161
1337.25,28.243413094925
1337.5,28.2115961083355
1337.75,28.2465684985538
1338,28.281540888772
1338.25,28.3165132789903
1338.5,28.3514856692085
1338.75,28.3864580594268
1339,28.421430449645
1339.25,28.4564028398633
1339.5,28.4913752300815
1339.75,28.5263476202998
1340,28.561320010518
1340.25,28.5962924007363
1340.5,28.6312647909545
1340.75,28.6662371811728
1341,28.701209571391
1341.25,28.7361819616093
1341.5,28.7711543518275
1341.75,28.8061267420458
1342,28.841099132264
1342.25,28.8760715224823
1342.5,28.8936891927426
1342.75,28.8737049697607
1343,28.8537207467789
1343.25,28.833736523797
1343.5,28.8137523008151
1343.75,28.7937680778333
1344,28.7737838548514
1344.25,28.7537996318696
1344.5,28.7338154088877
1344.75,28.7138311859059
1345,28.693846962924
1345.25,28.6738627399422
1345.5,28.6538785169603
1345.75,28.6338942939784
1346,28.6139100709966
1346.25,28.5939258480147
1346.5,28.5739416250329
1346.75,28.553957402051
1347,28.5339731790692
1347.25,28.5139889560873
1347.5,28.5194846174073
1347.75,28.5844333420984
1348,28.6493820667894
1348.25,28.7143307914804
1348.5,28.7792795161715
1348.75,28.8442282408625
1349,28.9091769655535
1349.25,28.9741256902446
1349.5,29.0390744149356
1349.75,29.1040231396266
1350,29.1689718643176
1350.25,29.2339205890087
1350.5,29.2988693136997
1350.75,29.3638180383907
1351,29.4287667630818
1351.25,29.4937154877728
1351.5,29.5586642124638
1351.75,29.6236129371549
1352,29.6885616618459
1352.25,29.753510386537
1352.5,29.8156192479621
1352.75,29.8705758611623
1353,29.9255324743624
1353.25,29.9804890875625
1353.5,30.0354457007626
1353.75,30.0904023139627
1354,30.1453589271628
1354.25,30.2003155403629
1354.5,30.255272153563
1354.75,30.3102287667631
1355,30.3651853799632
1355.25,30.4201419931633
1355.5,30.4750986063634
1355.75,30.5300552195635
1356,30.5850118327636
1356.25,30.6399684459637
1356.5,30.6949250591638
1356.75,30.7498816723639
1357,30.804838285564
1357.25,30.8597948987641
1357.5,30.8892716276624
1357.75,30.8493031816987
1358,30.8093347357349
1358.25,30.7693662897712
1358.5,30.7293978438075
1358.75,30.6894293978438
1359,30.6494609518801
1359.25,30.6094925059164
1359.5,30.5695240599527
1359.75,30.529555613989
1360,30.4895871680252
1360.25,30.4496187220615
1360.5,30.4096502760978
1360.75,30.3696818301341
1361,30.3297133841704
1361.25,30.2897449382067
1361.5,30.249776492243
1361.75,30.2098080462793
1362,30.1698396003155
1362.25,30.1298711543518
1362.5,30.1
1362.75,30.1
1363,30.1
1363.25,30.1
1363.5,30.1
1363.75,30.1
1364,30.1
1364.25,30.1
1364.5,30.1
1364.75,30.1
1365,30.1
1365.25,30.1
1365.5,30.1
1365.75,30.1
1366,30.1
1366.25,30.1
1366.5,30.1
1366.75,30.1
1367,30.1
1367.25,30.1
1367.5,30.0881672363923
1367.75,30.0382066789377
1368,29.988246121483
1368.25,29.9382855640284
1368.5,29.8883250065737
1368.75,29.8383644491191
1369,29.7884038916645
1369.25,29.7384433342098
1369.5,29.6884827767552
1369.75,29.6385222193005
1370,29.5885616618459
1370.25,29.5386011043913
1370.5,29.4886405469366
1370.75,29.438679989482
1371,29.3887194320273
1371.25,29.3387588745727
1371.5,29.2887983171181
1371.75,29.2388377596634
1372,29.1888772022088
1372.25,29.1389166447541
1372.5,29.1165658690508
1372.75,29.1915067052327
1373,29.2664475414147
1373.25,29.3413883775967
1373.5,29.4163292137786
1373.75,29.4912700499606
1374,29.5662108861425
1374.25,29.6411517223245
1374.5,29.7160925585065
1374.75,29.7910333946884
1375,29.8659742308704
1375.25,29.9409150670523
1375.5,30.0158559032343
1375.75,30.0907967394162
1376,30.1657375755982
1376.25,30.2406784117802
1376.5,30.3156192479621
1376.75,30.3905600841441
1377,30.4655009203261
1377.25,30.540441756508
1377.5,30.5958979752827
1377.75,30.5759137523008
1378,30.555929529319
1378.25,30.5359453063371
1378.5,30.5159610833552
1378.75,30.4959768603734
1379,30.4759926373915
1379.25,30.4560084144097
1379.5,30.4360241914278
1379.75,30.416039968446
1380,30.3960557454641
1380.25,30.3760715224823
1380.5,30.3560872995004
1380.75,30.3361030765185
1381,30.3161188535367
1381.25,30.2961346305548
1381.5,30.276150407573
1381.75,30.2561661845911
1382,30.2361819616093
1382.25,30.2161977386274
1382.5,30.2028398632658
1382.75,30.2178280305022
1383,30.2328161977386
1383.25,30.247804364975
1383.5,30.2627925322114
1383.75,30.2777806994478
1384,30.2927688666842
1384.25,30.3077570339206
1384.5,30.322745201157
1384.75,30.3377333683934
1385,30.3527215356298
1385.25,30.3677097028662
1385.5,30.3826978701026
1385.75,30.3976860373389
1386,30.4126742045753
1386.25,30.4276623718117
1386.5,30.4426505390481
1386.75,30.4576387062845
1387,30.4726268735209
1387.25,30.4876150407573
1387.5,30.5112805679727
1387.75,30.5762292926637
1388,30.6411780173547
1388.25,30.7061267420458
1388.5,30.7710754667368
1388.75,30.8360241914278
1389,30.9009729161189
1389.25,30.9659216408099
1389.5,31.0308703655009
1389.75,31.095819090192
1390,31.160767814883
1390.25,31.225716539574
1390.5,31.290665264265
1390.75,31.3556139889561
1391,31.4205627136471
1391.25,31.4855114383382
1391.5,31.5504601630292
1391.75,31.6154088877202
1392,31.6803576124113
1392.25,31.7453063371023
1392.5,31.7968445963713
1392.75,31.7768603733894
1393,31.7568761504076
1393.25,31.7368919274257
1393.5,31.7169077044439
1393.75,31.696923481462
1394,31.6769392584801
1394.25,31.6569550354983
1394.5,31.6369708125164
1394.75,31.6169865895346
1395,31.5970023665527
1395.25,31.5770181435709
1395.5,31.557033920589
1395.75,31.5370496976072
1396,31.5170654746253
1396.25,31.4970812516434
1396.5,31.4770970286616
1396.75,31.4571128056797
1397,31.4371285826979
1397.25,31.417144359716
1397.5,31.4170391795951
1397.75,31.5369445174862
1398,31.6568498553773
1398.25,31.7767551932685
1398.5,31.8966605311596
1398.75,32.0165658690508
1399,32.1364712069419
1399.25,32.2563765448331
1399.5,32.3762818827242
1399.75,32.4961872206153
1400,32.6160925585065
1400.25,32.7359978963976
1400.5,32.8559032342888
1400.75,32.9758085721798
1401,33.095713910071
1401.25,33.2156192479621
1401.5,33.3355245858533
1401.75,33.4554299237444
1402,33.5753352616356
1402.25,33.6952405995267
1402.5,33.7892716276624
1402.75,33.7043386799895
1403,33.6194057323166
1403.25,33.5344727846437
1403.5,33.4495398369708
1403.75,33.3646068892979
1404,33.279673941625
1404.25,33.1947409939521
1404.5,33.1098080462792
1404.75,33.0248750986063
1405,32.9399421509334
1405.25,32.8550092032606
1405.5,32.7700762555877
1405.75,32.6851433079148
1406,32.6002103602419
1406.25,32.515277412569
1406.5,32.4303444648961
1406.75,32.3454115172232
1407,32.2604785695504
1407.25,32.1755456218775
1407.5,32.1182224559558
1407.75,32.2830922955562
1408,32.4479621351565
1408.25,32.6128319747568
1408.5,32.7777018143571
1408.75,32.9425716539574
1409,33.1074414935578
1409.25,33.2723113331581
1409.5,33.4371811727584
1409.75,33.6020510123587
1410,33.766920851959
1410.25,33.9317906915594
1410.5,34.0966605311597
1410.75,34.26153037076
1411,34.4264002103602
1411.25,34.5912700499605
1411.5,34.7561398895609
1411.75,34.9210097291612
1412,35.0858795687615
1412.25,35.2507494083618
1412.5,35.3763344727846
1412.75,35.1265316855114
1413,34.8767288982382
1413.25,34.626926110965
1413.5,34.3771233236918
1413.75,34.1273205364186
1414,33.8775177491454
1414.25,33.6277149618722
1414.5,33.3779121745989
1414.75,33.1281093873257
1415,32.8783066000525
1415.25,32.6285038127793
1415.5,32.3787010255061
1415.75,32.1288982382329
1416,31.8790954509598
1416.25,31.6292926636866
1416.5,31.3794898764134
1416.75,31.1296870891402
1417,30.8798843018669
1417.25,30.6300815145937
1417.5,30.3992111490928
1417.75,30.3892190376019
1418,30.379226926111
1418.25,30.36923481462
1418.5,30.3592427031291
1418.75,30.3492505916382
1419,30.3392584801473
1419.25,30.3292663686563
1419.5,30.3192742571654
1419.75,30.3092821456745
1420,30.2992900341835
1420.25,30.2892979226926
1420.5,30.2793058112017
1420.75,30.2693136997108
1421,30.2593215882198
1421.25,30.2493294767289
1421.5,30.239337365238
1421.75,30.229345253747
1422,30.2193531422561
1422.25,30.2093610307652
1422.5,30.2088351301604
1422.75,30.3487246910334
1423,30.4886142519064
1423.25,30.6285038127794
1423.5,30.7683933736524
1423.75,30.9082829345254
1424,31.0481724953984
1424.25,31.1880620562714
1424.5,31.3279516171444
1424.75,31.4678411780174
1425,31.6077307388904
1425.25,31.7476202997634
1425.5,31.8875098606364
1425.75,32.0273994215094
1426,32.1672889823824
1426.25,32.3071785432553
1426.5,32.4470681041283
1426.75,32.5869576650013
1427,32.7268472258743
1427.25,32.8667367867473
1427.5,32.9981067578228
1427.75,32.9581383118591
1428,32.9181698658953
1428.25,32.8782014199316
1428.5,32.8382329739679
1428.75,32.7982645280042
1429,32.7582960820405
1429.25,32.7183276360768
1429.5,32.6783591901131
1429.75,32.6383907441493
1430,32.5984222981856
1430.25,32.5584538522219
1430.5,32.5184854062582
1430.75,32.4785169602945
1431,32.4385485143308
1431.25,32.3985800683671
1431.5,32.3586116224034
1431.75,32.3186431764397
1432,32.2786747304759
1432.25,32.2387062845122
1432.5,32.2
1432.75,32.2
1433,32.2
1433.25,32.2
1433.5,32.2
1433.75,32.2
1434,32.2
1434.25,32.2
1434.5,32.2
1434.75,32.2
1435,32.2
1435.25,32.2
1435.5,32.2
1435.75,32.2
1436,32.2
1436.25,32.2
1436.5,32.2
1436.75,32.2
1437,32.2
1437.25,32.2
1437.5,32.1977912174599
1437.75,32.0579016565869
1438,31.9180120957139
1438.25,31.7781225348409
1438.5,31.6382329739679
1438.75,31.4983434130949
1439,31.3584538522219
1439.25,31.2185642913489
1439.5,31.0786747304759
1439.75,30.9387851696029
1440,30.7988956087299
1440.25,30.6590060478569
1440.5,30.5191164869839
1440.75,30.3792269261109
1441,30.2393373652379
1441.25,30.0994478043649
1441.5,29.9595582434919
1441.75,29.819668682619
1442,29.679779121746
1442.25,29.539889560873
1442.5,29.4
1442.75,29.4249802787273
1443,29.4499605574546
1443.25,29.474940836182
1443.5,29.4999211149093
1443.75,29.5249013936366
1444,29.5498816723639
1444.25,29.5748619510912
1444.5,29.5998422298186
1444.75,29.6248225085459
1445,29.6498027872732
1445.25,29.6747830660005
1445.5,29.6997633447279
1445.75,29.7247436234552
1446,29.7497239021825
1446.25,29.7747041809098
1446.5,29.7996844596371
1446.75,29.8246647383644
1447,29.8496450170918
1447.25,29.8746252958191
1447.5,29.8996055745464
1447.75,29.9
1448,29.9
1448.25,29.9
1448.5,29.9
1448.75,29.9
1449,29.9
1449.25,29.9
1449.5,29.9
1449.75,29.9
1450,29.9
1450.25,29.9
1450.5,29.9
1450.75,29.9
1451,29.9
1451.25,29.9
1451.5,29.9
1451.75,29.9
1452,29.9
1452.25,29.9
1452.5,29.9
1452.75,29.9096765711281
1453,29.919668682619
1453.25,29.9296607941099
1453.5,29.9396529056008
1453.75,29.9496450170918
1454,29.9596371285827
1454.25,29.9696292400736
1454.5,29.9796213515646
1454.75,29.9896134630555
1455,29.9996055745464
1455.25,30.0095976860373
1455.5,30.0195897975283
1455.75,30.0295819090192
1456,30.0395740205101
1456.25,30.0495661320011
1456.5,30.059558243492
1456.75,30.0695503549829
1457,30.0795424664738
1457.25,30.0895345779648
1457.5,30.0995266894557
1457.75,30.1142782014199
1458,30.1292663686563
1458.25,30.1442545358927
1458.5,30.1592427031291
1458.75,30.1742308703655
1459,30.1892190376019
1459.25,30.2042072048383
1459.5,30.2191953720747
1459.75,30.2341835393111
1460,30.2491717065475
1460.25,30.2641598737839
1460.5,30.2791480410203
1460.75,30.2941362082566
1461,30.309124375493
1461.25,30.3241125427294
1461.5,30.3391007099658
1461.75,30.3540888772022
1462,30.3690770444386
1462.25,30.384065211675
1462.5,30.3990533789114
1462.75,30.4327636076781
1463,30.4677359978964
1463.25,30.5027083881146
1463.5,30.5376807783329
1463.75,30.5726531685511
1464,30.6076255587694
1464.25,30.6425979489876
1464.5,30.6775703392059
1464.75,30.7125427294241
1465,30.7475151196424
1465.25,30.7824875098606
1465.5,30.8174599000789
1465.75,30.8524322902971
1466,30.8874046805154
1466.25,30.9223770707336
1466.5,30.9573494609519
1466.75,30.9923218511701
1467,31.0272942413884
1467.25,31.0622666316066
1467.5,31.0972390218249
1467.75,31.210439127005
1468,31.3303444648961
1468.25,31.4502498027873
1468.5,31.5701551406784
1468.75,31.6900604785696
1469,31.8099658164607
1469.25,31.9298711543518
1469.5,32.049776492243
1469.75,32.1696818301341
1470,32.2895871680253
1470.25,32.4094925059164
1470.5,32.5293978438075
1470.75,32.6493031816987
1471,32.7692085195898
1471.25,32.889113857481
1471.5,33.0090191953721
1471.75,33.1289245332633
1472,33.2488298711544
1472.25,33.3687352090455
1472.5,33.4886405469366
1472.75,33.5949776492243
1473,33.699894819879
1473.25,33.8048119905338
1473.5,33.9097291611885
1473.75,34.0146463318433
1474,34.119563502498
1474.25,34.2244806731528
1474.5,34.3293978438075
1474.75,34.4343150144623
1475,34.539232185117
1475.25,34.6441493557718
1475.5,34.7490665264265
1475.75,34.8539836970813
1476,34.958900867736
1476.25,35.0638180383908
1476.5,35.1687352090455
1476.75,35.2736523797003
1477,35.378569550355
1477.25,35.4834867210098
1477.5,35.5884038916645
1477.75,35.4444648961346
1478,35.2696029450434
1478.25,35.0947409939521
1478.5,34.9198790428609
1478.75,34.7450170917696
1479,34.5701551406784
1479.25,34.3952931895872
1479.5,34.2204312384959
1479.75,34.0455692874047
1480,33.8707073363134
1480.25,33.6958453852222
1480.5,33.5209834341309
1480.75,33.3461214830397
1481,33.1712595319484
1481.25,32.9963975808572
1481.5,32.8215356297659
1481.75,32.6466736786747
1482,32.4718117275834
1482.25,32.2969497764922
1482.5,32.122087825401
1482.75,32.0563502498028
1483,32.0063896923482
1483.25,31.9564291348935
1483.5,31.9064685774389
1483.75,31.8565080199842
1484,31.8065474625296
1484.25,31.7565869050749
1484.5,31.7066263476203
1484.75,31.6566657901657
1485,31.606705232711
1485.25,31.5567446752564
1485.5,31.5067841178017
1485.75,31.4568235603471
1486,31.4068630028924
1486.25,31.3569024454378
1486.5,31.3069418879832
1486.75,31.2569813305285
1487,31.2070207730739
1487.25,31.1570602156192
1487.5,31.1070996581646
1487.75,31.2242966079411
1488,31.3691822245596
1488.25,31.514067841178
1488.5,31.6589534577965
1488.75,31.8038390744149
1489,31.9487246910334
1489.25,32.0936103076519
1489.5,32.2384959242703
1489.75,32.3833815408888
1490,32.5282671575073
1490.25,32.6731527741257
1490.5,32.8180383907442
1490.75,32.9629240073626
1491,33.1078096239811
1491.25,33.2526952405996
1491.5,33.397580857218
1491.75,33.5424664738365
1492,33.687352090455
1492.25,33.8322377070734
1492.5,33.9771233236919
1492.75,34.1809098080463
1493,34.3957402051012
1493.25,34.6105706021562
1493.5,34.8254009992111
1493.75,35.0402313962661
1494,35.2550617933211
1494.25,35.469892190376
1494.5,35.684722587431
1494.75,35.899552984486
1495,36.1143833815409
1495.25,36.3292137785959
1495.5,36.5440441756508
1495.75,36.7588745727058
1496,36.9737049697608
1496.25,37.1885353668157
1496.5,37.4033657638707
1496.75,37.6181961609256
1497,37.8330265579806
1497.25,38.0478569550356
1497.5,38.2626873520905
1497.75,38.328898238233
1498,38.3638706284512
1498.25,38.3988430186695
1498.5,38.4338154088877
1498.75,38.468787799106
1499,38.5037601893242
1499.25,38.5387325795425
1499.5,38.5737049697607
1499.75,38.608677359979
1500,38.6436497501972
1500.25,38.6786221404155
1500.5,38.7135945306337
1500.75,38.748566920852
1501,38.7835393110702
1501.25,38.8185117012885
1501.5,38.8534840915067
1501.75,38.888456481725
1502,38.9234288719432
1502.25,38.9584012621615
1502.5,38.9933736523797
1502.75,38.9311596108335
1503,38.8462266631607
1503.25,38.7612937154878
1503.5,38.6763607678149
1503.75,38.591427820142
1504,38.5064948724691
1504.25,38.4215619247962
1504.5,38.3366289771233
1504.75,38.2516960294504
1505,38.1667630817775
1505.25,38.0818301341046
1505.5,37.9968971864318
1505.75,37.9119642387589
1506,37.827031291086
1506.25,37.7420983434131
1506.5,37.6571653957402
1506.75,37.5722324480673
1507,37.4872995003944
1507.25,37.4023665527215
1507.5,37.3174336050486
1507.75,37.2801472521693
1508,37.255166973442
1508.25,37.2301866947147
1508.5,37.2052064159874
1508.75,37.1802261372601
1509,37.1552458585327
1509.25,37.1302655798054
1509.5,37.1052853010781
1509.75,37.0803050223508
1510,37.0553247436235
1510.25,37.0303444648961
1510.5,37.0053641861688
1510.75,36.9803839074415
1511,36.9554036287142
1511.25,36.9304233499868
1511.5,36.9054430712595
1511.75,36.8804627925322
1512,36.8554825138049
1512.25,36.8305022350776
1512.5,36.8055219563502
1512.75,36.7922166710492
1513,36.7822245595582
1513.25,36.7722324480673
1513.5,36.7622403365764
1513.75,36.7522482250855
1514,36.7422561135945
1514.25,36.7322640021036
1514.5,36.7222718906127
1514.75,36.7122797791217
1515,36.7022876676308
1515.25,36.6922955561399
1515.5,36.682303444649
1515.75,36.672311333158
1516,36.6623192216671
1516.25,36.6523271101762
1516.5,36.6423349986853
1516.75,36.6323428871943
1517,36.6223507757034
1517.25,36.6123586642125
1517.5,36.6023665527215
1517.75,36.6190638969235
1518,36.6440441756508
1518.25,36.6690244543781
1518.5,36.6940047331055
1518.75,36.7189850118328
1519,36.7439652905601
1519.25,36.7689455692874
1519.5,36.7939258480147
1519.75,36.8189061267421
1520,36.8438864054694
1520.25,36.8688666841967
1520.5,36.893846962924
1520.75,36.9188272416513
1521,36.9438075203786
1521.25,36.968787799106
1521.5,36.9937680778333
1521.75,37.0187483565606
1522,37.0437286352879
1522.25,37.0687089140152
1522.5,37.0936891927426
1522.75,37.1298711543518
1523,37.1698396003155
1523.25,37.2098080462793
1523.5,37.249776492243
1523.75,37.2897449382067
1524,37.3297133841704
1524.25,37.3696818301341
1524.5,37.4096502760978
1524.75,37.4496187220615
1525,37.4895871680252
1525.25,37.529555613989
1525.5,37.5695240599527
1525.75,37.6094925059164
1526,37.6494609518801
1526.25,37.6894293978438
1526.5,37.7293978438075
1526.75,37.7693662897712
1527,37.809334735735
1527.25,37.8493031816987
1527.5,37.8892716276624
1527.75,37.815934788325
1528,37.7010255061793
1528.25,37.5861162240336
1528.5,37.4712069418879
1528.75,37.3562976597423
1529,37.2413883775966
1529.25,37.1264790954509
1529.5,37.0115698133052
1529.75,36.8966605311596
1530,36.7817512490139
1530.25,36.6668419668682
1530.5,36.5519326847225
1530.75,36.4370234025768
1531,36.3221141204312
1531.25,36.2072048382856
1531.5,36.0922955561399
1531.75,35.9773862739942
1532,35.8624769918486
1532.25,35.7475677097029
1532.5,35.6326584275572
1532.75,35.6214567446753
1533,35.651433079148
1533.25,35.6814094136208
1533.5,35.7113857480936
1533.75,35.7413620825664
1534,35.7713384170392
1534.25,35.801314751512
1534.5,35.8312910859848
1534.75,35.8612674204575
1535,35.8912437549303
1535.25,35.9212200894031
1535.5,35.9511964238759
1535.75,35.9811727583487
1536,36.0111490928215
1536.25,36.0411254272942
1536.5,36.071101761767
1536.75,36.1010780962398
1537,36.1310544307126
1537.25,36.1610307651854
1537.5,36.1910070996582
1537.75,36.2419668682619
1538,36.3019195372075
1538.25,36.3618722061531
1538.5,36.4218248750986
1538.75,36.4817775440442
1539,36.5417302129898
1539.25,36.6016828819353
1539.5,36.6616355508809
1539.75,36.7215882198265
1540,36.781540888772
1540.25,36.8414935577176
1540.5,36.9014462266632
1540.75,36.9613988956088
1541,37.0213515645543
1541.25,37.0813042334999
1541.5,37.1412569024454
1541.75,37.201209571391
1542,37.2611622403366
1542.25,37.3211149092821
1542.5,37.3810675782277
1542.75,37.4752037864843
1543,37.5851170128845
1543.25,37.6950302392848
1543.5,37.804943465685
1543.75,37.9148566920852
1544,38.0247699184854
1544.25,38.1346831448856
1544.5,38.2445963712858
1544.75,38.354509597686
1545,38.4644228240862
1545.25,38.5743360504865
1545.5,38.6842492768867
1545.75,38.7941625032869
1546,38.9040757296871
1546.25,39.0139889560873
1546.5,39.1239021824875
1546.75,39.2338154088877
1547,39.343728635288
1547.25,39.4536418616882
1547.5,39.5635550880884
1547.75,39.6
1548,39.6
1548.25,39.6
1548.5,39.6
1548.75,39.6
1549,39.6
1549.25,39.6
1549.5,39.6
1549.75,39.6
1550,39.6
1550.25,39.6
1550.5,39.6
1550.75,39.6
1551,39.6
1551.25,39.6
1551.5,39.6
1551.75,39.6
1552,39.6
1552.25,39.6
1552.5,39.6
1552.75,39.6130423349987
1553,39.6330265579805
1553.25,39.6530107809624
1553.5,39.6729950039443
1553.75,39.6929792269261
1554,39.712963449908
1554.25,39.7329476728898
1554.5,39.7529318958717
1554.75,39.7729161188535
1555,39.7929003418354
1555.25,39.8128845648173
1555.5,39.8328687877991
1555.75,39.852853010781
1556,39.8728372337628
1556.25,39.8928214567447
1556.5,39.9128056797265
1556.75,39.9327899027084
1557,39.9527741256902
1557.25,39.9727583486721
1557.5,39.992742571654
1557.75,40.073179069156
1558,40.1880883513016
1558.25,40.3029976334473
1558.5,40.417906915593
1558.75,40.5328161977387
1559,40.6477254798843
1559.25,40.76263476203
1559.5,40.8775440441757
1559.75,40.9924533263214
1560,41.107362608467
1560.25,41.2222718906127
1560.5,41.3371811727584
1560.75,41.4520904549041
1561,41.5669997370498
1561.25,41.6819090191954
1561.5,41.7968183013411
1561.75,41.9117275834868
1562,42.0266368656324
1562.25,42.141546147778
1562.5,42.2564554299237
1562.75,42.35274783066
1563,42.4376807783329
1563.25,42.5226137260058
1563.5,42.6075466736787
1563.75,42.6924796213516
1564,42.7774125690244
1564.25,42.8623455166973
1564.5,42.9472784643702
1564.75,43.0322114120431
1565,43.117144359716
1565.25,43.2020773073889
1565.5,43.2870102550618
1565.75,43.3719432027347
1566,43.4568761504076
1566.25,43.5418090980805
1566.5,43.6267420457534
1566.75,43.7116749934263
1567,43.7966079410991
1567.25,43.881540888772
1567.5,43.9664738364449
1567.75,43.9788325006574
1568,43.9438601104391
1568.25,43.9088877202209
1568.5,43.8739153300026
1568.75,43.8389429397844
1569,43.8039705495661
1569.25,43.7689981593479
1569.5,43.7340257691296
1569.75,43.6990533789114
1570,43.6640809886931
1570.25,43.6291085984749
1570.5,43.5941362082566
1570.75,43.5591638180384
1571,43.5241914278201
1571.25,43.4892190376019
1571.5,43.4542466473836
1571.75,43.4192742571654
1572,43.3843018669471
1572.25,43.3493294767289
1572.5,43.3143570865107
1572.75,43.1645280042073
1573,42.9347094399159
1573.25,42.7048908756246
1573.5,42.4750723113332
1573.75,42.2452537470418
1574,42.0154351827505
1574.25,41.7856166184591
1574.5,41.5557980541678
1574.75,41.3259794898764
1575,41.0961609255851
1575.25,40.8663423612937
1575.5,40.6365237970024
1575.75,40.406705232711
1576,40.1768866684197
1576.25,39.9470681041283
1576.5,39.7172495398369
1576.75,39.4874309755456
1577,39.2576124112542
1577.25,39.0277938469629
1577.5,38.7979752826715
1577.75,38.6770707336313
1578,38.6371022876676
1578.25,38.5971338417039
1578.5,38.5571653957402
1578.75,38.5171969497765
1579,38.4772285038128
1579.25,38.4372600578491
1579.5,38.3972916118853
1579.75,38.3573231659216
1580,38.3173547199579
1580.25,38.2773862739942
1580.5,38.2374178280305
1580.75,38.1974493820668
1581,38.1574809361031
1581.25,38.1175124901393
1581.5,38.0775440441756
1581.75,38.0375755982119
1582,37.9976071522482
1582.25,37.9576387062845
1582.5,37.9176702603208
1582.75,37.8972127267946
1583,37.8922166710492
1583.25,37.8872206153037
1583.5,37.8822245595582
1583.75,37.8772285038128
1584,37.8722324480673
1584.25,37.8672363923219
1584.5,37.8622403365764
1584.75,37.8572442808309
1585,37.8522482250855
1585.25,37.84725216934
1585.5,37.8422561135945
1585.75,37.8372600578491
1586,37.8322640021036
1586.25,37.8272679463581
1586.5,37.8222718906127
1586.75,37.8172758348672
1587,37.8122797791217
1587.25,37.8072837233763
1587.5,37.8022876676308
1587.75,37.7783328950828
1588,37.7383644491191
1588.25,37.6983960031554
1588.5,37.6584275571917
1588.75,37.618459111228
1589,37.5784906652642
1589.25,37.5385222193005
1589.5,37.4985537733368
1589.75,37.4585853273731
1590,37.4186168814094
1590.25,37.3786484354457
1590.5,37.338679989482
1590.75,37.2987115435183
1591,37.2587430975545
1591.25,37.2187746515908
1591.5,37.1788062056271
1591.75,37.1388377596634
1592,37.0988693136997
1592.25,37.058900867736
1592.5,37.0189324217723
1592.75,37.0052590060479
1593,37.0152511175388
1593.25,37.0252432290297
1593.5,37.0352353405206
1593.75,37.0452274520116
1594,37.0552195635025
1594.25,37.0652116749934
1594.5,37.0752037864844
1594.75,37.0851958979753
1595,37.0951880094662
1595.25,37.1051801209571
1595.5,37.1151722324481
1595.75,37.125164343939
1596,37.1351564554299
1596.25,37.1451485669209
1596.5,37.1551406784118
1596.75,37.1651327899027
1597,37.1751249013936
1597.25,37.1851170128846
1597.5,37.1951091243755
1597.75,37.1438864054694
1598,37.0339731790691
1598.25,36.9240599526689
1598.5,36.8141467262687
1598.75,36.7042334998685
1599,36.5943202734683
1599.25,36.4844070470681
1599.5,36.3744938206679
1599.75,36.2645805942676
1600,36.1546673678674
1600.25,36.0447541414672
1600.5,35.934840915067
1600.75,35.8249276886668
1601,35.7150144622666
1601.25,35.6051012358664
1601.5,35.4951880094662
1601.75,35.3852747830659
1602,35.2753615566657
1602.25,35.1654483302655
1602.5,35.0555351038653
1602.75,34.9233762818826
1603,34.7684985537734
1603.25,34.613620825664
1603.5,34.4587430975546
1603.75,34.3038653694452
1604,34.1489876413358
1604.25,33.9941099132264
1604.5,33.839232185117
1604.75,33.6843544570076
1605,33.5294767288983
1605.25,33.3745990007889
1605.5,33.2197212726795
1605.75,33.0648435445701
1606,32.9099658164607
1606.25,32.7550880883513
1606.5,32.6002103602419
1606.75,32.4453326321325
1607,32.2904549040231
1607.25,32.1355771759137
1607.5,31.9806994478043
1607.75,31.7947146989219
1608,31.5748882461214
1608.25,31.355061793321
1608.5,31.1352353405206
1608.75,30.9154088877202
1609,30.6955824349197
1609.25,30.4757559821193
1609.5,30.2559295293189
1609.75,30.0361030765185
1610,29.816276623718
1610.25,29.5964501709176
1610.5,29.3766237181172
1610.75,29.1567972653168
1611,28.9369708125163
1611.25,28.7171443597159
1611.5,28.4973179069155
1611.75,28.2774914541151
1612,28.0576650013146
1612.25,27.8378385485142
1612.5,27.6180120957138
1612.75,27.3657901656585
1613,27.0760189324216
1613.25,26.7862476991849
1613.5,26.496476465948
1613.75,26.2067052327111
1614,25.9169339994742
1614.25,25.6271627662372
1614.5,25.3373915330003
1614.75,25.0476202997634
1615,24.7578490665265
1615.25,24.4680778332895
1615.5,24.1783066000526
1615.75,23.8885353668157
1616,23.5987641335788
1616.25,23.3089929003418
1616.5,23.0192216671049
1616.75,22.729450433868
1617,22.4396792006311
1617.25,22.1499079673941
1617.5,21.8601367341572
1617.75,21.6173021298974
1618,21.4324480673152
1618.25,21.2475940047331
1618.5,21.0627399421509
1618.75,20.8778858795687
1619,20.6930318169865
1619.25,20.5081777544044
1619.5,20.3233236918222
1619.75,20.13846962924
1620,19.9536155666578
1620.25,19.7687615040757
1620.5,19.5839074414935
1620.75,19.3990533789113
1621,19.2141993163291
1621.25,19.029345253747
1621.5,18.8444911911648
1621.75,18.6596371285826
1622,18.4747830660004
1622.25,18.2899290034183
1622.5,18.1050749408361
1622.75,17.9288456481724
1623,17.7639758085721
1623.25,17.5991059689718
1623.5,17.4342361293716
1623.75,17.2693662897713
1624,17.104496450171
1624.25,16.9396266105706
1624.5,16.7747567709703
1624.75,16.60988693137
1625,16.4450170917697
1625.25,16.2801472521694
1625.5,16.115277412569
1625.75,15.9504075729687
1626,15.7855377333684
1626.25,15.6206678937681
1626.5,15.4557980541678
1626.75,15.2909282145674
1627,15.1260583749671
1627.25,14.9611885353668
1627.5,14.7963186957665
1627.75,14.6293715487773
1628,14.4595056534315
1628.25,14.2896397580857
1628.5,14.1197738627399
1628.75,13.9499079673941
1629,13.7800420720483
1629.25,13.6101761767026
1629.5,13.4403102813568
1629.75,13.270444386011
1630,13.1005784906652
1630.25,12.9307125953194
1630.5,12.7608466999736
1630.75,12.5909808046279
1631,12.4211149092821
1631.25,12.2512490139363
1631.5,12.0813831185905
1631.75,11.9115172232447
1632,11.7416513278989
1632.25,11.5717854325532
1632.5,11.4019195372074
1632.75,11.2340520641598
1633,11.0691822245595
1633.25,10.9043123849591
1633.5,10.7394425453588
1633.75,10.5745727057587
1634,10.4097028661583
1634.25,10.244833026558
1634.5,10.0799631869577
1634.75,9.91509334735738
1635,9.75022350775706
1635.25,9.58535366815674
1635.5,9.42048382855642
1635.75,9.2556139889561
1636,9.09074414935578
1636.25,8.92587430975546
1636.5,8.76100447015514
1636.75,8.59613463055483
1637,8.43126479095451
1637.25,8.26639495135419
1637.5,8.10152511175387
1637.75,7.93665527215355
1638,7.77178543255323
1638.25,7.60691559295291
1638.5,7.44204575335259
1638.75,7.27717591375227
1639,7.11230607415195
1639.25,6.94743623455163
1639.5,6.78256639495131
1639.75,6.61769655535099
1640,6.45282671575067
1640.25,6.28795687615036
1640.5,6.12308703655004
1640.75,5.95821719694972
1641,5.7933473573494
1641.25,5.62847751774908
1641.5,5.46360767814876
1641.75,5.29873783854844
1642,5.13386799894812
1642.25,4.9689981593478
1642.5,4.80412831974748
1642.75,4.63741782803041
1643,4.46755193268463
1643.25,4.29768603733884
1643.5,4.12782014199306
1643.75,3.95795424664728
1644,3.78808835130165
1644.25,3.61822245595587
1644.5,3.44835656061008
1644.75,3.2784906652643
1645,3.10862476991852
1645.25,2.93875887457273
1645.5,2.76889297922695
1645.75,2.59902708388116
1646,2.42916118853538
1646.25,2.2592952931896
1646.5,2.08942939784381
1646.75,1.91956350249803
1647,1.74969760715225
1647.25,1.57983171180646
1647.5,1.40996581646068
1647.75,1.27709702866158
1648,1.21214830397054
1648.25,1.14719957927951
1648.5,1.08225085458847
1648.75,1.01730212989744
1649,0.952353405206404
1649.25,0.887404680515369
1649.5,0.822455955824335
1649.75,0.7575072311333
1650,0.692558506442265
1650.25,0.62760978175123
1650.5,0.562661057060195
1650.75,0.49771233236916
1651,0.432763607678125
1651.25,0.367814882987091
1651.5,0.302866158296056
1651.75,0.237917433605021
1652,0.172968708913986
1652.25,0.108019984222951
1652.5,0.0430712595319164
1652.75,0
1653,0
1653.25,0
1653.5,0
1653.75,0
1654,0
1654.25,0
1654.5,0
1654.75,0
1655,0
1655.25,0
1655.5,0
1655.75,0
1656,0
1656.25,0
1656.5,0
1656.75,0
1657,0
1657.25,0
1657.5,0
1657.75,0.0112279779121763
1658,0.0462003681304259
1658.25,0.0811727583486754
1658.5,0.116145148566925
1658.75,0.151117538785175
1659,0.186089929003424
1659.25,0.221062319221674
1659.5,0.256034709439923
1659.75,0.291007099658173
1660,0.325979489876422
1660.25,0.360951880094672
1660.5,0.395924270312921
1660.75,0.430896660531171
1661,0.46586905074942
1661.25,0.50084144096767
1661.5,0.535813831185919
1661.75,0.570786221404169
1662,0.605758611622418
1662.25,0.640731001840668
1662.5,0.675703392058917
1662.75,0.704575335261643
1663,0.719563502498036
1663.25,0.734551669734428
1663.5,0.749539836970821
1663.75,0.764528004207214
1664,0.779516171443606
1664.25,0.794504338679985
1664.5,0.809492505916378
1664.75,0.824480673152771
1665,0.839468840389163
1665.25,0.854457007625556
1665.5,0.869445174861949
1665.75,0.884433342098341
1666,0.899421509334734
1666.25,0.914409676571126
1666.5,0.929397843807519
1666.75,0.944386011043912
1667,0.959374178280304
1667.25,0.974362345516697
1667.5,0.98935051275309
1667.75,1
1668,1
1668.25,1
1668.5,1
1668.75,1
1669,1
1669.25,1
1669.5,1
1669.75,1
1670,1
1670.25,1
1670.5,1
1670.75,1
1671,1
1671.25,1
1671.5,1
1671.75,1
1672,1
1672.25,1
1672.5,1
1672.75,1.01093873257956
1673,1.05090717854328
1673.25,1.09087562450699
1673.5,1.1308440704707
1673.75,1.17081251643442
1674,1.21078096239813
1674.25,1.25074940836184
1674.5,1.29071785432552
1674.75,1.33068630028924
1675,1.37065474625295
1675.25,1.41062319221666
1675.5,1.45059163818038
1675.75,1.49056008414409
1676,1.5305285301078
1676.25,1.57049697607152
1676.5,1.61046542203523
1676.75,1.65043386799895
1677,1.69040231396266
1677.25,1.73037075992637
1677.5,1.77033920589009
1677.75,1.81159610833553
1678,1.8565606100447
1678.25,1.90152511175388
1678.5,1.94648961346306
1678.75,1.99145411517224
1679,2.03641861688142
1679.25,2.08138311859059
1679.5,2.12634762029977
1679.75,2.17131212200895
1680,2.21627662371813
1680.25,2.26124112542731
1680.5,2.30620562713648
1680.75,2.35117012884566
1681,2.39613463055484
1681.25,2.44109913226402
1681.5,2.48606363397319
1681.75,2.53102813568237
1682,2.57599263739155
1682.25,2.62095713910073
1682.5,2.66592164080991
1682.75,2.72056271364716
1683,2.80549566132005
1683.25,2.89042860899294
1683.5,2.97536155666583
1683.75,3.06029450433873
1684,3.14522745201162
1684.25,3.23016039968451
1684.5,3.3150933473574
1684.75,3.40002629503022
1685,3.48495924270311
1685.25,3.569892190376
1685.5,3.65482513804889
1685.75,3.73975808572178
1686,3.82469103339467
1686.25,3.90962398106757
1686.5,3.99455692874046
1686.75,4.07948987641335
1687,4.16442282408624
1687.25,4.24935577175913
1687.5,4.33428871943203
1687.75,4.40452274520116
1688,4.42450696818301
1688.25,4.44449119116487
1688.5,4.46447541414673
1688.75,4.48445963712858
1689,4.50444386011044
1689.25,4.5244280830923
1689.5,4.54441230607415
1689.75,4.56439652905601
1690,4.58438075203787
1690.25,4.60436497501973
1690.5,4.62434919800158
1690.75,4.64433342098344
1691,4.6643176439653
1691.25,4.68430186694715
1691.5,4.70428608992901
1691.75,4.72427031291087
1692,4.74425453589272
1692.25,4.76423875887458
1692.5,4.78422298185644
1692.75,4.8
1693,4.8
1693.25,4.8
1693.5,4.8
1693.75,4.8
1694,4.8
1694.25,4.8
1694.5,4.8
1694.75,4.8
1695,4.8
1695.25,4.8
1695.5,4.8
1695.75,4.8
1696,4.8
1696.25,4.8
1696.5,4.8
1696.75,4.8
1697,4.8
1697.25,4.8
1697.5,4.8
1697.75,4.8
1698,4.8
1698.25,4.8
1698.5,4.8
1698.75,4.8
1699,4.8
1699.25,4.8
1699.5,4.8
1699.75,4.8
1700,4.8
1700.25,4.8
1700.5,4.8
1700.75,4.8
1701,4.8
1701.25,4.8
1701.5,4.8
1701.75,4.8
1702,4.8
1702.25,4.8
1702.5,4.8
1702.75,4.8
1703,4.8
1703.25,4.8
1703.5,4.8
1703.75,4.8
1704,4.8
1704.25,4.8
1704.5,4.8
1704.75,4.8
1705,4.8
1705.25,4.8
1705.5,4.8
1705.75,4.8
1706,4.8
1706.25,4.8
1706.5,4.8
1706.75,4.8
1707,4.8
1707.25,4.8
1707.5,4.8
1707.75,4.8
1708,4.8
1708.25,4.8
1708.5,4.8
1708.75,4.8
1709,4.8
1709.25,4.8
1709.5,4.8
1709.75,4.8
1710,4.8
1710.25,4.8
1710.5,4.8
1710.75,4.8
1711,4.8
1711.25,4.8
1711.5,4.8
1711.75,4.8
1712,4.8
1712.25,4.8
1712.5,4.8
1712.75,4.8
1713,4.8
1713.25,4.8
1713.5,4.8
1713.75,4.8
1714,4.8
1714.25,4.8
1714.5,4.8
1714.75,4.8
1715,4.8
1715.25,4.8
1715.5,4.8
1715.75,4.8
1716,4.8
1716.25,4.8
1716.5,4.8
1716.75,4.8
1717,4.8
1717.25,4.8
1717.5,4.8
1717.75,4.8
1718,4.8
1718.25,4.8
1718.5,4.8
1718.75,4.8
1719,4.8
1719.25,4.8
1719.5,4.8
1719.75,4.8
1720,4.8
1720.25,4.8
1720.5,4.8
1720.75,4.8
1721,4.8
1721.25,4.8
1721.5,4.8
1721.75,4.8
1722,4.8
1722.25,4.8
1722.5,4.8
1722.75,4.79305811201681
1723,4.73310544307123
1723.25,4.67315277412566
1723.5,4.61320010518009
1723.75,4.55324743623452
1724,4.49329476728895
1724.25,4.43334209834338
1724.5,4.37338942939781
1724.75,4.31343676045224
1725,4.25348409150667
1725.25,4.1935314225611
1725.5,4.13357875361553
1725.75,4.07362608467001
1726,4.01367341572444
1726.25,3.95372074677887
1726.5,3.8937680778333
1726.75,3.83381540888773
1727,3.77386273994216
1727.25,3.71391007099659
1727.5,3.65395740205102
1727.75,3.6
1728,3.6
1728.25,3.6
1728.5,3.6
1728.75,3.6
1729,3.6
1729.25,3.6
1729.5,3.6
1729.75,3.6
1730,3.6
1730.25,3.6
1730.5,3.6
1730.75,3.6
1731,3.6
1731.25,3.6
1731.5,3.6
1731.75,3.6
1732,3.6
1732.25,3.6
1732.5,3.6
1732.75,3.59915855903234
1733,3.58916644754141
1733.25,3.57917433605048
1733.5,3.56918222455955
1733.75,3.55919011306863
1734,3.5491980015777
1734.25,3.53920589008677
1734.5,3.52921377859584
1734.75,3.51922166710491
1735,3.50922955561398
1735.25,3.49923744412306
1735.5,3.48924533263213
1735.75,3.4792532211412
1736,3.46926110965028
1736.25,3.45926899815935
1736.5,3.44927688666842
1736.75,3.43928477517749
1737,3.42929266368657
1737.25,3.41930055219564
1737.5,3.40930844070471
1737.75,3.39453063371024
1738,3.31459374178281
1738.25,3.23465684985538
1738.5,3.15471995792795
1738.75,3.07478306600053
1739,2.9948461740731
1739.25,2.91490928214567
1739.5,2.83497239021824
1739.75,2.75503549829082
1740,2.67509860636339
1740.25,2.59516171443596
1740.5,2.51522482250854
1740.75,2.43528793058111
1741,2.35535103865368
1741.25,2.27541414672625
1741.5,2.19547725479883
1741.75,2.1155403628714
1742,2.03560347094397
1742.25,1.95566657901654
1742.5,1.87572968708912
1742.75,1.79789639758084
1743,1.75792795161713
1743.25,1.71795950565342
1743.5,1.6779910596897
1743.75,1.63802261372599
1744,1.59805416776228
1744.25,1.55808572179856
1744.5,1.51811727583485
1744.75,1.47814882987113
1745,1.43818038390742
1745.25,1.39821193794371
1745.5,1.35824349197999
1745.75,1.31827504601628
1746,1.27830660005257
1746.25,1.23833815408889
1746.5,1.19836970812517
1746.75,1.15840126216146
1747,1.11843281619775
1747.25,1.07846437023403
1747.5,1.03849592427032
1747.75,0.998159347883257
1748,0.948198790428614
1748.25,0.898238232973972
1748.5,0.84827767551933
1748.75,0.798317118064688
1749,0.748356560610046
1749.25,0.698396003155403
1749.5,0.648435445700761
1749.75,0.598474888246119
1750,0.548514330791477
1750.25,0.498553773336835
1750.5,0.448593215882192
1750.75,0.39863265842755
1751,0.348672100972908
1751.25,0.298711543518266
1751.5,0.248750986063624
1751.75,0.198790428608982
1752,0.148829871154339
1752.25,0.0988693136996972
1752.5,0.048908756245055
1752.75,0
1753,0
1753.25,0
1753.5,0
1753.75,0
1754,0
1754.25,0
1754.5,0
1754.75,0
1755,0
1755.25,0
1755.5,0
1755.75,0
1756,0
1756.25,0
1756.5,0
1756.75,0
1757,0
1757.25,0
1757.5,0
1757.75,0
1758,0
1758.25,0
1758.5,0
1758.75,0
1759,0
1759.25,0
1759.5,0
1759.75,0
1760,0
1760.25,0
1760.5,0
1760.75,0
1761,0
1761.25,0
1761.5,0
1761.75,0
1762,0
1762.25,0
1762.5,0
1762.75,0
1763,0
1763.25,0
1763.5,0
1763.75,0
1764,0
1764.25,0
1764.5,0
1764.75,0
1765,0
1765.25,0
1765.5,0
1765.75,0
1766,0
1766.25,0
1766.5,0
1766.75,0
1767,0
1767.25,0
1767.5,0
1767.75,0
1768,0.0145937417828009
1768.25,0.0295819090191935
1768.5,0.0445700762555862
1768.75,0.0595582434919788
1769,0.0745464107283715
1769.25,0.0895345779647641
1769.5,0.104522745201157
1769.75,0.119510912437549
1770,0.134499079673942
1770.25,0.149487246910335
1770.5,0.164475414146727
1770.75,0.17946358138312
1771,0.194451748619513
1771.25,0.209439915855905
1771.5,0.224428083092298
1771.75,0.239416250328691
1772,0.254404417565083
1772.25,0.269392584801476
1772.5,0.284380752037869
1772.75,0.299368919274261
1773,0.338285564028411
1773.25,0.378254009992124
1773.5,0.418222455955838
1773.75,0.458190901919552
1774,0.498159347883266
1774.25,0.538127793846979
1774.5,0.578096239810693
1774.75,0.618064685774407
1775,0.658033131738121
1775.25,0.698001577701834
1775.5,0.737970023665548
1775.75,0.777938469629262
1776,0.817906915592976
1776.25,0.857875361556689
1776.5,0.897843807520403
1776.75,0.937812253484117
1777,0.977780699447794
1777.25,1.01774914541151
1777.5,1.05771759137522
1777.75,1.09768603733894
1778,1.10470681041283
1778.25,1.1097028661583
1778.5,1.11469892190376
1778.75,1.11969497764922
1779,1.12469103339469
1779.25,1.12968708914015
1779.5,1.13468314488562
1779.75,1.13967920063108
1780,1.14467525637655
1780.25,1.14967131212201
1780.5,1.15466736786747
1780.75,1.15966342361294
1781,1.1646594793584
1781.25,1.16965553510387
1781.5,1.17465159084933
1781.75,1.17964764659479
1782,1.18464370234026
1782.25,1.18963975808572
1782.5,1.19463581383119
1782.75,1.19963186957665
1783,1.2
1783.25,1.2
1783.5,1.2
1783.75,1.2
1784,1.2
1784.25,1.2
1784.5,1.2
1784.75,1.2
1785,1.2
1785.25,1.2
1785.5,1.2
1785.75,1.2
1786,1.2
1786.25,1.2
1786.5,1.2
1786.75,1.2
1787,1.2
1787.25,1.2
1787.5,1.2
1787.75,1.2
1788,1.21819616092558
1788.25,1.23818038390744
1788.5,1.2581646068893
1788.75,1.27814882987115
1789,1.29813305285301
1789.25,1.31811727583487
1789.5,1.33810149881672
1789.75,1.35808572179858
1790,1.37806994478044
1790.25,1.39805416776229
1790.5,1.41803839074415
1790.75,1.43802261372601
1791,1.45800683670786
1791.25,1.47799105968972
1791.5,1.49797528267158
1791.75,1.51795950565343
1792,1.53794372863529
1792.25,1.55792795161715
1792.5,1.57791217459901
1792.75,1.59789639758086
1793,1.60447015514068
1793.25,1.60946621088614
1793.5,1.61446226663161
1793.75,1.61945832237707
1794,1.62445437812254
1794.25,1.629450433868
1794.5,1.63444648961346
1794.75,1.63944254535893
1795,1.64443860110439
1795.25,1.64943465684986
1795.5,1.65443071259532
1795.75,1.65942676834079
1796,1.66442282408625
1796.25,1.66941887983171
1796.5,1.67441493557718
1796.75,1.67941099132264
1797,1.68440704706811
1797.25,1.68940310281357
1797.5,1.69439915855903
1797.75,1.6993952143045
1798,1.7
1798.25,1.7
1798.5,1.7
1798.75,1.7
1799,1.7
1799.25,1.7
1799.5,1.7
1799.75,1.7
1800,1.7
1800.25,1.7
1800.5,1.7
1800.75,1.7
1801,1.7
1801.25,1.7
1801.5,1.7
1801.75,1.7
1802,1.7
1802.25,1.7
1802.5,1.7
1802.75,1.7
1803,1.7
1803.25,1.7
1803.5,1.7
1803.75,1.7
1804,1.7
1804.25,1.7
1804.5,1.7
1804.75,1.7
1805,1.7
1805.25,1.7
1805.5,1.7
1805.75,1.7
1806,1.7
1806.25,1.7
1806.5,1.7
1806.75,1.7
1807,1.7
1807.25,1.7
1807.5,1.7
1807.75,1.7
1808,1.7
1808.25,1.7
1808.5,1.7
1808.75,1.7
1809,1.7
1809.25,1.7
1809.5,1.7
1809.75,1.7
1810,1.7
1810.25,1.7
1810.5,1.7
1810.75,1.7
1811,1.7
1811.25,1.7
1811.5,1.7
1811.75,1.7
1812,1.7
1812.25,1.7
1812.5,1.7
1812.75,1.7
1813,1.7
1813.25,1.7
1813.5,1.7
1813.75,1.7
1814,1.7
1814.25,1.7
1814.5,1.7
1814.75,1.7
1815,1.7
1815.25,1.7
1815.5,1.7
1815.75,1.7
1816,1.7
1816.25,1.7
1816.5,1.7
1816.75,1.7
1817,1.7
1817.25,1.7
1817.5,1.7
1817.75,1.7
1818,1.7
1818.25,1.7
1818.5,1.7
1818.75,1.7
1819,1.7
1819.25,1.7
1819.5,1.7
1819.75,1.7
1820,1.7
1820.25,1.7
1820.5,1.7
1820.75,1.7
1821,1.7
1821.25,1.7
1821.5,1.7
1821.75,1.7
1822,1.7
1822.25,1.7
1822.5,1.7
1822.75,1.7
1823,1.7
1823.25,1.7
1823.5,1.7
1823.75,1.7
1824,1.7
1824.25,1.7
1824.5,1.7
1824.75,1.7
1825,1.7
1825.25,1.7
1825.5,1.7
1825.75,1.7
1826,1.7
1826.25,1.7
1826.5,1.7
1826.75,1.7
1827,1.7
1827.25,1.7
1827.5,1.7
1827.75,1.7
1828,1.68432816197737
1828.25,1.66434393899553
1828.5,1.64435971601368
1828.75,1.62437549303182
1829,1.60439127004996
1829.25,1.58440704706811
1829.5,1.56442282408625
1829.75,1.54443860110439
1830,1.52445437812254
1830.25,1.50447015514068
1830.5,1.48448593215882
1830.75,1.46450170917697
1831,1.44451748619511
1831.25,1.42453326321325
1831.5,1.4045490402314
1831.75,1.38456481724954
1832,1.36458059426768
1832.25,1.34459637128582
1832.5,1.32461214830397
1832.75,1.30462792532211
1833,1.26544833026557
1833.25,1.22048382855639
1833.5,1.17551932684722
1833.75,1.13055482513804
1834,1.08559032342886
1834.25,1.04062582171968
1834.5,0.995661320010504
1834.75,0.950696818301326
1835,0.905732316592148
1835.25,0.86076781488297
1835.5,0.815803313173792
1835.75,0.770838811464614
1836,0.725874309755436
1836.25,0.680909808046258
1836.5,0.63594530633708
1836.75,0.590980804627902
1837,0.546016302918724
1837.25,0.501051801209546
1837.5,0.456087299500368
1837.75,0.41112279779119
1838,0.4
1838.25,0.4
1838.5,0.4
1838.75,0.4
1839,0.4
1839.25,0.4
1839.5,0.4
1839.75,0.4
1840,0.4
1840.25,0.4
1840.5,0.4
1840.75,0.4
1841,0.4
1841.25,0.4
1841.5,0.4
1841.75,0.4
1842,0.4
1842.25,0.4
1842.5,0.4
1842.75,0.4
1843,0.4
1843.25,0.4
1843.5,0.4
1843.75,0.4
1844,0.4
1844.25,0.4
1844.5,0.4
1844.75,0.4
1845,0.4
1845.25,0.4
1845.5,0.4
1845.75,0.4
1846,0.4
1846.25,0.4
1846.5,0.4
1846.75,0.4
1847,0.4
1847.25,0.4
1847.5,0.4
1847.75,0.4
1848,0.38559032342886
1848.25,0.365606100447003
1848.5,0.345621877465146
1848.75,0.325637654483307
1849,0.305653431501451
1849.25,0.285669208519594
1849.5,0.265684985537737
1849.75,0.24570076255588
1850,0.225716539574023
1850.25,0.205732316592166
1850.5,0.185748093610309
1850.75,0.165763870628452
1851,0.145779647646596
1851.25,0.125795424664739
1851.5,0.105811201682882
1851.75,0.0858269787010249
1852,0.0658427557191681
1852.25,0.0458585327373112
1852.5,0.0258743097554543
1852.75,0.00589008677359743
1853,0
1853.25,0
1853.5,0
1853.75,0
1854,0
1854.25,0
1854.5,0
1854.75,0
1855,0
1855.25,0
1855.5,0
1855.75,0
1856,0
1856.25,0
1856.5,0
1856.75,0
1857,0
1857.25,0
1857.5,0
1857.75,0
1858,0
1858.25,0
1858.5,0
1858.75,0
1859,0
1859.25,0
1859.5,0
1859.75,0
1860,0
1860.25,0
1860.5,0
1860.75,0
1861,0
1861.25,0
1861.5,0
1861.75,0
1862,0
1862.25,0
1862.5,0
1862.75,0
1863,0
1863.25,0
1863.5,0
1863.75,0
1864,0
1864.25,0
1864.5,0
1864.75,0
1865,0
1865.25,0
1865.5,0
1865.75,0
1866,0
1866.25,0
1866.5,0
1866.75,0
1867,0
1867.25,0
1867.5,0
1867.75,0
1868,0
1868.25,0
1868.5,0
1868.75,0
1869,0
1869.25,0
1869.5,0
1869.75,0
1870,0
1870.25,0
1870.5,0
1870.75,0
1871,0
1871.25,0
1871.5,0
1871.75,0
1872,0
1872.25,0
1872.5,0
1872.75,0
1873,0
1873.25,0
1873.5,0
1873.75,0
1874,0
1874.25,0
1874.5,0
1874.75,0
1875,0
1875.25,0
1875.5,0
1875.75,0
1876,0
1876.25,0
1876.5,0
1876.75,0
1877,0
1877.25,0
1877.5,0
1877.75,0
1878,0
1878.25,0
1878.5,0
1878.75,0
1879,0
1879.25,0
1879.5,0
1879.75,0
1880,0
1880.25,0
1880.5,0
1880.75,0
1881,0
1881.25,0
1881.5,0
1881.75,0
1882,0
1882.25,0
1882.5,0
1882.75,0
1883,0.0122008940310298
1883.25,0.0321851170128866
1883.5,0.0521693399947435
1883.75,0.0721535629766004
1884,0.0921377859584573
1884.25,0.112122008940314
1884.5,0.132106231922171
1884.75,0.152090454904028
1885,0.172074677885885
1885.25,0.192058900867742
1885.5,0.212043123849599
1885.75,0.232027346831455
1886,0.252011569813312
1886.25,0.271995792795169
1886.5,0.291980015777026
1886.75,0.311964238758883
1887,0.33194846174074
1887.25,0.351932684722597
1887.5,0.371916907704454
1887.75,0.39190113068631
1888,0.420799368919293
1888.25,0.455771759137542
1888.5,0.490744149355792
1888.75,0.525716539574041
1889,0.560688929792291
1889.25,0.59566132001054
1889.5,0.63063371022879
1889.75,0.665606100447008
1890,0.700578490665257
1890.25,0.735550880883507
1890.5,0.770523271101756
1890.75,0.805495661320006
1891,0.840468051538255
1891.25,0.875440441756505
1891.5,0.910412831974754
1891.75,0.945385222193004
1892,0.980357612411253
1892.25,1.0153300026295
1892.5,1.05030239284775
1892.75,1.085274783066
1893,1.11446226663161
1893.25,1.13944254535893
1893.5,1.16442282408625
1893.75,1.18940310281357
1894,1.21438338154089
1894.25,1.23936366026821
1894.5,1.26434393899553
1894.75,1.28932421772286
1895,1.31430449645018
1895.25,1.3392847751775
1895.5,1.36426505390482
1895.75,1.38924533263214
1896,1.41422561135946
1896.25,1.43920589008678
1896.5,1.4641861688141
1896.75,1.48916644754142
1897,1.51414672626875
1897.25,1.53912700499607
1897.5,1.56410728372339
1897.75,1.58908756245071
1898,1.62532211412045
1898.25,1.67028661582963
1898.5,1.71525111753881
1898.75,1.76021561924799
1899,1.80518012095717
1899.25,1.85014462266634
1899.5,1.89510912437552
1899.75,1.94007362608466
1900,1.98503812779384
1900.25,2.03000262950301
1900.5,2.07496713121219
1900.75,2.11993163292137
1901,2.16489613463055
1901.25,2.20986063633973
1901.5,2.2548251380489
1901.75,2.29978963975808
1902,2.34475414146726
1902.25,2.38971864317644
1902.5,2.43468314488562
1902.75,2.47964764659479
1903,2.5
1903.25,2.5
1903.5,2.5
1903.75,2.5
1904,2.5
1904.25,2.5
1904.5,2.5
1904.75,2.5
1905,2.5
1905.25,2.5
1905.5,2.5
1905.75,2.5
1906,2.5
1906.25,2.5
1906.5,2.5
1906.75,2.5
1907,2.5
1907.25,2.5
1907.5,2.5
1907.75,2.5
1908,2.5
1908.25,2.5
1908.5,2.5
1908.75,2.5
1909,2.5
1909.25,2.5
1909.5,2.5
1909.75,2.5
1910,2.5
1910.25,2.5
1910.5,2.5
1910.75,2.5
1911,2.5
1911.25,2.5
1911.5,2.5
1911.75,2.5
1912,2.5
1912.25,2.5
1912.5,2.5
1912.75,2.5
1913,2.5
1913.25,2.5
1913.5,2.5
1913.75,2.5
1914,2.5
1914.25,2.5
1914.5,2.5
1914.75,2.5
1915,2.5
1915.25,2.5
1915.5,2.5
1915.75,2.5
1916,2.5
1916.25,2.5
1916.5,2.5
1916.75,2.5
1917,2.5
1917.25,2.5
1917.5,2.5
1917.75,2.5
1918,2.5
1918.25,2.5
1918.5,2.5
1918.75,2.5
1919,2.5
1919.25,2.5
1919.5,2.5
1919.75,2.5
1920,2.5
1920.25,2.5
1920.5,2.5
1920.75,2.5
1921,2.5
1921.25,2.5
1921.5,2.5
1921.75,2.5
1922,2.5
1922.25,2.5
1922.5,2.5
1922.75,2.5
1923,2.5
1923.25,2.5
1923.5,2.5
1923.75,2.5
1924,2.5
1924.25,2.5
1924.5,2.5
1924.75,2.5
1925,2.5
1925.25,2.5
1925.5,2.5
1925.75,2.5
1926,2.5
1926.25,2.5
1926.5,2.5
1926.75,2.5
1927,2.5
1927.25,2.5
1927.5,2.5
1927.75,2.5
1928,2.5
1928.25,2.5
1928.5,2.5
1928.75,2.5
1929,2.5
1929.25,2.5
1929.5,2.5
1929.75,2.5
1930,2.5
1930.25,2.5
1930.5,2.5
1930.75,2.5
1931,2.5
1931.25,2.5
1931.5,2.5
1931.75,2.5
1932,2.5
1932.25,2.5
1932.5,2.5
1932.75,2.5
1933,2.5
1933.25,2.5
1933.5,2.5
1933.75,2.5
1934,2.5
1934.25,2.5
1934.5,2.5
1934.75,2.5
1935,2.5
1935.25,2.5
1935.5,2.5
1935.75,2.5
1936,2.5
1936.25,2.5
1936.5,2.5
1936.75,2.5
1937,2.5
1937.25,2.5
1937.5,2.5
1937.75,2.5
1938,2.5
1938.25,2.5
1938.5,2.5
1938.75,2.5
1939,2.5
1939.25,2.5
1939.5,2.5
1939.75,2.5
1940,2.5
1940.25,2.5
1940.5,2.5
1940.75,2.5
1941,2.5
1941.25,2.5
1941.5,2.5
1941.75,2.5
1942,2.5
1942.25,2.5
1942.5,2.5
1942.75,2.5
1943,2.48948198790429
1943.25,2.46450170917697
1943.5,2.43952143044964
1943.75,2.41454115172232
1944,2.389560872995
1944.25,2.36458059426768
1944.5,2.33960031554036
1944.75,2.31462003681304
1945,2.28963975808572
1945.25,2.2646594793584
1945.5,2.23967920063108
1945.75,2.21469892190375
1946,2.18971864317643
1946.25,2.16473836444911
1946.5,2.13975808572179
1946.75,2.11477780699447
1947,2.08979752826715
1947.25,2.06481724953983
1947.5,2.03983697081251
1947.75,2.01485669208519
1948,1.99595056534315
1948.25,1.98595845385222
1948.5,1.97596634236129
1948.75,1.96597423087036
1949,1.95598211937943
1949.25,1.9459900078885
1949.5,1.93599789639758
1949.75,1.92600578490665
1950,1.91601367341572
1950.25,1.90602156192479
1950.5,1.89602945043386
1950.75,1.88603733894293
1951,1.87604522745201
1951.25,1.86605311596109
1951.5,1.85606100447016
1951.75,1.84606889297923
1952,1.8360767814883
1952.25,1.82608466999737
1952.5,1.81609255850644
1952.75,1.80610044701551
1953,1.78443334209835
1953.25,1.74446489613463
1953.5,1.70449645017092
1953.75,1.6645280042072
1954,1.62455955824349
1954.25,1.58459111227978
1954.5,1.54462266631606
1954.75,1.50465422035235
1955,1.46468577438864
1955.25,1.42471732842492
1955.5,1.38474888246121
1955.75,1.34478043649749
1956,1.30481199053378
1956.25,1.26484354457007
1956.5,1.22487509860635
1956.75,1.18490665264264
1957,1.14493820667893
1957.25,1.10496976071521
1957.5,1.0650013147515
1957.75,1.02503286878778
1958,0.981330528530089
1958.25,0.931369971075446
1958.5,0.881409413620804
1958.75,0.831448856166162
1959,0.78148829871152
1959.25,0.731527741256878
1959.5,0.681567183802235
1959.75,0.631606626347593
1960,0.581646068892951
1960.25,0.531685511438309
1960.5,0.481724953983667
1960.75,0.431764396529024
1961,0.381803839074382
1961.25,0.331843281619786
1961.5,0.281882724165143
1961.75,0.231922166710501
1962,0.181961609255859
1962.25,0.132001051801217
1962.5,0.0820404943465746
1962.75,0.0320799368919324
1963,0
1963.25,0
1963.5,0
1963.75,0
1964,0
1964.25,0
1964.5,0
1964.75,0
1965,0
1965.25,0
1965.5,0
1965.75,0
1966,0
1966.25,0
1966.5,0
1966.75,0
1967,0
1967.25,0
1967.5,0
1967.75,0
1968,0
1968.25,0
1968.5,0
1968.75,0
1969,0
1969.25,0
1969.5,0
1969.75,0
1970,0
1970.25,0
1970.5,0
1970.75,0
1971,0
1971.25,0
1971.5,0
1971.75,0
1972,0
1972.25,0
1972.5,0
1972.75,0
1973,0
1973.25,0
1973.5,0
1973.75,0
1974,0
1974.25,0
1974.5,0
1974.75,0
1975,0
1975.25,0
1975.5,0
1975.75,0
1976,0
1976.25,0
1976.5,0
1976.75,0
1977,0
1977.25,0
1977.5,0
1977.75,0
1978,0
1978.25,0
1978.5,0
1978.75,0
1979,0
1979.25,0
1979.5,0
1979.75,0
1980,0
1980.25,0
1980.5,0
1980.75,0
1981,0
1981.25,0
1981.5,0
1981.75,0
1982,0
1982.25,0
1982.5,0
1982.75,0
1983,0
1983.25,0
1983.5,0
1983.75,0
1984,0
1984.25,0
1984.5,0
1984.75,0
1985,0
1985.25,0
1985.5,0
1985.75,0
1986,0
1986.25,0
1986.5,0
1986.75,0
1987,0
1987.25,0
1987.5,0
1987.75,0
1988,0
1988.25,0
1988.5,0
1988.75,0
1989,0
1989.25,0
1989.5,0
1989.75,0
1990,0
1990.25,0
1990.5,0
1990.75,0
1991,0
1991.25,0
1991.5,0
1991.75,0
1992,0
1992.25,0
1992.5,0
1992.75,0
1993,0
1993.25,0
1993.5,0
1993.75,0
1994,0
1994.25,0
1994.5,0
1994.75,0
1995,0
1995.25,0
1995.5,0
1995.75,0
1996,0
1996.25,0
1996.5,0
1996.75,0
1997,0
1997.25,0
1997.5,0
1997.75,0
1998,0
1998.25,0
1998.5,0
1998.75,0
1999,0
1999.25,0
1999.5,0
1999.75,0
2000,0
2000.25,0
2000.5,0
2000.75,0
2001,0
2001.25,0
2001.5,0
2001.75,0
2002,0
2002.25,0
2002.5,0
2002.75,0
2003,0
2003.25,0
2003.5,0
2003.75,0
2004,0
2004.25,0
2004.5,0
2004.75,0
2005,0
2005.25,0
2005.5,0
2005.75,0
2006,0
2006.25,0
2006.5,0
2006.75,0
2007,0
2007.25,0
2007.5,0
2007.75,0
2008,0
2008.25,0
2008.5,0
2008.75,0
2009,0
2009.25,0
2009.5,0
2009.75,0
2010,0
2010.25,0
2010.5,0
2010.75,0
2011,0
2011.25,0
2011.5,0
2011.75,0
2012,0
2012.25,0
2012.5,0
2012.75,0
2013,0
2013.25,0
2013.5,0
2013.75,0
2014,0
2014.25,0
2014.5,0
2014.75,0
2015,0
2015.25,0
2015.5,0
2015.75,0
2016,0
2016.25,0
2016.5,0
2016.75,0
2017,0
2017.25,0
2017.5,0
2017.75,0
2018,0
2018.25,0
2018.5,0
2018.75,0
2019,0
2019.25,0
2019.5,0
2019.75,0
2020,0
2020.25,0
2020.5,0
2020.75,0
2021,0
2021.25,0
2021.5,0
2021.75,0
2022,0
2022.25,0
2022.5,0
2022.75,0
2023,0
2023.25,0
2023.5,0
2023.75,0
2024,0
2024.25,0
2024.5,0
2024.75,0
2025,0
2025.25,0
2025.5,0
2025.75,0
2026,0
2026.25,0
2026.5,0
2026.75,0
2027,0
2027.25,0
2027.5,0
2027.75,0
2028,0
2028.25,0
2028.5,0
2028.75,0
2029,0
2029.25,0
2029.5,0
2029.75,0
2030,0
2030.25,0
2030.5,0
2030.75,0
2031,0
2031.25,0
2031.5,0
2031.75,0
2032,0
2032.25,0
2032.5,0
2032.75,0
2033,0
2033.25,0
2033.5,0
2033.75,0
2034,0
2034.25,0
2034.5,0
2034.75,0
2035,0
2035.25,0
2035.5,0
2035.75,0
2036,0
2036.25,0
2036.5,0
2036.75,0
2037,0
2037.25,0
2037.5,0
2037.75,0
2038,0
2038.25,0
2038.5,0
2038.75,0
2039,0
2039.25,0
2039.5,0
2039.75,0
2040,0
2040.25,0
2040.5,0
2040.75,0
2041,0
2041.25,0
2041.5,0
2041.75,0
2042,0
2042.25,0
2042.5,0
2042.75,0
2043,0
2043.25,0
2043.5,0
2043.75,0
2044,0
2044.25,0
2044.5,0
2044.75,0
2045,0
2045.25,0
2045.5,0
2045.75,0
2046,0
2046.25,0
2046.5,0
2046.75,0
2047,0
2047.25,0
2047.5,0
2047.75,0
2048,0.00312910859848214
2048.25,0.0381014988167317
2048.5,0.0730738890349812
2048.75,0.108046279253231
2049,0.14301866947148
2049.25,0.17799105968973
2049.5,0.212963449907979
2049.75,0.247935840126229
2050,0.282908230344478
2050.25,0.317880620562728
2050.5,0.352853010780977
2050.75,0.387825400999227
2051,0.422797791217477
2051.25,0.457770181435726
2051.5,0.492742571653976
2051.75,0.527714961872225
2052,0.562687352090475
2052.25,0.597659742308724
2052.5,0.632632132526974
2052.75,0.667604522745223
2053,0.7
2053.25,0.7
2053.5,0.7
2053.75,0.7
2054,0.7
2054.25,0.7
2054.5,0.7
2054.75,0.7
2055,0.7
2055.25,0.7
2055.5,0.7
2055.75,0.7
2056,0.7
2056.25,0.7
2056.5,0.7
2056.75,0.7
2057,0.7
2057.25,0.7
2057.5,0.7
2057.75,0.7
2058,0.7
2058.25,0.7
2058.5,0.7
2058.75,0.7
2059,0.7
2059.25,0.7
2059.5,0.7
2059.75,0.7
2060,0.7
2060.25,0.7
2060.5,0.7
2060.75,0.7
2061,0.7
2061.25,0.7
2061.5,0.7
2061.75,0.7
2062,0.7
2062.25,0.7
2062.5,0.7
2062.75,0.7
2063,0.700210360241917
2063.25,0.705206415987382
2063.5,0.710202471732846
2063.75,0.715198527478305
2064,0.72019458322377
2064.25,0.725190638969234
2064.5,0.730186694714698
2064.75,0.735182750460162
2065,0.740178806205627
2065.25,0.745174861951091
2065.5,0.750170917696555
2065.75,0.755166973442019
2066,0.760163029187484
2066.25,0.765159084932948
2066.5,0.770155140678412
2066.75,0.775151196423876
2067,0.78014725216934
2067.25,0.785143307914805
2067.5,0.790139363660269
2067.75,0.795135419405733
2068,0.800657375755986
2068.25,0.825637654483308
2068.5,0.850617933210629
2068.75,0.87559821193795
2069,0.900578490665271
2069.25,0.925558769392592
2069.5,0.950539048119913
2069.75,0.975519326847234
2070,1.00049960557456
2070.25,1.02547988430188
2070.5,1.0504601630292
2070.75,1.07544044175652
2071,1.10042072048384
2071.25,1.12540099921116
2071.5,1.15038127793848
2071.75,1.1753615566658
2072,1.20034183539312
2072.25,1.22532211412044
2072.5,1.25030239284777
2072.75,1.27528267157509
2073,1.3
2073.25,1.3
2073.5,1.3
2073.75,1.3
2074,1.3
2074.25,1.3
2074.5,1.3
2074.75,1.3
2075,1.3
2075.25,1.3
2075.5,1.3
2075.75,1.3
2076,1.3
2076.25,1.3
2076.5,1.3
2076.75,1.3
2077,1.3
2077.25,1.3
2077.5,1.3
2077.75,1.3
2078,1.3
2078.25,1.3198790428609
2078.5,1.33986326584276
2078.75,1.35984748882462
2079,1.37983171180647
2079.25,1.39981593478833
2079.5,1.41980015777019
2079.75,1.43978438075204
2080,1.4597686037339
2080.25,1.47975282671576
2080.5,1.49973704969761
2080.75,1.51972127267947
2081,1.53970549566133
2081.25,1.55968971864319
2081.5,1.57967394162504
2081.75,1.5996581646069
2082,1.61964238758876
2082.25,1.63962661057061
2082.5,1.65961083355247
2082.75,1.67959505653433
2083,1.69957927951618
2083.25,1.71956350249804
2083.5,1.7395477254799
2083.75,1.75953194846175
2084,1.77951617144361
2084.25,1.79950039442545
2084.5,1.81948461740731
2084.75,1.83946884038916
2085,1.85945306337102
2085.25,1.87943728635288
2085.5,1.89942150933473
2085.75,1.91940573231659
2086,1.93938995529845
2086.25,1.9593741782803
2086.5,1.97935840126216
2086.75,1.99934262424402
2087,2.01932684722588
2087.25,2.03931107020773
2087.5,2.05929529318959
2087.75,2.07927951617145
2088,2.0992637391533
2088.25,2.1
2088.5,2.1
2088.75,2.1
2089,2.1
2089.25,2.1
2089.5,2.1
2089.75,2.1
2090,2.1
2090.25,2.1
2090.5,2.1
2090.75,2.1
2091,2.1
2091.25,2.1
2091.5,2.1
2091.75,2.1
2092,2.1
2092.25,2.1
2092.5,2.1
2092.75,2.1
2093,2.1
2093.25,2.1
2093.5,2.1
2093.75,2.1
2094,2.1
2094.25,2.1
2094.5,2.1
2094.75,2.1
2095,2.1
2095.25,2.1
2095.5,2.1
2095.75,2.1
2096,2.1
2096.25,2.1
2096.5,2.1
2096.75,2.1
2097,2.1
2097.25,2.1
2097.5,2.1
2097.75,2.1
2098,2.1
2098.25,2.1
2098.5,2.1
2098.75,2.1
2099,2.1
2099.25,2.1
2099.5,2.1
2099.75,2.1
2100,2.1
2100.25,2.1
2100.5,2.1
2100.75,2.1
2101,2.1
2101.25,2.1
2101.5,2.1
2101.75,2.1
2102,2.1
2102.25,2.1
2102.5,2.1
2102.75,2.1
2103,2.1
2103.25,2.1
2103.5,2.1
2103.75,2.1
2104,2.1
2104.25,2.1
2104.5,2.1
2104.75,2.1
2105,2.1
2105.25,2.1
2105.5,2.1
2105.75,2.1
2106,2.1
2106.25,2.1
2106.5,2.1
2106.75,2.1
2107,2.1
