1147,656.771279926937
1147.25,658.444182113176
1147.5,660.013386677582
1147.75,661.246010741467
1148,661.966394405211
1148.25,662.114990374467
1148.5,661.651349757465
1148.75,660.61328896073
1149,659.100510307948
1149.25,657.285012155314
1149.5,655.675207043758
1149.75,654.874000694065
1150,655.071329437136
1150.25,655.767964907354
1150.5,656.429150638721
1150.75,656.844429695582
1151,657.002123357868
1151.25,656.948348682987
1151.5,656.911859529765
1151.75,657.15031093962
1152,657.631973667035
1152.25,657.981125793345
1152.5,657.89358039705
1152.75,657.729422051759
1153,658.140273379868
1153.25,659.364266649038
1153.5,660.64325408673
1153.75,661.114127453222
1154,660.705128671795
1154.25,660.054004166472
1154.5,659.650461942158
1154.75,659.041373837109
1155,657.460625214674
1155.25,654.852547738128
1155.5,652.512418333752
1155.75,651.770795880104
1156,652.389616590533
1156.25,653.002842910878
1156.5,652.655269342338
1156.75,652.043319705717
1157,652.232205127064
1157.25,653.438316776314
1157.5,654.792220142097
1157.75,655.487484105121
1158,655.714171021041
1158.25,656.111110856033
1158.5,657.157711043798
1158.75,658.949617488487
1159,661.502691077326
1159.25,664.397717473661
1159.5,666.837476667415
1159.75,668.230423559904
1160,669.116706884608
1160.25,670.397688197749
1160.5,672.410474921223
1160.75,674.383414393095
1161,675.458766197195
1161.25,675.519137788329
1161.5,675.070470463152
1161.75,674.65026093018
1162,674.86872300116
1162.25,676.361429833832
1162.5,679.192455190889
1162.75,682.021660397864
1163,683.339548958544
1163.25,682.811232067147
1163.5,681.399309898028
1163.75,680.09231056781
1164,679.495803183881
1164.25,680.007014074517
1164.5,681.813359980214
1164.75,684.285890585149
1165,686.598143823087
1165.25,688.185503742117
1165.5,688.944469785516
1165.75,688.825234493158
1166,687.907123348924
1166.25,686.385220822896
1166.5,684.452232955918
1166.75,682.250768657245
1167,679.900084619035
1167.25,677.587598501186
1167.5,675.741689565171
1167.75,674.836502084554
1168,674.866345372014
1168.25,675.058683420462
1168.5,674.624384486534
1168.75,673.490693181933
1169,672.105377790614
1169.25,670.856714463043
1169.5,669.772644072815
1169.75,668.767994362781
1170,667.842446066868
1170.25,667.168034777431
1170.5,666.93058748136
1170.75,667.189817034974
1171,667.897021716289
1171.25,668.971031476262
1171.5,670.169256706251
1171.75,671.193119807932
1172,671.737287750381
1172.25,671.482207203123
1172.5,670.131319971467
1172.75,667.877149916306
1173,665.35986776858
1173.25,663.186759327451
1173.5,661.653398121772
1173.75,660.933444785919
1174,661.0465899642
1174.25,661.659764032108
1174.5,662.394057048601
1174.75,662.935164526889
1175,663.026087616385
1175.25,662.456056184438
1175.5,661.255105314928
1175.75,659.536443430119
1176,657.620111547506
1176.25,656.23223026085
1176.5,656.08351084076
1176.75,656.96821498044
1177,657.986072692568
1177.25,658.455883169418
1177.5,658.69431599693
1177.75,659.269580964605
1178,660.119444923572
1178.25,660.246816021983
1178.5,658.73020777958
1178.75,656.13592864935
1179,653.875339097364
1179.25,652.863723882134
1179.5,652.393793153299
1179.75,651.466724163467
1180,650.02123613959
1180.25,649.042317932593
1180.5,649.351777255583
1180.75,650.394572615627
1181,651.08369197017
1181.25,650.75713021374
1181.5,649.571677091213
1181.75,647.800828462924
1182,646.01309023739
1182.25,644.975912852284
1182.5,645.127917936961
1182.75,645.775795886519
1183,646.017758818375
1183.25,645.789942341848
1183.5,645.9252768349
1183.75,647.058594621069
1184,648.474947634684
1184.25,649.000784451905
1184.5,648.136951882352
1184.75,646.509923868464
1185,644.827699980024
1185.25,643.546577616119
1185.5,642.97801985268
1185.75,643.220747427609
1186,643.792147207175
1186.25,644.144209292875
1186.5,644.340639285491
1186.75,644.976427192542
1187,646.441237971213
1187.25,648.171900963046
1187.5,649.361668173589
1187.75,649.631681059104
1188,649.161861998337
1188.25,648.206023360566
1188.5,647.284164961602
1188.75,647.033456117081
1189,647.802896777527
1189.25,649.30806702179
1189.5,651.173343785883
1189.75,652.923565826374
1190,654.010500223177
1190.25,654.073096462691
1190.5,653.466049772435
1190.75,652.705759895571
1191,652.008311197165
1191.25,651.201731251469
1191.5,650.154110168191
1191.75,649.235661161422
1192,649.046462227035
1192.25,649.78972649931
1192.5,650.74485040223
1192.75,651.103581022816
1193,650.728123530765
1193.25,650.010516267401
1193.5,649.276979684921
1193.75,648.518937391092
1194,647.647793132875
1194.25,646.881993617505
1194.5,646.85379622052
1194.75,648.071980574871
1195,649.894985195818
1195.25,651.159993008159
1195.5,651.293640949475
1195.75,651.021513527155
1196,651.182737393859
1196.25,651.743219792835
1196.5,652.000264974113
1196.75,651.400532157724
1197,650.059981293257
1197.25,648.265956448167
1197.5,646.432679537844
1197.75,645.143567809831
1198,644.893821406639
1198.25,645.42547942544
1198.5,646.138459504589
1198.75,646.630079742668
1199,646.924860657738
1199.25,647.096557861857
1199.5,647.138955584361
1199.75,646.988973094631
1200,646.628069189999
1200.25,646.199065614589
1200.5,645.883660970898
1200.75,645.95938941108
1201,646.81182890406
1201.25,648.636157745634
1201.5,650.464399822717
1201.75,650.913213961452
1202,649.65018673061
1202.25,648.21401561564
1202.5,648.153377168434
1202.75,648.976558055456
1203,648.91539746627
1203.25,646.911271815161
1203.5,644.16234463505
1203.75,642.257742993653
1204,641.717433344458
1204.25,641.964195848332
1204.5,642.47488846495
1204.75,643.258933635058
1205,644.486222437011
1205.25,645.820262899585
1205.5,646.173834900719
1205.75,644.639135056103
1206,642.238655829924
1206.25,640.92095046058
1206.5,641.696951422059
1206.75,643.412911653916
1207,644.69955794962
1207.25,645.361120320889
1207.5,646.045077335477
1207.75,647.190308747858
1208,648.453797191947
1208.25,649.327125486763
1208.5,649.37669591072
1208.75,648.250649724748
1209,645.810892337212
1209.25,643.162036951163
1209.5,641.852980179321
1209.75,642.322504567188
1210,643.011512946698
1210.25,642.376010831907
1210.5,641.10303959002
1210.75,641.158315089169
1211,643.395354762346
1211.25,645.668669686971
1211.5,645.502610559992
1211.75,643.129156100367
1212,641.01119254783
1212.25,641.017519371328
1212.5,642.294988070585
1212.75,643.320339239234
1213,643.602894834784
1213.25,643.904397319994
1213.5,644.898071838297
1213.75,646.236548578771
1214,647.182885042043
1214.25,647.255316873901
1214.5,646.432476551395
1214.75,644.774382200912
1215,642.696797330387
1215.25,640.830854177715
1215.5,639.638642640884
1215.75,639.080108062648
1216,639.025001699009
1216.25,639.3605589296
1216.5,639.989678079799
1216.75,640.799685791123
1217,641.610669164538
1217.25,642.22536028807
1217.5,642.452117685726
1217.75,642.106123842924
1218,641.121105689038
1218.25,640.157547288557
1218.5,640.145329554801
1218.75,641.447333019482
1219,643.438495391495
1219.25,645.429431922945
1219.5,647.053725112127
1219.75,648.120693968298
1220,648.510235321769
1220.25,648.277086060979
1220.5,647.507318302054
1220.75,646.356563403567
1221,645.039587881291
1221.25,643.80559922801
1221.5,643.046238477737
1221.75,643.179043487019
1222,644.083832810223
1222.25,644.923593207624
1222.5,644.983960080205
1222.75,644.753201032208
1223,645.226375021132
1223.25,646.669784845045
1223.5,647.883768687833
1223.75,647.623269366947
1224,646.199283778212
1224.25,644.949603055117
1224.5,644.836073682056
1224.75,645.526822186079
1225,646.436025188387
1225.25,647.250546317966
1225.5,647.939940561276
1225.75,648.485229370518
1226,648.858640871531
1226.25,649.028619368728
1226.5,648.903427902158
1226.75,648.292084802915
1227,647.036102468966
1227.25,645.387453794342
1227.5,643.830982656555
1227.75,642.733183682835
1228,642.123463740549
1228.25,641.963829136863
1228.5,642.044814445418
1228.75,642.004965139627
1229,641.602917630097
1229.25,641.132607955382
1229.5,641.018067026651
1229.75,641.215732324659
1230,641.09070951011
1230.25,640.157993273312
1230.5,639.131869710827
1230.75,639.18918593474
1231,640.697087982702
1231.25,642.580563265681
1231.5,643.724513618762
1231.75,644.036932119855
1232,643.987492684893
1232.25,643.84863138128
1232.5,643.377060942473
1232.75,642.27437022422
1233,640.659255042567
1233.25,638.990398907334
1233.5,637.632179887499
1233.75,636.539831341324
1234,635.577711311933
1234.25,634.890147529554
1234.5,634.940278432693
1234.75,636.019922999315
1235,637.419779246361
1235.25,638.111470929074
1235.5,637.629238586021
1235.75,636.306597941406
1236,634.584388085982
1236.25,633.23150543034
1236.5,633.151442158354
1236.75,634.582513524399
1237,636.539766979916
1237.25,637.997517049665
1237.5,638.749899388344
1237.75,639.026922313944
1238,639.048074019778
1238.25,638.999464608464
1238.5,639.044770740249
1238.75,639.114710234983
1239,638.976196955895
1239.25,638.451674059174
1239.5,637.550263364872
1239.75,636.335210841043
1240,635.227941840634
1240.25,634.987848407334
1240.5,636.064886253811
1240.75,637.514829272418
1241,638.051611168916
1241.25,637.499074037755
1241.5,636.998864169586
1241.75,637.51274601135
1242,638.537749244871
1242.25,639.062505076394
1242.5,638.712939456189
1242.75,638.101243165028
1243,637.872106705557
1243.25,638.257529028827
1243.5,639.291997816007
1243.75,640.856103640856
1244,642.513826318497
1244.25,643.799410299403
1244.5,644.357317097798
1244.75,643.902565701351
1245,642.337889379194
1245.25,640.123175156688
1245.5,637.82005372755
1245.75,635.952692652979
1246,635.009913152407
1246.25,635.300047243255
1246.5,636.338710552142
1246.75,637.433199766223
1247,638.256065308161
1247.25,638.922684271703
1247.5,639.533316724729
1247.75,639.947003681496
1248,639.94187336781
1248.25,639.658069184438
1248.5,639.813835850106
1248.75,641.070209956403
1249,643.177878185617
1249.25,645.435731531175
1249.5,647.411150112407
1249.75,649.274002820744
1250,651.184318907956
1250.25,652.057271333591
1250.5,649.90450920587
1250.75,643.977496471362
1251,638.241860883585
1251.25,637.627106147156
1251.5,642.332247610392
1251.75,646.761154493971
1252,646.109679648499
1252.25,642.279781990508
1252.5,639.57915950272
1252.75,640.03650387699
1253,641.66595869132
1253.25,642.286392022501
1253.5,641.719908502558
1253.75,640.888454183312
1254,640.50401343793
1254.25,640.722986172359
1254.5,641.595816615937
1254.75,642.86426994176
1255,644.028929316635
1255.25,644.771671079373
1255.5,645.45993933895
1255.75,646.595629485306
1256,648.046466431483
1256.25,648.965740528806
1256.5,648.630817479849
1256.75,647.280068210438
1257,645.503191741523
1257.25,643.772177776318
1257.5,642.344156178245
1257.75,641.433088662084
1258,641.034768559896
1258.25,641.012819334213
1258.5,641.17213050107
1258.75,641.159208275444
1259,640.621529317178
1259.25,639.708862797303
1259.5,639.002271028294
1259.75,638.904884636223
1260,639.038971840837
1260.25,638.85028716811
1260.5,638.474719630701
1260.75,638.85881483521
1261,640.698719469492
1261.25,642.996628149505
1261.5,644.172231262306
1261.75,643.759430009916
1262,643.052699303872
1262.25,643.302244296074
1262.5,644.023409587812
1262.75,643.841703840261
1263,642.08850468274
1263.25,639.786373844379
1263.5,638.137533015613
1263.75,637.373347968329
1264,636.98250173645
1264.25,636.562542992197
1264.5,636.155613251274
1264.75,635.897275040113
1265,635.847283553541
1265.25,635.989267531878
1265.5,636.244960770436
1265.75,636.26746771645
1266,635.649158917606
1266.25,634.576855014984
1266.5,633.988776731082
1266.75,634.659536572897
1267,636.093724490667
1267.25,637.332344814625
1267.5,637.886412329843
1267.75,638.002398741461
1268,637.973051242349
1268.25,637.952926158425
1268.5,638.029984899287
1268.75,638.063766733179
1269,637.446338949095
1269.25,635.62450609301
1269.5,633.29359231533
1269.75,631.928472922333
1270,632.351293485737
1270.25,633.576438263448
1270.5,634.386786063227
1270.75,634.646123849796
1271,635.044969273237
1271.25,635.985013236494
1271.5,636.851754112291
1271.75,636.860919199492
1272,636.008206212673
1272.25,635.017317384971
1272.5,634.521975931838
1272.75,634.653008506965
1273,635.401933651615
1273.25,636.597950381549
1273.5,637.87962504367
1273.75,638.922794066443
1274,639.665040642664
1274.25,640.131648679533
1274.5,640.304567816991
1274.75,640.100781756726
1275,639.465907992717
1275.25,638.607777380586
1275.5,637.855332210343
1275.75,637.390596878868
1276,637.089688155174
1276.25,636.815337182655
1276.5,636.708388810217
1276.75,637.085060631241
1277,638.01060416324
1277.25,638.852205479658
1277.5,638.910502577672
1277.75,638.342155848208
1278,638.001161024793
1278.25,638.501595910652
1278.5,639.484436406283
1278.75,640.380098996573
1279,641.066414200948
1279.25,641.904476743439
1279.5,643.155750512415
1279.75,644.433752508938
1280,645.14615510965
1280.25,645.017083403102
1280.5,644.249535334699
1280.75,643.06677137518
1281,641.528536942838
1281.25,639.614220149906
1281.5,637.554694062483
1281.75,636.165048838297
1282,636.248126202253
1282.25,637.3271420771
1282.5,638.006973215278
1282.75,637.4864844005
1283,636.885525361273
1283.25,637.619729635105
1283.5,639.52705393522
1283.75,640.98840929507
1284,640.786753825297
1284.25,639.63041283772
1284.5,638.720447527882
1284.75,638.749066572045
1285,639.778801718876
1285.25,641.728623076203
1285.5,643.883273767564
1285.75,645.296542025614
1286,645.556674281856
1286.25,645.152495866716
1286.5,644.605059607196
1286.75,643.91730610117
1287,642.805000235166
1287.25,641.192953168865
1287.5,639.563149853386
1287.75,638.462932769017
1288,638.017665532795
1288.25,638.001720000583
1288.5,638.2237716779
1288.75,638.664761340554
1289,639.3429893581
1289.25,640.169816267623
1289.5,640.938671552606
1289.75,641.432675686002
1290,641.412509328297
1290.25,640.643527495643
1290.5,639.570363582905
1290.75,639.665054002381
1291,642.172203740139
1291.25,645.857509164006
1291.5,648.314150336962
1291.75,648.341785801873
1292,647.311449551868
1292.25,646.81498748848
1292.5,647.001510537553
1292.75,646.984578800736
1293,646.062951141714
1293.25,644.276131879657
1293.5,641.842669902812
1293.75,639.394993727069
1294,638.036459977746
1294.25,638.594554311015
1294.5,640.155584087212
1294.75,641.19512489893
1295,641.011873704174
1295.25,640.205001279954
1295.5,639.443435417062
1295.75,639.021308548509
1296,639.045588958404
1296.25,639.470842520713
1296.5,639.91702685912
1296.75,640.001585447061
1297,639.872551150069
1297.25,640.038998541404
1297.5,640.785959076704
1297.75,641.684555000856
1298,642.189954875932
1298.25,642.196307820275
1298.5,642.007354394386
1298.75,641.843389956744
1299,641.475726216071
1299.25,640.559566243339
1299.5,639.20118010752
1299.75,638.107543075693
1300,637.875839635833
1300.25,638.074683363713
1300.5,637.850998326797
1300.75,636.931170316747
1301,636.096415541362
1301.25,636.126430439561
1301.5,636.72123199918
1301.75,636.983378418601
1302,636.497053509337
1302.25,636.003005740008
1302.5,636.348619687507
1302.75,637.571658262823
1303,639.134994562669
1303.25,640.570016123957
1303.5,641.657722269869
1303.75,642.244191105101
1304,642.515686459108
1304.25,642.972561910989
1304.5,643.878295557953
1304.75,644.383531856141
1305,643.355777411497
1305.25,640.816492539044
1305.5,638.323781510128
1305.75,637.308624917284
1306,637.553584401967
1306.25,638.135692906821
1306.5,638.513386012267
1306.75,638.865874388618
1307,639.408435186334
1307.25,639.925334112332
1307.5,639.954358550886
1307.75,639.282949450959
1308,638.33936900926
1308.25,637.638510467887
1308.5,637.489256480723
1308.75,638.039626507506
1309,639.266150451325
1309.25,640.556601363468
1309.5,641.196770137329
1309.75,641.134349814394
1310,640.995339680263
1310.25,641.241547856421
1310.5,641.362043546974
1310.75,640.558979846356
1311,638.809532077242
1311.25,637.202237098087
1311.5,636.723657110183
1311.75,636.966462626252
1312,636.901001559035
1312.25,636.076000989093
1312.5,635.16738499162
1312.75,634.912533905508
1313,635.355496596882
1313.25,636.134141659611
1313.5,636.864114810073
1313.75,637.11869791389
1314,636.521508719684
1314.25,635.486208779847
1314.5,635.005382943529
1314.75,635.739790289693
1315,637.232139372219
1315.25,638.813548557162
1315.5,640.103229582124
1315.75,640.986347287149
1316,641.377921914114
1316.25,641.277788287041
1316.5,640.712610634077
1316.75,639.859887310278
1317,639.085654036572
1317.25,638.644142610163
1317.5,638.010715143567
1317.75,636.369777372348
1318,633.83019748616
1318.25,632.091791899861
1318.5,632.727141966966
1318.75,634.807123122539
1319,636.109246440896
1319.25,635.517306907196
1319.5,634.281541926289
1319.75,633.82034566779
1320,634.046702310525
1320.25,633.923915789445
1320.5,632.946991166257
1320.75,632.062724728597
1321,632.386065421695
1321.25,633.993013361018
1321.5,636.165436591215
1321.75,638.29756231204
1322,640.207656066402
1322.25,641.784050161904
1322.5,642.623030151564
1322.75,642.051303818496
1323,639.703048273877
1323.25,636.616341863166
1323.5,634.19770146002
1323.75,633.094323554416
1324,632.963588692255
1324.25,633.42522297137
1324.5,634.276087545121
1324.75,635.378022434666
1325,636.452765800419
1325.25,637.000805610286
1325.5,636.60610926806
1325.75,635.647057833384
1326,634.869200354327
1326.25,634.696906616885
1326.5,634.906948537336
1326.75,635.22082838979
1327,635.587994935742
1327.25,636.092756774309
1327.5,636.787384944593
1327.75,637.639394580758
1328,638.580609745717
1328.25,639.223358292425
1328.5,638.943425822696
1328.75,637.389761195608
1329,635.135733921494
1329.25,632.931283375485
1329.5,631.196019354734
1329.75,630.024958760374
1330,629.490864839828
1330.25,629.629019766854
1330.5,630.455804618258
1330.75,631.733142348632
1331,632.933565437407
1331.25,633.573819645334
1331.5,633.46580406894
1331.75,632.523081446358
1332,631.086998561466
1332.25,630.056439347942
1332.5,630.191714149568
1332.75,631.198650854009
1333,632.39648240528
1333.25,633.339486863831
1333.5,633.934431887443
1333.75,634.174763760121
1334,634.456364444368
1334.25,635.338564140855
1334.5,636.696835197565
1334.75,637.190935092568
1335,635.59244865197
1335.25,632.78510192735
1335.5,630.757736449642
1335.75,630.539986303544
1336,630.967303539284
1336.25,630.710383130658
1336.5,630.011124282365
1336.75,630.11273459438
1337,631.627406011057
1337.25,633.487863511882
1337.5,634.42690380829
1337.75,634.106941020091
1338,632.857333865095
1338.25,631.178397954313
1338.5,630.047925857131
1338.75,630.466029167448
1339,632.220051433152
1339.25,634.057110339072
1339.5,635.062674576058
1339.75,635.647352020404
1340,636.484798420141
1340.25,637.525908306126
1340.5,638.004018710749
1340.75,637.337373485671
1341,635.92073010211
1341.25,634.416591506244
1341.5,633.171388117235
1341.75,632.128191006132
1342,631.255966649457
1342.25,630.835956877613
1342.5,631.257687950592
1342.75,632.480084664371
1343,633.803987469542
1343.25,634.544139749872
1343.5,634.504527625578
1343.75,633.703275916435
1344,632.509898830397
1344.25,631.923283931753
1344.5,632.844607328482
1344.75,634.718860650494
1345,636.229961816442
1345.25,636.705284497161
1345.5,636.864206690949
1345.75,637.538009641114
1346,638.783088734374
1346.25,640.161368485673
1346.5,641.200303326953
1346.75,641.353742745727
1347,640.106166086767
1347.25,637.696300982188
1347.5,635.003020523096
1347.75,632.864217776652
1348,631.871761397884
1348.25,632.522447180486
1348.5,634.374580729629
1348.75,635.94146681887
1349,636.000100196179
1349.25,634.895829008781
1349.5,633.45215017186
1349.75,632.328493377287
1350,631.963452272499
1350.25,632.666977010586
1350.5,634.037173336626
1350.75,635.400078175923
1351,636.351919391298
1351.25,636.920632304562
1351.5,637.200311115143
1351.75,637.500572436222
1352,638.229367080735
1352.25,639.369676337274
1352.5,640.042716059508
1352.75,639.370711098091
1353,637.628968314567
1353.25,635.80485282451
1353.5,634.627461430214
1353.75,634.078584070411
1354,634.014617049109
1354.25,634.347884620258
1354.5,635.03622025526
1354.75,635.96694649862
1355,636.77464480004
1355.25,637.052819873837
1355.5,636.723604516391
1355.75,636.035327982957
1356,635.279424245641
1356.25,634.880683513117
1356.5,635.289135174012
1356.75,636.483156148988
1357,637.845660766177
1357.25,638.829340690874
1357.5,639.52500353621
1357.75,640.253930190486
1358,641.118546708764
1358.25,641.868088564324
1358.5,642.22151953711
1358.75,641.912464447338
1359,640.683333106714
1359.25,638.615321436739
1359.5,636.565017058268
1359.75,635.441403707363
1360,635.403574933698
1360.25,636.072846983056
1360.5,637.03885970682
1360.75,637.828934779672
1361,637.984169467722
1361.25,637.545502836351
1361.5,637.005489769567
1361.75,636.716750618026
1362,636.382135662735
1362.25,635.556093745699
1362.5,634.435402739721
1362.75,633.97032650573
1363,634.921980718684
1363.25,636.776235969715
1363.5,638.589628862169
1363.75,639.735601653802
1364,640.047040658189
1364.25,639.439160746758
1364.5,638.162316830717
1364.75,636.613113033889
1365,635.053608767331
1365.25,633.481073810683
1365.5,631.890169560814
1365.75,630.567088499103
1366,629.969630231286
1366.25,630.256442839462
1366.5,630.847835624406
1366.75,631.103888934841
1367,631.019068407248
1367.25,631.018901369346
1367.5,631.277257565022
1367.75,631.245571246372
1368,630.315635713175
1368.25,628.854100981916
1368.5,627.980074133017
1368.75,628.412297334883
1369,629.526479905826
1369.25,630.47287108594
1369.5,631.141728660042
1369.75,632.051166749495
1370,633.469912351859
1370.25,634.71941900167
1370.5,634.942735992334
1370.75,633.922006652428
1371,632.05406363343
1371.25,629.798173932583
1371.5,627.775515791693
1371.75,626.633900537608
1372,626.512144255244
1372.25,626.964423784483
1372.5,627.595588932346
1372.75,628.408902749199
1373,629.515226646203
1373.25,630.635840476926
1373.5,631.025390245575
1373.75,630.148729414847
1374,628.69930120809
1374.25,627.753282147196
1374.5,627.853366729377
1374.75,628.832256337526
1375,630.42984818578
1375.25,632.134316374804
1375.5,633.351444870609
1375.75,633.86318841001
1376,633.990549060451
1376.25,634.016645827541
1376.5,633.692466444891
1376.75,632.5557570195
1377,630.57181473505
1377.25,628.441753238395
1377.5,626.879148724276
1377.75,626.09668502437
1378,626.057676251113
1378.25,626.663254685943
1378.5,627.697594837636
1378.75,628.907963645979
1379,629.834893149229
1379.25,629.914940898832
1379.5,629.058484125412
1379.75,628.136880577371
1380,628.031538057521
1380.25,628.58495958897
1380.5,629.05283236716
1380.75,629.043485544037
1381,628.960369031024
1381.25,629.297776859783
1381.5,630.380130574182
1381.75,632.426409846118
1382,635.130560161173
1382.25,636.918779523676
1382.5,636.196611289537
1382.75,633.493755409981
1383,630.799121835905
1383.25,629.503353439894
1383.5,629.106686853299
1383.75,628.789792414232
1384,628.327742011103
1384.25,627.989373096808
1384.5,627.949356690862
1384.75,628.011977988733
1385,627.921952966876
1385.25,627.782479827351
1385.5,628.017177481321
1385.75,628.852146921409
1386,629.752390996519
1386.25,630.037877919331
1386.5,629.625572336839
1386.75,629.000558222552
1387,628.678676708576
1387.25,629.20868258775
1387.5,631.106929388473
1387.75,633.875676566099
1388,635.957128009246
1388.25,636.133718804697
1388.5,634.931477682003
1388.75,633.347960549665
1389,631.842744817174
1389.25,630.210584591254
1389.5,628.356880138087
1389.75,627.051947388924
1390,627.349049360668
1390.25,629.18054880649
1390.5,630.872867310958
1390.75,630.939164738838
1391,629.821624707791
1391.25,628.692964081672
1391.5,628.172660851047
1391.75,628.015016325391
1392,627.93704992308
1392.25,627.921807155815
1392.5,628.065858918904
1392.75,628.407881090701
1393,628.888471307547
1393.25,629.458986275984
1393.5,630.224132867795
1393.75,631.356285786522
1394,632.759547333016
1394.25,633.850793307892
1394.5,634.04971552196
1394.75,633.246630876584
1395,631.574648369979
1395.25,629.374298470788
1395.5,627.425612270785
1395.75,626.49267970715
1396,626.555243752492
1396.25,627.114452190523
1396.5,627.817615744494
1396.75,628.674202545109
1397,629.717671731888
1397.25,630.656582418057
1397.5,630.992914375044
1397.75,630.466018134805
1398,629.425171069959
1398.25,628.321146140633
1398.5,627.688955602274
1398.75,628.122964854705
1399,629.8649794017
1399.25,632.150668215553
1399.5,634.077669642912
1399.75,635.32910704548
1400,636.035176242256
1400.25,636.311624639123
1400.5,636.190916999737
1400.75,635.692451418637
1401,634.911734089089
1401.25,634.015187806827
1401.5,633.150670255754
1401.75,632.376525309161
1402,631.72794019702
1402.25,631.251666592018
1402.5,631.007734051665
1402.75,631.01339417569
1403,631.063843067186
1403.25,630.889492233454
1403.5,630.45579033735
1403.75,630.037518876327
1404,629.88015263789
1404.25,629.931372345581
1404.5,630.033537026803
1404.75,630.224510704056
1405,630.831422895998
1405.25,632.088337288
1405.5,633.45016796942
1405.75,634.062138641684
1406,633.812908251463
1406.25,633.829044475185
1406.5,635.114143461994
1406.75,636.724320525767
1407,636.77794608077
1407.25,634.557216631572
1407.5,631.711991610306
1407.75,630.032130468107
1408,629.732451245679
1408.25,630.066320523771
1408.5,630.469402147883
1408.75,630.86286049217
1409,631.226866583177
1409.25,631.353425300832
1409.5,630.905558514986
1409.75,629.766514617041
1410,628.445563887491
1410.25,627.54327104567
1410.5,627.387665863891
1410.75,628.094197405023
1411,629.60652921302
1411.25,631.349526794484
1411.5,632.678015270755
1411.75,633.467013161219
1412,634.023502897497
1412.25,634.494627579233
1412.5,634.419590416376
1412.75,633.237812240989
1413,631.13924343133
1413.25,629.050518540234
1413.5,627.73814524964
1413.75,627.135094949167
1414,626.94942120392
1414.25,626.954937461027
1414.5,626.999390979275
1414.75,626.974175634532
1415,626.956877647064
1415.25,627.07237329982
1415.5,627.219990696045
1415.75,627.034655395621
1416,626.271851852714
1416.25,625.354377930482
1416.5,624.899147697111
1416.75,625.156014476533
1417,625.926075482704
1417.25,626.998708894434
1417.5,628.241933041041
1417.75,629.548406085809
1418,630.807860676406
1418.25,631.906404590703
1418.5,632.675771073993
1418.75,632.657621542499
1419,631.31584286018
1419.25,628.971564458679
1419.5,627.134961716566
1419.75,627.102724075722
1420,628.255318837238
1420.25,629.233836773428
1420.5,629.372213953099
1420.75,629.064378886134
1421,628.766382456006
1421.25,628.747973457016
1421.5,629.195544000086
1421.75,629.920122869617
1422,630.109115021103
1422.25,629.079463968066
1422.5,627.580921458719
1422.75,627.013391087174
1423,627.981054989714
1423.25,629.62336254249
1423.5,630.998287940068
1423.75,631.790496583509
1424,631.996488256638
1424.25,631.701264065641
1424.5,631.160508091934
1424.75,630.611455630917
1425,629.914224773992
1425.25,628.716727849216
1425.5,626.976779834295
1425.75,625.366490553727
1426,624.593919475145
1426.25,624.651796046543
1426.5,625.082133199421
1426.75,625.529931060781
1427,625.903498100195
1427.25,626.167440681732
1427.5,626.486361294475
1427.75,627.150118117836
1428,628.178867794187
1428.25,628.935348298836
1428.5,628.775194322238
1428.75,628.117976936108
1429,628.07503604946
1429.25,629.303746540294
1429.5,631.254433976606
1429.75,633.229796901057
1430,635.124474088854
1430.25,637.247991383066
1430.5,639.56087088569
1430.75,640.983315367348
1431,640.328597893736
1431.25,637.845358860748
1431.5,635.011916581184
1431.75,633.069961238594
1432,632.139697043172
1432.25,632.051812848589
1432.5,632.490646878976
1432.75,632.976047621014
1433,633.12048324651
1433.25,633.041142994828
1433.5,633.006732227861
1433.75,633.075454882345
1434,633.028555614686
1434.25,632.686789640619
1434.5,632.224382799327
1434.75,631.946795473541
1435,632.091125745409
1435.25,632.787556645752
1435.5,634.110188367892
1435.75,635.790711112815
1436,637.409197651585
1436.25,638.590350918251
1436.5,639.041916919245
1436.75,638.528502036286
1437,637.271756146773
1437.25,635.746260333357
1437.5,634.349158973424
1437.75,633.281517265785
1438,632.705336079347
1438.25,632.651076044602
1438.5,633.053937768064
1438.75,633.803784285925
1439,634.658751055558
1439.25,635.349804301176
1439.5,635.569773073852
1439.75,634.978819823426
1440,633.519643612414
1440.25,632.205608486027
1440.5,632.253336974508
1440.75,633.625416489886
1441,634.960733845157
1441.25,635.195960529923
1441.5,634.939805534525
1441.75,635.263255817686
1442,636.460575536297
1442.25,637.84646809301
1442.5,638.723387248467
1442.75,638.691088951069
1443,637.464195400451
1443.25,635.162954003177
1443.5,632.560148681934
1443.75,630.441148299999
1444,629.209478178605
1444.25,629.079444037493
1444.5,630.026480178063
1444.75,631.550820199542
1445,633.115978808537
1445.25,634.374576750353
1445.5,635.084327837154
1445.75,635.083699154141
1446,634.391206347784
1446.25,633.085942731752
1446.5,631.681375039596
1446.75,630.979511529297
1447,631.52508960348
1447.25,633.125590448862
1447.5,635.448612704998
1447.75,637.987936748568
1448,640.101898836715
1448.25,641.266393056107
1448.5,641.36314435053
1448.75,640.376061132099
1449,638.68812350802
1449.25,637.08209248522
1449.5,636.156399146674
1449.75,635.52912381468
1450,634.539220430831
1450.25,633.289034819332
1450.5,632.906342816127
1450.75,634.312253748055
1451,636.654615167099
1451.25,638.397274276539
1451.5,638.761743007464
1451.75,638.204561922675
1452,637.279887971577
1452.25,636.410988492961
1452.5,635.955872117582
1452.75,636.217822406211
1453,637.382847477747
1453.25,639.561561067218
1453.5,642.167672814622
1453.75,644.166545262218
1454,644.928550735477
1454.25,644.995954275712
1454.5,645.075129773704
1454.75,645.052122646224
1455,644.072711247423
1455.25,641.639851162932
1455.5,638.990682218212
1455.75,637.822123462074
1456,638.546336886737
1456.25,639.831665740722
1456.5,640.409807582841
1456.75,640.268345688212
1457,639.907710009579
1457.25,639.595914928146
1457.5,639.172337987287
1457.75,638.462150670089
1458,637.604339526158
1458.25,636.917226714913
1458.5,636.640653754492
1458.75,636.810433811437
1459,637.417930283143
1459.25,638.270600575449
1459.5,639.037072205358
1459.75,639.497544255347
1460,639.817376633582
1460.25,640.223527682116
1460.5,640.513900266311
1460.75,640.061105499807
1461,638.436785554048
1461.25,636.242695977507
1461.5,634.37598160001
1461.75,633.319319820347
1462,632.992817767842
1462.25,633.283647870795
1462.5,634.125291687539
1462.75,635.465848384952
1463,636.98906268199
1463.25,637.944040966426
1463.5,637.677958621568
1463.75,636.661253645977
1464,635.907107482055
1464.25,636.016690130349
1464.5,636.71275458198
1464.75,637.635081442396
1465,638.746271603369
1465.25,640.212105197837
1465.5,642.005827700786
1465.75,643.563717028675
1466,644.271018383767
1466.25,644.200269848297
1466.5,644.000343300123
1466.75,644.075434637033
1467,643.752290989642
1467.25,642.113240082704
1467.5,639.377471146002
1467.75,637.182374158269
1468,636.909251761396
1468.25,637.715999210999
1468.5,637.89332587568
1468.75,636.865202833306
1469,636.004253814162
1469.25,636.655159893823
1469.5,638.207489883557
1469.75,639.030272405039
1470,638.43632646332
1470.25,637.867771839682
1470.5,638.903827510961
1470.75,641.204766551451
1471,643.11419882158
1471.25,643.61247482496
1471.5,643.698637872172
1471.75,644.690469875538
1472,646.552297387745
1472.25,647.961910273314
1472.5,647.87260697558
1472.75,646.785566545472
1473,645.650443168608
1473.25,644.89899082367
1473.5,644.197927786612
1473.75,643.228719158114
1474,642.299856276491
1474.25,642.02602196376
1474.5,642.667143980721
1474.75,643.66755226129
1475,644.396823413875
1475.25,644.752578615258
1475.5,645.014532713525
1475.75,645.256416627586
1476,644.807549015315
1476.25,642.889930531158
1476.5,640.181740536922
1476.75,638.946393750822
1477,640.94881957845
1477.25,644.74270987014
1477.5,647.798694748877
1477.75,649.061524352177
1478,649.749476270473
1478.25,651.0585348236
1478.5,652.285588943119
1478.75,651.744839603134
1479,648.659560916634
1479.25,644.62865880713
1479.5,641.575921863121
1479.75,640.375076609386
1480,640.952582789222
1480.25,642.986770019317
1480.5,645.21140959147
1480.75,646.13031273233
1481,645.403226681983
1481.25,644.177823328525
1481.5,643.524512909036
1481.75,643.295957600263
1482,642.832319347167
1482.25,642.010254184038
1482.5,641.770902958988
1482.75,643.051920036462
1483,645.323368734446
1483.25,647.121059987764
1483.5,647.509802270725
1483.75,647.154509515834
1484,646.984830430458
1484.25,647.331814079068
1484.5,647.951629106586
1484.75,648.535625906977
1485,648.568168339102
1485.25,647.480628590426
1485.5,645.369207439892
1485.75,643.354665152627
1486,642.48311062391
1486.25,642.358862150153
1486.5,641.83261083461
1486.75,640.403430038355
1487,639.15415620009
1487.25,639.294234068574
1487.5,640.439141902841
1487.75,640.988673295634
1488,639.934135433356
1488.25,638.425522014747
1488.5,638.026137746298
1488.75,638.941331132208
1489,639.95883713956
1489.25,640.102784715763
1489.5,639.886072811748
1489.75,640.262996524972
1490,641.482475044624
1490.25,642.805466829423
1490.5,643.472568850748
1490.75,643.104618560403
1491,641.49013314222
1491.25,638.780081234339
1491.5,635.848601665945
1491.75,633.621553421506
1492,632.632944511862
1492.25,633.166635918898
1492.5,635.117174413847
1492.75,637.334562498165
1493,638.562577244345
1493.25,638.580399910319
1493.5,637.965223515977
1493.75,637.274340571595
1494,636.924586526867
1494.25,637.280348210179
1494.5,638.189094043547
1494.75,638.975337296271
1495,639.174816120954
1495.25,639.421095044312
1495.5,640.649594441978
1495.75,643.009901233555
1496,645.607771330391
1496.25,647.540849506484
1496.5,648.33468593131
1496.75,647.693893152695
1497,645.772270332857
1497.25,643.600827011281
1497.5,642.238630397788
1497.75,641.854338366774
1498,642.024922278921
1498.25,642.388380929369
1498.5,642.806273253458
1498.75,643.188214167296
1499,643.542339073328
1499.25,643.971381636309
1499.5,644.5206762045
1499.75,644.945429937079
1500,644.921986526966
1500.25,644.459093244095
1500.5,644.035896502131
1500.75,644.127017431072
1501,644.898088172385
1501.25,646.369820673153
1501.5,648.279580272499
1501.75,649.754402729381
1502,649.936706121225
1502.25,649.245095320903
1502.5,649.011617353127
1502.75,650.033382374134
1503,651.064545561589
1503.25,650.440030801384
1503.5,648.149284873883
1503.75,646.15998356334
1504,646.183459767798
1504.25,647.40850727039
1504.5,647.985326150612
1504.75,647.010405262474
1505,645.457349573785
1505.25,644.441688422075
1505.5,644.116057037505
1505.75,643.986437395459
1506,643.605228467074
1506.25,642.713470565907
1506.5,641.115795347128
1506.75,639.217292380041
1507,638.030423418286
1507.25,638.310298525923
1507.5,639.398051133702
1507.75,640.20995719511
1508,640.288334676807
1508.25,640.042949533177
1508.5,639.832388982203
1508.75,639.207224938507
1509,637.377218858147
1509.25,634.212339269194
1509.5,630.84768153074
1509.75,628.466898994949
1510,627.294533271377
1510.25,626.994516494981
1510.5,627.144996531858
1510.75,627.140131895046
1511,626.430792041391
1511.25,625.401332776321
1511.5,625.022223104649
1511.75,625.650206688543
1512,626.119293914492
1512.25,625.180042602873
1512.5,623.261545499236
1512.75,621.871245643631
1513,621.907469499499
1513.25,622.718296312568
1513.5,623.466038562975
1513.75,623.871772028054
1514,624.008221488225
1514.25,623.877262067736
1514.5,623.302420611503
1514.75,622.111261665123
1515,620.449028302465
1515.25,618.654271972538
1515.5,616.969534136845
1515.75,615.414282264174
1516,614.009279719338
1516.25,613.082963893234
1516.5,613.130965964382
1516.75,614.10975249792
1517,614.952457165782
1517.25,614.667376078151
1517.5,613.625702873265
1517.75,612.78767905375
1518,612.638743254167
1518.25,612.952174832493
1518.5,613.448552644455
1518.75,613.878211314831
1519,614.011349288934
1519.25,613.914230674593
1519.5,613.996082814387
1519.75,614.575034614337
1520,615.511541776209
1520.25,616.53858276512
1520.5,617.214920210352
1520.75,616.938991081151
1521,615.365871238017
1521.25,613.008875959339
1521.5,610.554943834924
1521.75,608.669826019145
1522,608.001857731368
1522.25,608.725241093216
1522.5,609.802249320767
1522.75,610.113466132331
1523,609.5940949594
1523.25,608.768520486783
1523.5,608.104123705737
1523.75,607.95462898312
1524,608.520529051937
1524.25,609.09222500587
1524.5,608.628882629115
1524.75,607.14989238583
1525,606.011324503244
1525.25,606.283933184005
1525.5,607.44408966045
1525.75,608.573450114503
1526,609.374034968866
1526.25,610.08967222714
1526.5,610.801682913337
1526.75,611.084316701172
1527,610.479826567921
1527.25,609.15447000501
1527.5,607.663675124523
1527.75,606.624877979531
1528,606.768884276114
1528.25,608.650496842321
1528.5,611.439437036942
1528.75,613.711332938534
1529,614.952468707513
1529.25,615.914139295706
1529.5,617.237948954975
1529.75,618.54588771664
1530,619.163445630603
1530.25,619.075005597238
1530.5,618.99699079789
1530.75,619.510576259858
1531,620.468511383735
1531.25,621.544061781193
1531.5,622.670663157244
1531.75,624.0367234066
1532,625.791958403418
1532.25,627.902135787183
1532.5,630.257349443805
1532.75,632.082186560401
1533,631.982200915721
1533.25,629.195063354998
1533.5,625.490280259683
1533.75,623.184191853259
1534,622.997244565995
1534.25,623.984874283559
1534.5,625.256559379133
1534.75,626.469880843287
1535,627.426473994478
1535.25,627.973440363344
1535.5,628.004335946228
1535.75,627.470179071536
1536,626.554501334933
1536.25,625.508862918333
1536.5,624.769332650885
1536.75,624.970596208154
1537,626.464672684681
1537.25,628.314744397216
1537.5,629.262913757395
1537.75,628.960444426737
1538,628.047549805922
1538.25,627.121308200588
1538.5,626.349120333599
1538.75,625.766719382749
1539,625.174469037958
1539.25,624.097290035028
1539.5,622.269479730939
1539.75,620.517194459602
1540,619.966111505923
1540.25,620.77271654112
1540.5,621.959166640358
1540.75,622.618873819079
1541,622.457722915894
1541.25,621.376335214475
1541.5,619.855809198096
1541.75,619.002054827896
1542,619.564008644494
1542.25,620.661766474341
1542.5,621.045443719148
1542.75,620.740829866178
1543,621.02370995589
1543.25,622.618394279961
1543.5,624.000090437808
1543.75,623.251462127235
1544,620.971415837604
1544.25,620.0267591974
1544.5,622.130955922678
1544.75,624.666333129443
1545,624.264494497836
1545.25,621.000235367699
1545.5,617.862816732121
1545.75,617.024852036884
1546,617.655327336388
1546.25,618.365324297805
1546.5,618.722858261109
1546.75,619.04843943812
1547,619.531140827512
1547.25,619.934441670798
1547.5,619.984112946677
1547.75,619.865479983315
1548,620.07819083893
1548.25,620.857457522758
1548.5,621.769793829921
1548.75,622.332786033048
1549,622.638520894337
1549.25,623.132394938106
1549.5,624.10987477718
1549.75,625.516246126819
1550,627.229639223454
1550.25,628.933260346068
1550.5,630.196985405821
1550.75,630.691502624015
1551,630.31571320401
1551.25,629.040946593541
1551.5,627.298986294363
1551.75,625.80777071607
1552,625.053315108141
1552.25,624.931109129162
1552.5,625.240181357535
1552.75,625.710511477504
1553,626.026623342851
1553.25,626.032385203335
1553.5,625.976593751942
1553.75,626.131368135599
1554,626.281716628278
1554.25,625.88661779857
1554.5,624.814770500623
1554.75,624.010317166228
1555,624.50147480618
1555.25,626.210165561708
1555.5,628.300317310765
1555.75,630.126267294729
1556,631.573172165238
1556.25,632.589429465169
1556.5,632.844053327669
1556.75,631.810826159599
1557,629.400446284151
1557.25,626.80404700708
1557.5,625.362676011518
1557.75,625.100034475895
1558,624.970775886961
1558.25,624.247083522782
1558.5,623.312507503791
1558.75,622.746526745838
1559,622.713265379259
1559.25,623.036149004325
1559.5,623.43406161348
1559.75,623.331544662825
1560,622.158147292962
1560.25,620.304158286129
1560.5,618.915121123718
1560.75,618.780726113025
1561,619.572361071749
1561.25,620.767958270255
1561.5,622.027793451017
1561.75,623.144127639741
1562,624.005025639228
1562.25,624.741531122986
1562.5,625.476673303453
1562.75,625.753543492607
1563,624.72754897889
1563.25,622.193871958966
1563.5,619.601901015771
1563.75,618.537249132087
1564,619.059220740498
1564.25,620.203645327206
1564.5,621.215511011474
1564.75,621.88447675072
1565,622.105355576003
1565.25,622.04081390875
1565.5,622.01222857145
1565.75,622.139024429921
1566,622.095251997467
1566.25,621.595643718616
1566.5,621.313004351383
1566.75,622.448728427324
1567,625.194423756736
1567.25,627.668359684104
1567.5,628.03703317203
1567.75,627.14184020948
1568,627.215114076059
1568.25,629.112864423981
1568.5,630.856438470013
1568.75,630.377845018465
1569,628.046358337887
1569.25,625.575402346315
1569.5,623.954968709221
1569.75,622.528914269132
1570,620.524587574893
1570.25,618.282243356161
1570.5,616.803187098613
1570.75,616.57037701175
1571,616.916325078668
1571.25,617.069301881984
1571.5,616.685135878502
1571.75,615.647961603377
1572,614.040886908502
1572.25,612.307175501978
1572.5,610.903304848538
1572.75,610.104059325937
1573,610.096506340934
1573.25,610.664014616159
1573.5,611.00750033094
1573.75,610.537696297445
1574,609.964555402492
1574.25,610.354207089733
1574.5,611.322341737275
1574.75,610.940148769443
1575,608.011203633888
1575.25,604.238792675077
1575.5,601.852343894494
1575.75,601.156127129894
1576,600.942486596931
1576.25,600.443850449003
1576.5,600.027853599648
1576.75,600.116920822324
1577,600.263101327741
1577.25,599.619642150778
1577.5,598.163231513234
1577.75,597.013847653858
1578,596.980072487344
1578.25,597.171063510743
1578.5,596.33742822848
1578.75,594.7689530556
1579,593.974537137706
1579.25,594.689593459781
1579.5,595.848402704626
1579.75,596.316286089652
1580,596.155165439323
1580.25,595.913000671394
1580.5,595.66623157338
1580.75,594.937811378919
1581,593.432845056741
1581.25,591.579038807927
1581.5,589.948299865272
1581.75,589.017308314714
1582,589.196319831998
1582.25,590.437257816358
1582.5,591.941360246475
1582.75,593.011465767307
1583,593.732472572273
1583.25,594.389672317708
1583.5,594.912795801828
1583.75,594.950747837092
1584,594.45020509425
1584.25,594.0170989193
1584.5,594.259767698095
1584.75,595.229727248064
1585,596.74640686181
1585.25,598.512189378181
1585.5,600.098975296603
1585.75,601.190304425467
1586,601.852234577245
1586.25,602.214284064349
1586.5,602.251592947539
1586.75,601.842602972225
1587,601.021429441951
1587.25,600.116082595854
1587.5,599.446265144957
1587.75,599.080730888342
1588,598.99567877395
1588.25,599.263888222426
1588.5,600.066650154472
1588.75,601.410907455093
1589,602.701513863601
1589.25,603.277451369649
1589.5,603.189870295908
1589.75,602.956003642115
1590,602.904856982407
1590.25,602.981931220326
1590.5,603.126829563076
1590.75,603.532639391962
1591,604.482927630449
1591.25,605.850471227297
1591.5,607.006709904191
1591.75,607.513601921525
1592,607.795757846575
1592.25,608.433929019892
1592.5,609.127191773749
1592.75,608.860710624394
1593,607.215697196161
1593.25,605.367622653902
1593.5,604.60331147631
1593.75,604.795413870626
1594,605.015693217916
1594.25,604.876524757792
1594.5,604.942903074559
1594.75,605.707981333777
1595,606.682526452192
1595.25,607.041269979174
1595.5,606.616678263273
1595.75,605.987231120293
1596,605.594978898122
1596.25,605.224530725911
1596.5,604.551641882923
1596.75,603.911104448262
1597,604.142798121624
1597.25,605.502447797565
1597.5,606.836446852334
1597.75,606.975874934426
1598,606.312632799583
1598.25,605.996555107709
1598.5,606.290324743477
1598.75,606.083056680766
1599,604.455485067142
1599.25,602.097225901349
1599.5,600.192130049027
1599.75,599.233574884013
1600,599.002377944274
1600.25,599.25898495945
1600.5,599.802360384097
1600.75,600.434486092404
1601,600.909354540504
1601.25,600.954531155206
1601.5,600.536841185664
1601.75,600.042668268646
1602,599.834993866201
1602.25,599.903369094761
1602.5,600.111042908274
1602.75,600.453702253869
1603,601.065181567895
1603.25,601.966999724684
1603.5,602.810862485355
1603.75,603.234026556727
1604,603.508560495388
1604.25,604.29492298864
1604.5,605.577162604145
1604.75,606.078128560955
1605,604.693461399722
1605.25,602.256676240651
1605.5,600.326169307371
1605.75,599.654282282174
1606,600.018811552157
1606.25,601.030537764622
1606.5,601.895074187519
1606.75,601.809766644006
1607,601.14280685488
1607.25,601.103633796744
1607.5,602.130941888414
1607.75,602.979471206736
1608,602.460135312405
1608.25,601.320967038308
1608.5,601.120985720717
1608.75,602.329063861044
1609,603.99402585078
1609.25,605.312583724302
1609.5,606.463766278579
1609.75,607.839447524116
1610,609.254506151356
1610.25,610.056578292226
1610.5,609.892980390959
1610.75,609.211227651888
1611,608.527190765216
1611.25,607.786500859315
1611.5,606.613954277834
1611.75,605.077095637952
1612,604.050941781752
1612.25,604.302883191868
1612.5,605.37817734615
1612.75,606.359792337994
1613,606.836194689797
1613.25,607.000694068026
1613.5,607.046078699036
1613.75,607.02461365976
1614,606.957604744111
1614.25,606.920205495758
1614.5,607.031123090479
1614.75,607.360010507715
1615,607.847972461398
1615.25,608.433184380827
1615.5,609.2181748088
1615.75,610.3925745203
1616,611.84046281282
1616.25,612.915250749611
1616.5,613.00377184312
1616.75,612.033425816061
1617,610.149467987987
1617.25,607.842621933826
1617.5,606.051601801833
1617.75,605.498817408675
1618,605.783222517665
1618.25,606.207885564593
1618.5,606.559706914883
1618.75,607.070365851502
1619,607.870213340741
1619.25,608.747621337668
1619.5,609.443993109514
1619.75,609.863470363398
1620,610.012041306963
1620.25,609.972070582098
1620.5,609.973632953759
1620.75,610.26380355297
1621,611.087453788902
1621.25,612.676660784534
1621.5,614.689635274993
1621.75,615.965202201619
1622,615.66508361092
1622.25,614.937244416266
1622.5,615.504126396018
1622.75,617.255419792585
1623,618.004147414285
1623.25,616.180571025737
1623.5,613.200598688261
1623.75,611.173054711307
1624,610.715387858474
1624.25,611.030301470121
1624.5,611.442225900454
1624.75,611.84815371015
1625,612.259151096481
1625.25,612.671355884793
1625.5,613.069901237056
1625.75,613.346387288562
1626,613.172319036354
1626.25,612.278199520411
1626.5,611.244237848031
1626.75,611.109314650792
1627,612.377882638095
1627.25,614.579701837077
1627.5,617.118695461153
1627.75,619.243110936162
1628,620.153257435946
1628.25,619.776263670595
1628.5,619.055467764992
1628.75,618.784800426185
1629,618.511647870436
1629.25,617.38072850367
1629.5,615.473777305867
1629.75,614.03941443139
1630,614.042032896026
1630.25,614.756055296749
1630.5,614.995070789636
1630.75,614.5047536487
1631,613.991979032488
1631.25,613.96812411152
1631.5,614.063823153432
1631.75,613.735272719598
1632,612.904951972335
1632.25,611.881469703442
1632.5,611.02846674443
1632.75,610.832566579909
1633,611.720831141566
1633.25,613.181820915382
1633.5,614.105369312372
1633.75,614.038216024919
1634,613.91760279576
1634.25,614.673096397903
1634.5,615.74632573063
1634.75,615.859087701666
1635,614.339067076232
1635.25,611.515796838538
1635.5,607.931932340212
1635.75,604.892567314582
1636,603.957703687042
1636.25,605.052078442034
1636.5,605.998978574465
1636.75,605.136404537946
1637,603.507086831573
1637.25,602.763269987578
1637.5,602.984465741307
1637.75,602.921756019241
1638,601.827845706763
1638.25,600.343511305746
1638.5,599.269538733894
1638.75,598.881451867684
1639,599.171539443174
1639.25,599.816863643971
1639.5,600.01869858978
1639.75,599.221789866515
1640,598.211008564011
1640.25,598.100863818593
1640.5,598.759998526869
1640.75,598.948154578153
1641,597.820444968392
1641.25,595.640881921518
1641.5,592.875725648401
1641.75,590.227859152925
1642,588.507144783374
1642.25,587.95083595069
1642.5,588.003083568643
1642.75,588.127849843746
1643,588.082453453813
1643.25,587.698282724721
1643.5,586.865251442876
1643.75,585.513648654559
1644,583.7637174517
1644.25,582.042859809963
1644.5,580.754268060796
1644.75,580.073806936147
1645,580.091639109387
1645.25,580.595625344177
1645.5,581.167126116766
1645.75,581.415279421684
1646,580.999727949877
1646.25,579.775839056567
1646.5,578.363199346223
1646.75,577.478753067645
1647,576.78954211129
1647.25,575.320753858128
1647.5,572.972158087924
1647.75,570.906421941255
1648,570.014827644923
1648.25,569.958626992325
1648.5,570.159834896917
1648.75,570.178244354252
1649,569.658952954395
1649.25,568.69998160953
1649.5,567.85455125596
1649.75,567.407323440504
1650,567.027420447188
1650.25,566.440414897777
1650.5,566.012374564654
1650.75,566.229608892219
1651,566.80518255548
1651.25,566.980996126731
1651.5,566.533421997988
1651.75,565.920109267399
1652,565.469049675788
1652.25,565.056167795384
1652.5,564.480291332382
1652.75,563.516227189953
1653,561.963675051409
1653.25,560.084660588778
1653.5,558.472691106685
1653.75,557.453156493393
1654,556.961937841217
1654.25,556.875165600563
1654.5,556.986944757296
1654.75,557.091618830184
1655,557.058091500082
1655.25,556.79080043115
1655.5,556.314977907985
1655.75,555.733839213201
1656,555.212870151197
1656.25,554.986046598419
1656.5,555.066437268969
1656.75,554.998637256922
1657,554.477240808255
1657.25,554.020279485507
1657.5,554.232644140797
1657.75,554.815080263829
1658,555.083263736196
1658.25,555.001209900014
1658.5,555.067717248408
1658.75,555.284035575682
1659,554.886278041351
1659.25,553.515810012802
1659.5,552.093274549318
1659.75,551.56049549325
1660,551.827957553195
1660.25,552.493391506685
1660.5,553.421464688699
1660.75,554.618223102816
1661,555.708982859119
1661.25,555.936498118507
1661.5,555.269575071368
1661.75,555.020697172759
1662,556.020639331769
1662.25,556.969899010174
1662.5,556.500817958549
1662.75,555.824982025753
1663,557.035758297436
1663.25,559.682719674641
1663.5,561.413329629001
1663.75,561.400653744066
1664,560.970306166628
1664.25,561.171941423678
1664.5,561.902232913741
1664.75,562.803107844416
1665,563.16142449274
1665.25,562.247087745575
1665.5,560.657441680485
1665.75,559.872676494643
1666,560.335907269979
1666.25,561.093394261347
1666.5,561.499199383981
1666.75,561.93894106803
1667,562.815554023827
1667.25,563.767916237795
1667.5,564.228732219427
1667.75,564.162100651021
1668,563.881537243266
1668.25,563.734120716206
1668.5,564.101855435345
1668.75,565.200227286127
1669,566.8087249078
1669.25,568.638646665324
1669.5,570.408181541286
1669.75,571.843848832674
1670,572.753250414358
1670.25,573.005508000021
1670.5,572.642124662045
1670.75,571.964795273495
1671,571.203963589945
1671.25,570.268058378926
1671.5,569.067990586348
1671.75,568.120671127983
1672,568.210708506769
1672.25,569.228648821653
1672.5,570.124230591415
1672.75,570.263740480981
1673,570.01890637971
1673.25,569.839141249802
1673.5,569.902473661095
1673.75,570.281669638079
1674,570.785188234597
1674.25,571.048866702546
1674.5,571.005532195303
1674.75,571.012027149388
1675,571.337797960218
1675.25,571.880889089304
1675.5,572.465389043422
1675.75,572.900897168802
1676,573.00526980371
1676.25,572.91635766266
1676.5,573.078927706786
1676.75,573.475544500596
1677,573.088058382386
1677.25,571.141437975074
1677.5,568.695284114447
1677.75,567.269227209603
1678,566.982142281771
1678.25,566.983618913846
1678.5,566.893984949612
1678.75,567.033701000199
1679,567.560540991843
1679.25,567.982702071098
1679.5,567.795952957
1679.75,567.231600835101
1680,566.795094510098
1680.25,566.455025977386
1680.5,565.721929892213
1680.75,564.602764958595
1681,563.999173879525
1681.25,564.570052812678
1681.5,565.736788803391
1681.75,566.688586417573
1682,567.067126028737
1682.25,566.746422883357
1682.5,565.84835113085
1682.75,564.736671453751
1683,563.565049420301
1683.25,562.042772866329
1683.5,560.033799015374
1683.75,558.295138681562
1684,557.695102378626
1684.25,557.901887110036
1684.5,557.954661957311
1684.75,557.501373100032
1685,556.811168428777
1685.25,556.197342723314
1685.5,556.004349421925
1685.75,556.302493085033
1686,556.166877328404
1686.25,554.687967798041
1686.5,552.648503025787
1686.75,551.493125134848
1687,551.567342673748
1687.25,552.33848562809
1687.5,553.082658575007
1687.75,552.849589445672
1688,551.365443608279
1688.25,550.026925319242
1688.5,549.979591450218
1688.75,550.127098769537
1689,548.966143448953
1689.25,546.874653484409
1689.5,545.126832571751
1689.75,544.218131417903
1690,543.970170459667
1690.25,544.049180256758
1690.5,543.937925799565
1690.75,543.422546089467
1691,542.995193016933
1691.25,543.020890897293
1691.5,543.037835820495
1691.75,542.548258175899
1692,542.031363463451
1692.25,542.245086605645
1692.5,542.858520122459
1692.75,542.9056150578
1693,542.326235905617
1693.25,541.93670721028
1693.5,542.0122236258
1693.75,541.95117208904
1694,541.43412054729
1694.25,540.999206654335
1694.5,541.062666424319
1694.75,541.060138307963
1695,540.34286798464
1695.25,539.285183353243
1695.5,538.601016490432
1695.75,538.228632975684
1696,537.651341438736
1696.25,537.036816541513
1696.5,537.192829328289
1696.75,538.212856221879
1697,539.148059869359
1697.25,539.34884369125
1697.5,538.962125594566
1697.75,538.314296606487
1698,537.991118742956
1698.25,538.425810020881
1698.5,538.966441541638
1698.75,538.749012347723
1699,538.135999312681
1699.25,538.054821612853
1699.5,538.611540803422
1699.75,539.285252167211
1700,539.777100658642
1700.25,540.060808602187
1700.5,540.126240298182
1700.75,539.96539824459
1701,539.583013233144
1701.25,539.017648545737
1701.5,538.372130548847
1701.75,538.003795665983
1702,538.250367168002
1702.25,538.827949544347
1702.5,539.24168298722
1702.75,539.639149470002
1703,540.547838997968
1703.25,541.673353554877
1703.5,541.930092795228
1703.75,541.241378571664
1704,541.079056397518
1704.25,542.140908434223
1704.5,543.003364699929
1704.75,542.548554155495
1705,541.9840214831
1705.25,542.772114585465
1705.5,544.461107489161
1705.75,545.912377520766
1706,546.76171532217
1706.25,547.13213619959
1706.5,547.14390543416
1706.75,546.906410106741
1707,546.493890400989
1707.25,545.923257807423
1707.5,545.3009021532
1707.75,544.998680478795
1708,545.304775509849
1708.25,545.879421173868
1708.5,546.270443581483
1708.75,546.683769108205
1709,547.60797268067
1709.25,548.696862496358
1709.5,548.935030672204
1709.75,548.283793648168
1710,548.050980094847
1710.25,548.933029861879
1710.5,549.997425172999
1710.75,550.432188544649
1711,550.835901711602
1711.25,552.001217678003
1711.5,553.50949332778
1711.75,554.451267737128
1712,554.795915496725
1712.25,555.192901085015
1712.5,555.783000842191
1712.75,555.9791232262
1713,555.366965867627
1713.25,554.102537088136
1713.5,552.499021934478
1713.75,551.205877038735
1714,550.899179592054
1714.25,551.512789831436
1714.5,552.5625013903
1714.75,553.570667789856
1715,554.075948439689
1715.25,554.020244947342
1715.5,554.019544919168
1715.75,554.480103136096
1716,554.966556197161
1716.25,555.01521658635
1716.5,554.943158003423
1716.75,555.341793987634
1717,556.678457320623
1717.25,559.310375415612
1717.5,562.729613819806
1717.75,565.402257716269
1718,566.511007434578
1718.25,566.968593184384
1718.5,567.642027259705
1718.75,568.063076515297
1719,567.474976241861
1719.25,566.372556815048
1719.5,566.01769982024
1719.75,566.616835902316
1720,566.992637245155
1720.25,566.600560120883
1720.5,566.832794565681
1720.75,568.942091563675
1721,571.446178884715
1721.25,572.038308946844
1721.5,571.151442195786
1721.75,571.299714859236
1722,573.286582825386
1722.25,575.024873136019
1722.5,574.911750215236
1722.75,574.104783106695
1723,574.255942874898
1723.25,575.719888563792
1723.5,578.136522357666
1723.75,580.921779216334
1724,583.233519926476
1724.25,584.504592626914
1724.5,584.970031371586
1724.75,584.960881925776
1725,584.494354157905
1725.25,583.455491270748
1725.5,582.05948698551
1725.75,580.895620233424
1726,580.332892942255
1726.25,580.059972222206
1726.5,579.735219634344
1726.75,579.691885164872
1727,580.548273282889
1727.25,582.303589543712
1727.5,584.290831377129
1727.75,585.924296483197
1728,586.909398303339
1728.25,587.046729049428
1728.5,586.483222411262
1728.75,585.516852317028
1729,584.525016210279
1729.25,583.970432835492
1729.5,584.139495706061
1729.75,584.819221268754
1730,585.718133997242
1730.25,586.599111655561
1730.5,587.242524495771
1730.75,587.20211424418
1731,585.772880864305
1731.25,582.87488389384
1731.5,580.323449752951
1731.75,579.957124321141
1732,580.836727137046
1732.25,580.67948339342
1732.5,579.098437579594
1732.75,577.954965202391
1733,578.485781904033
1733.25,579.768855742929
1733.5,580.637472521001
1733.75,580.950941208502
1734,581.02194639432
1734.25,581.026230775951
1734.5,580.993322015302
1734.75,580.957806704793
1735,580.984547347572
1735.25,581.153467669877
1735.5,581.613510279245
1735.75,582.53127614236
1736,583.84066686846
1736.25,585.247518091027
1736.5,586.297733401162
1736.75,586.182891604527
1737,584.314461081968
1737.25,581.863050173103
1737.5,580.642344636719
1737.75,581.078552756486
1738,582.197639713991
1738.25,583.210602904085
1738.5,583.923185673593
1738.75,584.243133586067
1739,584.169564995782
1739.25,583.73623675274
1739.5,582.945225798772
1739.75,581.768062768394
1740,580.329945616542
1740.25,579.129385522322
1740.5,578.636487820066
1740.75,578.785922963838
1741,579.309761866533
1741.25,580.11710663551
1741.5,581.281546014734
1741.75,582.844771159168
1742,584.766395616141
1742.25,586.958536272213
1742.5,589.127108670303
1742.75,590.894324257596
1743,591.660576365216
1743.25,590.634941647934
1743.5,587.97859836696
1743.75,586.060215053628
1744,587.06209497749
1744.25,589.779733003938
1744.5,591.657697272566
1744.75,591.762814868937
1745,590.872357897848
1745.25,589.774056455601
1745.5,589.05536636301
1745.75,589.172685783935
1746,589.755638076186
1746.25,590.028057222804
1746.5,589.869017056319
1746.75,590.02035000334
1747,590.941318019045
1747.25,591.869789862545
1747.5,591.855167213375
1747.75,590.89851170368
1748,589.597442278937
1748.25,588.490087835031
1748.5,588.000807213154
1748.75,588.422788588039
1749,589.487184422419
1749.25,590.742032316544
1749.5,591.441937051363
1749.75,590.620493990879
1750,588.239398142439
1750.25,586.141384019825
1750.5,585.961585577299
1750.75,586.787558485994
1751,586.863392123377
1751.25,586.133823681506
1751.5,586.118925863069
1751.75,587.50770294474
1752,588.891667492538
1752.25,588.877148161183
1752.5,588.151450424544
1752.75,588.200383483322
1753,589.454558227359
1753.25,591.233144862268
1753.5,592.980366028377
1753.75,594.626336895403
1754,596.165409035219
1754.25,597.44292184226
1754.5,598.233021201332
1754.75,598.41387132298
1755,598.004963919849
1755.25,597.050424161329
1755.5,595.654086487466
1755.75,593.959983548195
1756,592.484161090619
1756.25,592.02491697961
1756.5,592.815866300035
1756.75,593.886649643077
1757,594.28534234099
1757.25,594.127557931471
1757.5,593.929467681269
1757.75,593.917903619778
1758,594.011428527497
1758.25,594.103354756006
1758.5,594.056331252983
1758.75,593.750463543351
1759,593.284789110606
1759.25,592.878611333066
1759.5,592.727138747861
1759.75,592.987870898546
1760,593.730844148496
1760.25,594.664256427637
1760.5,595.399177965636
1760.75,595.544056949617
1761,594.708133798711
1761.25,592.93925830463
1761.5,591.198342455181
1761.75,590.372465818157
1762,590.144658187569
1762.25,589.751221132998
1762.5,589.145989602804
1762.75,589.037748531659
1763,589.806978130868
1763.25,590.816030722785
1763.5,591.327859504434
1763.75,591.244600014605
1764,590.786061069786
1764.25,590.244063908936
1764.5,590.000842509414
1764.75,590.296354440786
1765,590.839464920775
1765.25,591.258879750595
1765.5,591.616680190998
1765.75,592.245058829787
1766,593.346075372397
1766.25,594.901861607819
1766.5,596.664164229744
1766.75,597.393388611502
1767,595.682349910463
1767.25,592.274376602965
1767.5,589.723760746632
1767.75,589.438812458273
1768,589.963774822994
1768.25,589.70908619379
1768.5,589.068655851328
1768.75,589.243890131091
1769,590.298785781871
1769.25,591.021467379057
1769.5,590.66501541584
1769.75,590.059946500156
1770,590.190495459963
1770.25,590.794264209849
1770.5,590.96301933352
1770.75,590.651484517429
1771,591.014263769841
1771.25,592.851455820848
1771.5,595.261614195273
1771.75,597.030650158873
1772,598.142036470648
1772.25,599.382160289194
1772.5,600.813462671779
1772.75,601.120305902675
1773,599.21767221756
1773.25,596.288494632859
1773.5,594.300636365939
1773.75,593.847232802396
1774,594.01374626339
1774.25,594.057298071188
1774.5,594.006791850833
1774.75,594.020092890381
1775,594.050808306805
1775.25,593.93616789996
1775.5,593.586576537579
1775.75,593.028161645568
1776,592.360223805695
1776.25,591.969759835886
1776.5,592.306307221332
1776.75,593.513156413822
1777,595.48617222447
1777.25,597.739009711512
1777.5,598.986704606962
1777.75,598.182926131765
1778,596.521988151546
1778.25,596.047524889957
1778.5,597.097722278903
1778.75,598.018306036645
1779,597.583810449215
1779.25,596.395239260666
1779.5,595.369087213944
1779.75,594.611934031815
1780,593.709736590949
1780.25,592.625013142253
1780.5,592.008073564629
1780.75,592.353707417401
1781,592.949191519666
1781.25,592.736535048114
1781.5,591.731209078822
1781.75,590.922256461119
1782,590.873495617144
1782.25,591.014274903789
1782.5,590.754654697163
1782.75,590.626333802087
1783,591.632221277742
1783.25,593.827849933841
1783.5,596.149306176609
1783.75,597.760501545788
1784,598.765243463931
1784.25,599.414483186947
1784.5,599.514049070051
1784.75,598.606097451859
1785,596.787068313725
1785.25,595.117427594458
1785.5,594.534437946361
1785.75,594.780644545698
1786,595.201953568708
1786.25,595.334384094523
1786.5,594.896617592132
1786.75,593.893388248805
1787,593.073253954871
1787.25,593.205780758745
1787.5,594.1956445974
1787.75,595.510825189373
1788,596.620349384852
1788.25,596.999203511808
1788.5,596.430861409065
1788.75,595.912583444086
1789,596.62829398072
1789.25,598.190877126999
1789.5,599.06328306345
1789.75,598.597436497525
1790,598.008985344953
1790.25,598.487571320288
1790.5,599.563609423712
1790.75,600.115413397074
1791,599.553163135086
1791.25,597.903132594112
1791.5,595.467391465641
1791.75,593.39237058215
1792,592.880370640867
1792.25,593.563525185233
1792.5,594.0319531524
1792.75,593.62174848822
1793,593.03438566976
1793.25,592.935159101865
1793.5,593.04448778751
1793.75,592.800354128105
1794,592.251542767924
1794.25,592.006498408696
1794.5,592.382718903727
1794.75,592.921335839122
1795,593.15710922022
1795.25,593.474870270452
1795.5,594.623632059554
1795.75,596.517965287732
1796,598.044413615269
1796.25,598.402746845967
1796.5,598.108117564666
1796.75,597.892722606052
1797,597.63153078705
1797.25,596.630278489722
1797.5,594.643112475355
1797.75,592.288825519715
1798,590.25777712236
1798.25,589.09844470249
1798.5,589.26836964779
1798.75,590.342458649157
1799,591.02582710605
1799.25,590.502021874875
1799.5,589.283029206759
1799.75,588.054390680783
1800,587.210277416019
1800.25,587.000396322557
1800.5,587.399736199471
1800.75,588.053609464951
1801,588.635765202037
1801.25,588.970791454708
1801.5,588.954252006767
1801.75,588.868658797011
1802,589.199220990009
1802.25,590.05448507796
1802.5,591.014760618534
1802.75,591.615629273656
1803,591.3716378247
1803.25,589.86431074845
1803.5,587.554403961422
1803.75,585.486069568532
1804,584.314155570553
1804.25,583.995081346908
1804.5,584.347857418118
1804.75,584.874755533144
1805,585.012033172932
1805.25,584.589949144309
1805.5,583.736148684396
1805.75,582.713634417798
1806,582.021596403007
1806.25,582.002293371542
1806.5,582.105942417029
1806.75,581.572772762068
1807,580.556782803016
1807.25,579.902029271183
1807.5,580.096082273355
1807.75,580.95240477997
1808,582.135114741251
1808.25,582.950396171755
1808.5,582.660789106352
1808.75,581.293468629206
1809,579.414010370276
1809.25,577.528313008883
1809.5,576.022330714354
1809.75,575.110475959263
1810,574.330032825026
1810.25,573.110310635198
1810.5,571.677119869654
1810.75,570.741758134203
1811,570.405195826434
1811.25,569.924920597504
1811.5,568.888433606594
1811.75,568.053912897694
1812,568.211261942687
1812.25,568.844771271589
1812.5,568.930980264842
1812.75,568.380083218524
1813,567.929904149407
1813.25,567.936706405818
1813.5,568.000196794632
1813.75,567.824698647377
1814,567.865352867903
1814.25,568.657465634119
1814.5,569.703387200768
1814.75,569.961930386443
1815,569.13018469796
1815.25,567.745948005551
1815.5,566.30557253853
1815.75,565.097067529186
1816,564.3367849015
1816.25,564.020358204684
1816.5,564.05285132811
1816.75,564.128023758542
1817,563.806255876524
1817.25,563.175532928605
1817.5,563.039614620648
1817.75,563.71513052921
1818,564.050546130239
1818.25,562.982903355248
1818.5,561.402652365602
1818.75,560.807636013489
1819,561.385260324971
1819.25,562.375076432302
1819.5,563.298337752164
1819.75,564.09465997926
1820,564.705517941785
1820.25,564.994044324243
1820.5,564.839388104266
1820.75,564.292515219575
1821,563.470825465621
1821.25,562.547474985955
1821.5,561.73589642248
1821.75,561.193991444056
1822,560.997337058084
1822.25,561.088372897405
1822.5,561.043168508413
1822.75,560.514362927596
1823,560.011843132822
1823.25,560.282143000128
1823.5,560.935282277088
1823.75,560.778366366653
1824,559.679593019004
1824.25,558.98008671302
1824.5,559.571747346882
1824.75,560.865698793179
1825,562.098516697179
1825.25,562.882003355986
1825.5,563.004858812784
1825.75,562.870344761279
1826,563.269239084609
1826.25,564.282119122316
1826.5,565.070929619998
1826.75,565.004823328732
1827,564.134005235062
1827.25,562.690824669451
1827.5,561.323387775037
1827.75,560.757849200362
1828,560.88236840307
1828.25,561.012160519479
1828.5,560.929228287835
1828.75,561.048035398639
1829,561.56245579595
1829.25,561.986095217504
1829.5,561.903832910294
1829.75,561.855161212342
1830,562.596538026453
1830.25,563.688577384956
1830.5,563.931750918361
1830.75,563.259411142173
1831,563.057586905961
1831.25,564.173516143943
1831.5,565.843594957547
1831.75,567.170136294881
1832,567.894618333994
1832.25,568.003863403172
1832.5,567.886897704495
1832.75,568.198699255782
1833,568.898539663847
1833.25,568.947309155757
1833.5,567.739602683312
1833.75,566.21575404846
1834,565.473531241185
1834.25,565.671518999687
1834.5,566.552457311103
1834.75,567.588194081747
1835,568.022265408829
1835.25,567.606247527209
1835.5,566.991866420649
1835.75,566.765185888699
1836,566.919122227475
1836.25,567.305562940004
1836.5,567.774371196384
1836.75,568.181577037867
1837,568.564603609959
1837.25,569.150556677465
1837.5,570.024658739952
1837.75,570.944059883574
1838,571.714891747462
1838.25,572.593371916653
1838.5,573.896556525182
1838.75,574.993807690342
1839,574.6371830098
1839.25,572.741345297752
1839.5,570.929085172764
1839.75,570.453186883669
1840,570.86598244513
1840.25,571.420888249909
1840.5,571.846356509223
1840.75,572.100252335027
1841,572.143079811954
1841.25,571.936846435332
1841.5,571.509712112522
1841.75,571.036773063002
1842,570.657486731663
1842.25,570.223369802906
1842.5,569.534914961664
1842.75,568.955748830998
1843,569.239428346503
1843.25,570.539580576759
1843.5,572.105960140959
1843.75,573.279607617887
1844,573.930658544047
1844.25,574.071165951798
1844.5,573.990852417059
1844.75,574.0880251403
1845,574.251667715095
1845.25,573.847971307955
1845.5,572.606128559733
1845.75,571.135036792942
1846,570.103682164514
1846.25,569.84560473502
1846.5,570.529780496322
1846.75,571.603914868147
1847,571.993598939275
1847.25,571.445398604207
1847.5,570.998087416079
1847.75,571.394029338953
1848,571.952184524783
1848.25,571.812896664832
1848.5,571.222399181732
1848.75,570.960922959383
1849,571.343961504918
1849.25,572.184155004445
1849.5,573.201060252788
1849.75,573.9569945658
1850,574.175613303904
1850.25,574.568214501175
1850.5,576.056610787939
1850.75,577.796515679817
1851,577.624938414699
1851.25,574.977276774202
1851.5,572.015317502031
1851.75,570.576441317466
1852,570.116677428019
1852.25,569.592512390304
1852.5,569.052528414151
1852.75,569.163886015677
1853,570.048584697657
1853.25,571.156647298689
1853.5,571.955032108727
1853.75,572.058742313554
1854,571.25666942834
1854.25,570.242382691151
1854.5,569.988967695526
1854.75,570.532766311756
1855,571.149692492767
1855.25,571.512473256665
1855.5,572.009536780842
1855.75,572.919184231062
1856,573.827672131926
1856.25,574.214881100623
1856.5,574.126523646465
1856.75,573.910382435675
1857,573.603097934682
1857.25,572.863605535846
1857.5,571.560040043418
1857.75,570.185157715369
1858,569.273797780429
1858.25,568.957958871775
1858.5,569.195897890161
1858.75,569.715413112978
1859,570.051732535405
1859.25,570.030502694112
1859.5,570.000532173194
1859.75,570.189565990489
1860,570.139043198013
1860.25,569.331151987346
1860.5,568.284258576603
1860.75,568.060790686594
1861,568.927170893234
1861.25,570.225356846713
1861.5,571.35473162553
1861.75,571.976166353773
1862,571.931330447976
1862.25,571.847175660294
1862.5,572.5582256568
1862.75,573.993274722512
1863,575.393503647655
1863.25,575.979133054229
1863.5,574.964184675063
1863.75,572.129534603908
1864,569.410237803788
1864.25,568.973755566375
1864.5,570.278783263282
1864.75,571.301202658501
1865,571.28331622014
1865.25,570.962347793215
1865.5,570.897535194628
1865.75,570.987795502813
1866,571.051384096952
1866.25,571.033227077081
1866.5,570.932776306484
1866.75,570.881701857751
1867,571.115418970487
1867.25,571.809043350555
1867.5,573.032183047982
1867.75,574.659402711822
1868,575.871270937657
1868.25,575.838337604496
1868.5,575.155197567695
1868.75,575.154153439834
1869,575.899658030685
1869.25,575.907164195264
1869.5,574.323450935561
1869.75,572.295183165154
1870,571.132051286869
1870.25,570.908457287387
1870.5,571.184161352629
1870.75,571.64678488568
1871,572.102517545494
1871.25,572.326709154226
1871.5,572.026180357249
1871.75,571.076740930682
1872,570.148516128882
1872.25,570.050137748711
1872.5,570.633208190995
1872.75,571.157319494707
1873,571.451427126933
1873.25,572.109342274617
1873.5,573.445406654707
1873.75,574.814534814772
1874,575.531891163913
1874.25,575.827625964169
1874.5,576.287721306999
1874.75,576.870074542063
1875,576.939515309486
1875.25,576.195425808951
1875.5,575.097667736443
1875.75,574.120230646285
1876,573.300309461291
1876.25,572.549741699636
1876.5,572.034220208973
1876.75,572.10371768341
1877,572.682284514078
1877.25,572.997688442463
1877.5,572.544300794041
1877.75,572.024900395264
1878,572.280573106409
1878.25,572.89792323212
1878.5,572.832285898493
1878.75,572.130922510237
1879,572.092239612396
1879.25,573.376114774679
1879.5,574.863839931595
1879.75,575.445187910207
1880,575.695769519518
1880.25,576.730707714423
1880.5,578.303393000881
1880.75,579.038465463707
1881,578.328433072414
1881.25,577.059845857785
1881.5,576.080663664281
1881.75,575.300637083686
1882,574.411961368814
1882.25,573.811448588946
1882.5,574.364652060763
1882.75,575.963962914898
1883,577.011354557907
1883.25,576.405921717811
1883.5,575.216364062404
1883.75,574.812877008954
1884,575.008223860726
1884.25,574.81468904468
1884.5,574.159963989707
1884.75,574.057684222912
1885,575.123360521007
1885.25,576.745567111212
1885.5,578.161749576819
1885.75,578.939810577714
1886,578.813240938175
1886.25,578.185109144356
1886.5,578.067409567887
1886.75,578.767421254542
1887,579.047118430704
1887.25,577.810499734256
1887.5,575.767655267922
1887.75,574.167686701488
1888,573.338927088767
1888.25,572.884070736248
1888.5,572.659407230889
1888.75,572.998160644654
1889,574.036867183746
1889.25,574.926431511874
1889.5,574.693569550175
1889.75,573.621026446161
1890,572.704352327672
1890.25,572.301996558445
1890.5,571.945506213604
1890.75,571.363044741394
1891,570.998782859466
1891.25,571.346472979924
1891.5,572.37239586363
1891.75,573.814696162514
1892,575.255359532966
1892.25,576.139703983905
1892.5,576.246486280087
1892.75,576.012449834848
1893,575.8077090699
1893.25,575.331833362202
1893.5,574.152446955689
1893.75,572.670193822059
1894,571.847219485664
1894.25,571.916427276214
1894.5,571.987736299095
1894.75,571.454387056921
1895,570.994587291885
1895.25,571.427724491378
1895.5,572.479660595328
1895.75,573.357705747243
1896,573.789090242556
1896.25,574.050322869551
1896.5,574.389036308446
1896.75,574.926766097956
1897,575.72859017439
1897.25,576.645475222738
1897.5,577.472796946982
1897.75,578.279571873052
1898,579.346243217126
1898.25,580.709808956136
1898.5,581.968124607797
1898.75,582.750335408749
1899,583.018682318385
1899.25,582.855685605599
1899.5,582.71438724598
1899.75,583.292490116959
1900,584.512601590522
1900.25,585.00865580796
1900.5,583.82486823024
1900.75,582.276987598858
1901,582.139529432469
1901.25,583.264255607331
1901.5,584.17422498421
1901.75,584.19104607617
1902,584.000399771932
1902.25,584.240229053506
1902.5,584.788698430708
1902.75,585.353847902167
1903,586.102585253878
1903.25,587.51430636959
1903.5,589.494961309521
1903.75,590.96109019864
1904,591.107073874625
1904.25,590.870012855561
1904.5,591.598241378905
1904.75,593.129281342234
1905,594.097149819371
1905.25,593.814083364639
1905.5,593.087841072721
1905.75,592.7800244032
1906,592.889721972582
1906.25,593.080898184328
1906.5,593.137044174556
1906.75,592.970700646083
1907,592.666834893362
1907.25,592.801610371613
1907.5,593.918378674578
1907.75,595.412352274753
1908,596.071759737145
1908.25,595.594025576975
1908.5,595.006622704402
1908.75,595.239083942538
1909,596.344022140002
1909.25,598.113865410886
1909.5,599.989134247385
1909.75,601.137426730881
1910,601.22033051058
1910.25,601.000445564183
1910.5,601.292304206725
1910.75,602.216754675263
1911,603.576578838741
1911.25,604.83443476135
1911.5,605.010280676865
1911.75,603.656680774282
1912,602.674997759663
1912.25,604.435771775625
1912.5,608.835018117478
1912.75,613.685866980854
1913,617.427993300333
1913.25,620.260616122302
1913.5,622.628439577868
1913.75,624.666253048161
1914,626.327201294389
1914.25,627.62499720738
1914.5,628.706910992917
1914.75,629.737505394417
1915,630.883549708554
1915.25,632.312261868459
1915.5,634.01486748568
1915.75,635.587330700819
1916,636.603842274846
1916.25,637.007798495276
1916.5,636.978854202347
1916.75,636.680278364328
1917,636.219534872255
1917.25,635.684569320465
1917.5,634.999921926291
1917.75,633.95675656867
1918,632.519989760774
1918.25,631.296920226094
1918.5,630.997228717329
1918.75,631.336240817241
1919,631.028924192464
1919.25,629.194476222549
1919.5,626.892144362663
1919.75,625.66840430067
1920,625.961203809997
1920.25,626.944395993445
1920.5,627.808617799829
1920.75,628.147775954299
1921,627.691000126595
1921.25,626.690228660908
1921.5,626.012554661818
1921.75,626.302232263294
1922,626.912475504804
1922.25,626.814586587985
1922.5,625.698369071339
1922.75,624.135408057632
1923,622.630967155482
1923.25,621.066139943239
1923.5,619.132035999895
1923.75,616.933485645483
1924,615.088436045699
1924.25,614.06085212296
1924.5,613.41786415477
1924.75,612.479537562093
1925,611.15468516572
1925.25,609.976153354836
1925.5,609.347307561434
1925.75,609.080727922753
1926,608.860153400892
1926.25,608.494166288747
1926.5,607.89132405921
1926.75,607.051788218092
1927,606.204220673926
1927.25,605.588752360721
1927.5,605.205012916556
1927.75,604.917400395468
1928,604.589017403644
1928.25,604.083330907009
1928.5,603.26058703187
1928.75,601.961938847668
1929,600.036927903452
1929.25,597.768735871398
1929.5,595.924713665418
1929.75,594.977092826663
1930,594.306160896607
1930.25,593.145600111445
1930.5,591.713886381083
1930.75,590.852665475721
1931,590.846758469431
1931.25,591.00337103554
1931.5,590.704137583764
1931.75,590.176687057149
1932,589.873235775194
1932.25,589.622628204845
1932.5,588.731795497568
1932.75,587.110281275761
1933,586.026600720934
1933.25,586.637849600629
1933.5,588.257779184435
1933.75,589.512786048679
1934,589.702943212786
1934.25,588.794330145292
1934.5,587.142267028409
1934.75,586.030976645661
1935,586.640573748458
1935.25,588.255405071505
1935.5,589.323240187412
1935.75,589.114532930765
1936,587.842796582052
1936.25,585.929184411265
1936.5,584.267796760941
1936.75,583.708858406365
1937,583.912812635892
1937.25,583.930622395018
1937.5,583.449763267703
1937.75,582.979198626811
1938,582.898058356578
1938.25,582.989559371872
1938.5,582.928128515689
1938.75,582.496766770246
1939,581.548878551208
1939.25,580.411783297776
1939.5,580.018248759865
1939.75,580.856202425945
1940,581.877216532663
1940.25,581.870758497172
1940.5,580.828732446529
1940.75,579.34590359612
1941,577.919286697104
1941.25,576.922690998525
1941.5,576.495702034554
1941.75,576.12263037617
1942,575.285642010095
1942.25,574.315036422489
1942.5,573.889597555696
1942.75,573.999095071144
1943,573.9406221826
1943.25,573.401556872561
1943.5,573.003370256201
1943.75,573.305814455434
1944,573.873010819462
1944.25,574.000758635863
1944.5,573.850477218863
1944.75,574.216402411122
1945,575.244117177469
1945.25,576.006602716849
1945.5,575.804125463919
1945.75,575.154011780291
1946,574.795556210343
1946.25,574.856599651222
1946.5,575.118849478419
1946.75,575.275987003038
1947,574.917682626927
1947.25,573.932821031876
1947.5,573.072616129525
1947.75,573.09100748754
1948,573.70704968263
1948.25,574.216282187796
1948.5,574.272453274775
1948.75,573.86712615769
1949,573.218516529635
1949.25,572.983677338192
1949.5,573.659983796912
1949.75,574.702462647689
1950,575.297690758896
1950.25,575.257102471453
1950.5,574.823538502015
1950.75,574.287256990089
1951,573.997439795859
1951.25,574.20638466233
1951.5,574.807162342783
1951.75,575.619181549383
1952,576.510711693886
1952.25,577.371498645634
1952.5,577.972032764227
1952.75,577.945631383172
1953,577.163833201187
1953.25,576.152597644879
1953.5,575.465712640447
1953.75,575.113358362508
1954,574.889956548286
1954.25,574.812825997604
1954.5,575.10876854352
1954.75,575.726360438584
1955,576.012820152082
1955.25,575.49104102409
1955.5,574.956568420628
1955.75,575.496320537965
1956,576.658962198967
1956.25,576.881538655775
1956.5,575.794684495584
1956.75,574.999342739566
1957,575.694373754128
1957.25,576.821550129316
1957.5,576.941758545876
1957.75,576.280550234902
1958,575.998881409388
1958.25,576.471011182068
1958.5,577.039753831431
1958.75,577.191437304231
1959,577.046036949904
1959.25,576.803316412543
1959.5,576.372003700286
1959.75,575.543290071683
1960,574.525087357394
1960.25,573.961859741102
1960.5,574.212730740047
1960.75,574.91019731201
1961,575.662238447884
1961.25,576.539752472459
1961.5,577.770642035206
1961.75,579.466691337393
1962,581.643025186915
1962.25,584.045190080785
1962.5,585.933184710484
1962.75,586.804772268463
1963,587.502495684289
1963.25,589.164411459982
1963.5,591.539472283679
1963.75,593.331005812039
1964,594.055477218671
1964.25,594.841912611167
1964.5,596.662742803657
1964.75,598.54988131682
1965,598.928140883069
1965.25,598.074949379485
1965.5,598.110881083839
1965.75,600.118072151684
1966,601.914078441189
1966.25,601.060065024304
1966.5,598.4254381678
1966.75,596.739159121669
1967,597.27915798609
1967.25,598.866716506767
1967.5,600.358074013677
1967.75,601.98209041879
1968,604.349786742726
1968.25,606.906304179422
1968.5,607.996480358984
1968.75,606.828826234127
1969,605.229035620962
1969.25,605.289093030887
1969.5,606.834121228223
1969.75,608.277082704159
1970,608.776041806628
1970.25,608.946316992816
1970.5,609.50867768892
1970.75,610.792096168998
1971,612.946473871793
1971.25,615.46655468226
1971.5,616.973920763066
1971.75,616.551949721463
1972,615.772369186443
1972.25,616.866823904584
1972.5,619.979997984242
1972.75,623.022786669241
1973,624.390650253554
1973.25,624.785007878707
1973.5,625.407962938425
1973.75,626.216405978274
1974,625.979051544519
1974.25,623.983480321072
1974.5,621.663504694046
1974.75,620.883100551577
1975,621.819904315682
1975.25,623.025605354018
1975.5,623.371206605914
1975.75,623.137042650319
1976,622.906660666023
1976.25,622.899573297973
1976.5,623.005607682408
1976.75,623.03028901749
1977,622.526801446555
1977.25,621.034904914503
1977.5,618.844744672317
1977.75,616.898116628242
1978,615.836905594003
1978.25,615.246799904273
1978.5,614.532720672613
1978.75,613.638747442013
1979,612.926016324632
1979.25,612.664777642287
1979.5,612.854540166791
1979.75,613.420584788029
1980,613.966180622414
1980.25,613.900326587425
1980.5,613.056308671835
1980.75,612.134345031996
1981,611.829502966841
1981.25,611.962507934897
1981.5,611.940711672259
1981.75,611.372266998146
1982,610.183346163058
1982.25,608.469534131506
1982.5,607.13637122109
1982.75,607.327067942932
1983,608.661594915783
1983.25,608.98728879497
1983.5,606.784742733734
1983.75,603.345886750935
1984,600.552631226055
1984.25,598.915340602051
1984.5,597.82648968067
1984.75,596.861214174975
1985,596.117414961406
1985.25,595.753864912414
1985.5,595.794950534942
1985.75,596.192274603728
1986,596.54484824045
1986.25,595.986920711742
1986.5,594.01827753326
1986.75,591.680918641352
1987,590.30108851207
1987.25,589.989744046651
1987.5,589.987831863385
1987.75,589.88607642946
1988,589.968469837163
1988.25,590.415133250462
1988.5,590.436671273436
1988.75,588.997041686736
1989,586.537991447273
1989.25,584.821786371338
1989.5,584.611313018744
1989.75,584.214240649648
1990,582.004707873374
1990.25,579.062436327222
1990.5,577.466720391804
1990.75,577.576668352678
1991,578.057873089302
1991.25,578.058870705221
1991.5,577.98638785095
1991.75,578.249929150845
1992,578.283395249504
1992.25,577.252702413365
1992.5,575.640620203853
1992.75,575.017492417217
1993,575.940486949695
1993.25,576.978544269898
1993.5,576.876354695329
1993.75,576.184670229082
1994,575.887901776589
1994.25,576.003748987685
1994.5,575.902819355325
1994.75,575.207469436198
1995,573.935521363138
1995.25,572.210575742931
1995.5,570.414756074843
1995.75,568.968991467077
1996,568.134132982716
1996.25,568.074164752587
1996.5,568.584760259957
1996.75,569.061097240386
1997,569.133172881062
1997.25,569.009877822542
1997.5,568.940149988015
1997.75,568.969297602893
1998,569.06925279496
1998.25,569.105126911592
1998.5,568.873056891064
1998.75,568.387470267575
1999,567.974910190466
1999.25,567.872839568327
1999.5,567.973474897248
1999.75,568.103833984381
2000,568.095027653977
2000.25,567.793419000077
2000.5,567.297895873311
2000.75,566.927880462978
2001,566.687428611139
2001.25,565.993074549837
2001.5,564.516361460692
2001.75,563.174743680657
2002,563.030370651994
2002.25,563.705506576475
2002.5,564.1014587004
2002.75,563.995872817733
2003,564.069480528955
2003.25,564.605748882493
2003.5,564.998394564252
2003.75,564.732771969871
2004,564.145904980756
2004.25,563.768404549326
2004.5,563.803533309847
2004.75,564.25996643255
2005,564.847917432711
2005.25,564.952699214996
2005.5,564.39679455806
2005.75,563.998511393498
2006,564.420552267866
2006.25,564.972548911861
2006.5,564.669633126239
2006.75,563.626663882667
2007,562.607403342262
2007.25,561.815788253551
2007.5,560.773871799703
2007.75,559.307059207575
2008,558.056420418167
2008.25,557.625654438361
2008.5,557.859244632043
2008.75,558.376522883273
2009,558.857333070609
2009.25,559.029650858465
2009.5,558.956949736113
2009.75,559.063048547374
2010,559.527782781664
2010.25,559.999380884189
2010.5,560.155189511457
2010.75,560.048587656732
2011,559.842801042456
2011.25,559.830805756523
2011.5,560.350631876669
2011.75,561.312058545186
2012,562.218170061807
2012.25,562.761379917081
2012.5,563.003883124375
2012.75,562.953252411686
2013,562.276297576565
2013.25,560.674150046864
2013.5,558.737356900112
2013.75,557.442781251306
2014,557.02115461823
2014.25,557.015122602746
2014.5,557.251713542205
2014.75,558.086578792434
2015,559.611171207234
2015.25,560.892702474446
2015.5,560.993244092677
2015.75,560.298658519348
2016,559.699622609782
2016.25,559.662399178911
2016.5,560.312886211551
2016.75,561.380073059365
2017,562.024510393134
2017.25,561.857988429513
2017.5,561.907940656126
2017.75,563.14252938206
2018,564.670451670887
2018.25,565.025800816753
2018.5,564.355225572686
2018.75,563.969479463329
2019,564.198661709616
2019.25,563.911143273808
2019.5,562.480095896769
2019.75,561.107845782981
2020,561.051495797424
2020.25,561.773030249413
2020.5,562.102760041019
2020.75,561.970388968021
2021,562.135966834434
2021.25,562.739841831754
2021.5,562.982809871726
2021.75,562.439023791238
2022,561.990553000931
2022.25,562.539277127581
2022.5,563.632826989314
2022.75,564.359090407331
2023,564.691286123689
2023.25,565.264696631677
2023.5,566.239995370002
2023.75,567.050043035364
2024,567.265603267198
2024.25,567.059087456496
2024.5,566.690455474798
2024.75,566.233428042025
2025,565.690464615976
2025.25,565.192753060115
2025.5,564.980549496277
2025.75,565.054474109405
2026,564.991619023886
2026.25,564.516415999539
2026.5,564.046666550805
2026.75,564.093420881689
2027,564.638186637078
2027.25,565.411190374149
2027.5,566.282548732453
2027.75,567.257995308603
2028,568.251957094299
2028.25,568.992942217828
2028.5,569.256644107015
2028.75,569.103236125152
2029,568.705403344094
2029.25,568.618336864143
2029.5,569.582680836953
2029.75,571.251455397121
2030,571.985660187388
2030.25,571.028621396623
2030.5,570.027978363022
2030.75,570.578419660339
2031,571.760488603048
2031.25,571.840166895542
2031.5,570.762334583622
2031.75,569.791139830935
2032,569.636090234529
2032.25,570.011394462242
2032.5,570.642124451566
2032.75,571.651881569733
2033,573.209122587274
2033.25,575.050569498726
2033.5,576.697364745728
2033.75,577.999348314913
2034,579.178879519983
2034.25,580.421360138166
2034.5,581.766132747375
2034.75,583.24455354317
2035,584.98833651292
2035.25,587.150909744872
2035.5,589.458856279266
2035.75,591.219819736745
2036,592.117398886798
2036.25,592.812350120897
2036.5,593.948763024624
2036.75,594.939432366708
2037,594.677129408252
2037.25,593.206112056984
2037.5,591.969868059586
2037.75,591.936244141295
2038,592.123849618411
2038.25,591.272391311669
2038.5,589.739593008284
2038.75,588.883355939861
2039,589.24134733923
2039.25,589.973396167093
2039.5,590.346131903736
2039.75,590.706848893192
2040,591.647513978647
2040.25,592.763819233301
2040.5,592.879222268342
2040.75,591.73020256287
2041,590.967849575835
2041.25,592.085760715615
2041.5,594.16544360121
2041.75,595.427790323171
2042,595.403969961709
2042.25,594.956436686788
2042.5,594.677138321718
2042.75,594.217709343778
2043,593.142896289734
2043.25,591.746897535334
2043.5,590.707181440551
2043.75,590.261014783198
2044,590.001808716616
2044.25,589.585786648468
2044.5,589.130255626575
2044.75,588.858841758755
2045,588.851953208401
2045.25,589.088862228856
2045.5,589.506007232226
2045.75,589.96659696802
2046,590.244043434377
2046.25,589.696601583441
2046.5,587.643414218772
2046.75,585.003807883796
2047,584.049791883286
2047.25,585.701767862124
2047.5,587.822809209593
2047.75,588.341618793062
2048,587.976840298418
2048.25,588.391483966209
2048.5,589.577100582109
2048.75,589.933006912755
2049,588.674507777014
2049.25,587.174789116867
2049.5,586.895103941722
2049.75,587.58154359437
2050,588.249279273326
2050.25,588.59370261224
2050.5,589.071885664013
2050.75,589.849266618476
2051,590.1240780015
2051.25,589.099087832118
2051.5,587.541100179203
2051.75,586.993689047294
2052,587.864684659093
2052.25,589.039831420655
2052.5,589.628188286354
2052.75,589.897909807672
2053,590.346278639237
2053.25,591.188698119592
2053.5,592.463859515106
2053.75,593.942599496345
2054,594.976704881272
2054.25,595.047172074417
2054.5,594.388194135028
2054.75,593.440458635898
2055,592.533712267526
2055.25,591.906899571443
2055.5,591.714367580891
2055.75,591.92880728253
2056,592.457213746361
2056.25,592.932899668489
2056.5,592.903864833188
2056.75,592.621887931488
2057,593.107158728157
2057.25,595.054787140391
2057.5,598.060334947841
2057.75,601.46830502613
2058,604.200292194201
2058.25,604.964567884713
2058.5,603.822938265623
2058.75,602.978411738837
2059,604.401303823819
2059.25,607.825891972891
2059.5,612.240232079034
2059.75,616.450583886598
2060,619.079300155406
2060.25,619.402063052662
2060.5,618.943345270775
2060.75,619.594669866262
2061,621.446562591329
2061.25,623.122593308976
2061.5,623.634983206436
2061.75,623.268717887362
2062,622.527400509511
2062.25,621.699645746839
2062.5,620.913056042403
2062.75,620.297454355001
2063,619.999874514549
2063.25,620.149948734933
2063.5,620.609982412275
2063.75,621.054324272972
2064,621.135062752438
2064.25,620.457693068454
2064.5,618.698459949116
2064.75,616.428453941205
2065,614.788220770258
2065.25,614.426062876874
2065.5,614.840864739223
2065.75,615.433461006295
2066,616.183914014424
2066.25,617.382868315776
2066.5,618.919558585222
2066.75,619.940269016699
2067,619.648199422851
2067.25,618.248228375636
2067.5,616.391329402733
2067.75,614.743836608173
2068,613.993343734539
2068.25,614.61047536298
2068.5,615.703780214114
2068.75,615.891957741715
2069,615.09765332623
2069.25,614.945709189714
2069.5,616.676500793318
2069.75,619.09984922698
2070,620.341320477375
2070.25,619.951554742772
2070.5,619.004657690722
2070.75,618.412061621577
2071,618.120765522512
2071.25,617.849732147026
2071.5,617.679356973666
2071.75,618.034444553771
2072,619.067874518332
2072.25,619.938337890622
2072.5,619.666266188885
2072.75,618.564381773962
2073,618.008794232307
2073.25,618.789682627718
2073.5,619.832175442832
2073.75,619.813013055951
2074,618.811111693727
2074.25,617.921992906648
2074.5,617.915680963511
2074.75,618.64722247713
2075,619.800796040046
2075.25,620.80339981174
2075.5,620.920264175828
2075.75,619.976610219074
2076,619.072589562425
2076.25,619.334361830353
2076.5,620.399279798431
2076.75,621.056266608585
2077,620.841436806002
2077.25,620.825910296336
2077.5,622.103220035838
2077.75,624.348354639898
2078,626.510998871207
2078.25,627.958641256552
2078.5,628.845503935321
2078.75,629.345840484769
2079,629.087114230111
2079.25,627.430382613206
2079.5,624.43728758296
2079.75,621.547121629903
2080,620.199444107482
2080.25,620.368036235412
2080.5,621.239728275765
2080.75,622.050882928154
2081,622.148569148043
2081.25,621.018328130761
2081.5,619.182114008655
2081.75,617.666679104982
2082,617.028923815152
2082.25,616.975231945596
2082.5,617.165705139073
2082.75,617.567764741649
2083,618.280638318426
2083.25,619.205431646567
2083.5,619.939490953281
2083.75,620.189006833028
2084,620.4663260561
2084.25,621.563033753506
2084.5,623.436851324039
2084.75,624.922492886426
2085,624.961033610368
2085.25,623.489073753758
2085.5,620.791430594998
2085.75,617.752664236204
2086,616.030938636853
2086.25,616.807454767345
2086.5,618.530487489791
2086.75,618.835143760163
2087,617.35820987765
2087.25,616.014502366997
2087.5,616.316714569501
2087.75,617.507554928965
2088,618.261653844676
2088.25,618.226315637276
2088.5,617.995118249227
2088.75,618.08804224455
2089,618.623317426809
2089.25,619.606182931217
2089.5,620.638539995383
2089.75,620.983528402771
2090,620.267775951155
2090.25,619.260470340416
2090.5,618.894666726251
2090.75,619.322762554511
2091,620.106384546175
2091.25,620.720638696894
2091.5,620.445134635863
2091.75,618.647962546516
2092,616.194093029829
2092.25,614.953600236878
2092.5,615.869507460676
2092.75,617.591808325216
2093,618.581805133578
2093.25,618.813457682854
2093.5,619.12485058805
2093.75,619.940261316651
2094,620.834034142665
2094.25,621.323567972275
2094.5,621.297581666143
2094.75,620.831443692364
2095,620.184273529958
2095.25,619.942845300805
2095.5,620.626109185992
2095.75,621.985902838672
2096,623.427108300751
2096.25,624.498889592509
2096.5,624.988432526294
2096.75,624.74160657501
2097,623.857245019209
2097.25,622.540178144063
2097.5,620.97022423439
2097.75,619.286714727618
2098,617.651828176863
2098.25,616.405218877993
2098.5,615.955033665907
2098.75,616.478229850489
2099,617.81282758699
2099.25,619.738324371191
2099.5,621.858547101588
2099.75,623.72245120598
2100,625.084766604522
2100.25,625.954849265319
2100.5,626.403200236897
2100.75,626.726567056617
2101,627.287995555469
2101.25,628.310189462282
2101.5,629.844029270358
2101.75,631.856544248311
2102,633.935207869682
2102.25,635.549157779977
2102.5,636.329537751764
2102.75,636.121022877156
2103,634.875262901841
2103.25,633.118603247321
2103.5,631.592768748297
2103.75,630.668410347258
2104,630.104183163685
2104.25,629.661813854296
2104.5,629.573446383565
2104.75,630.288860244156
2105,631.86416802227
2105.25,633.61451692518
2105.5,634.850221313254
2105.75,635.566418316349
2106,636.117627754865
2106.25,636.779476825302
2106.5,637.647817352023
2106.75,638.777591613455
2107,640.02203480019
