1964,42.293116727614
1964.25,42.3980453707
1964.5,42.5029740137859
1964.75,42.607902656872
1965,42.712831299958
1965.25,42.8177599430439
1965.5,42.9226885861299
1965.75,43.0276172292159
1966,43.1325458723018
1966.25,43.2374745153878
1966.5,43.3424031584739
1966.75,43.4473318015598
1967,43.5124429630109
1967.25,43.5374259732695
1967.5,43.562408983528
1967.75,43.5873919937866
1968,43.6123750040452
1968.25,43.6373580143038
1968.5,43.6623410245623
1968.75,43.6873240348209
1969,43.7123070450795
1969.25,43.737290055338
1969.5,43.7622730655966
1969.75,43.7872560758552
1970,43.8122390861137
1970.25,43.8372220963723
1970.5,43.8622051066309
1970.75,43.8871881168894
1971,43.912171127148
1971.25,43.9371541374066
1971.5,43.9621371476651
1971.75,43.9871201579237
1972,44.0290476036374
1972.25,44.089006828258
1972.5,44.1489660528785
1972.75,44.2089252774991
1973,44.2688845021197
1973.25,44.3288437267402
1973.5,44.3888029513608
1973.75,44.4487621759814
1974,44.5087214006019
1974.25,44.5686806252225
1974.5,44.6286398498431
1974.75,44.6885990744636
1975,44.7485582990842
1975.25,44.8085175237047
1975.5,44.8684767483253
1975.75,44.9284359729458
1976,44.9883951975664
1976.25,45.048354422187
1976.5,45.1083136468075
1976.75,45.1682728714281
1977,45.1388304585612
1977.25,45.0089188052167
1977.5,44.8790071518721
1977.75,44.7490954985275
1978,44.6191838451831
1978.25,44.4892721918385
1978.5,44.3593605384939
1978.75,44.2294488851493
1979,44.0995372318048
1979.25,43.9696255784602
1979.5,43.8397139251157
1979.75,43.7098022717712
1980,43.5798906184266
1980.25,43.449978965082
1980.5,43.3200673117375
1980.75,43.1901556583929
1981,43.0602440050484
1981.25,42.9303323517039
1981.5,42.8004206983593
1981.75,42.6705090450147
1982,42.6319860198699
1982.25,42.7019384485939
1982.5,42.7718908773179
1982.75,42.8418433060419
1983,42.9117957347658
1983.25,42.9817481634899
1983.5,43.0517005922139
1983.75,43.1216530209378
1984,43.1916054496618
1984.25,43.2615578783858
1984.5,43.3315103071098
1984.75,43.4014627358338
1985,43.4714151645578
1985.25,43.5413675932817
1985.5,43.6113200220057
1985.75,43.6812724507298
1986,43.7512248794538
1986.25,43.8211773081777
1986.5,43.8911297369017
1986.75,43.9610821656257
1987,43.9268470276043
1987.25,43.7619591598977
1987.5,43.5970712921912
1987.75,43.4321834244847
1988,43.2672955567781
1988.25,43.1024076890715
1988.5,42.9375198213651
1988.75,42.7726319536585
1989,42.6077440859519
1989.25,42.4428562182453
1989.5,42.2779683505389
1989.75,42.1130804828323
1990,41.9481926151257
1990.25,41.7833047474192
1990.5,41.6184168797126
1990.75,41.453529012006
1991,41.2886411442996
1991.25,41.123753276593
1991.5,40.9588654088864
1991.75,40.79397754118
1992,40.6376848645675
1992.25,40.4927834050678
1992.5,40.347881945568
1992.75,40.2029804860684
1993,40.0580790265687
1993.25,39.913177567069
1993.5,39.7682761075694
1993.75,39.6233746480696
1994,39.4784731885699
1994.25,39.3335717290703
1994.5,39.1886702695706
1994.75,39.0437688100708
1995,38.8988673505712
1995.25,38.7539658910715
1995.5,38.6090644315718
1995.75,38.4641629720722
1996,38.3192615125724
1996.25,38.1743600530727
1996.5,38.029458593573
1996.75,37.8845571340734
1997,37.7979191611922
1997.25,37.7929225591405
1997.5,37.7879259570888
1997.75,37.7829293550371
1998,37.7779327529853
1998.25,37.7729361509336
1998.5,37.7679395488819
1998.75,37.7629429468302
1999,37.7579463447785
1999.25,37.7529497427268
1999.5,37.7479531406751
1999.75,37.7429565386233
2000,37.7379599365716
2000.25,37.7329633345199
2000.5,37.7279667324682
2000.75,37.7229701304165
2001,37.7179735283648
2001.25,37.7129769263131
2001.5,37.7079803242614
2001.75,37.7029837222096
2002,37.7040257596842
2002.25,37.7140189637876
2002.5,37.724012167891
2002.75,37.7340053719944
2003,37.7439985760979
2003.25,37.7539917802013
2003.5,37.7639849843047
2003.75,37.7739781884081
2004,37.7839713925116
2004.25,37.793964596615
2004.5,37.8039578007184
2004.75,37.8139510048218
2005,37.8239442089253
2005.25,37.8339374130287
2005.5,37.8439306171321
2005.75,37.8539238212356
2006,37.863917025339
2006.25,37.8739102294424
2006.5,37.8839034335458
2006.75,37.8938966376493
2007,37.9311187340216
2007.25,38.0110643668489
2007.5,38.0910099996764
2007.75,38.1709556325038
2008,38.2509012653312
2008.25,38.3308468981586
2008.5,38.4107925309861
2008.75,38.4907381638134
2009,38.5706837966409
2009.25,38.6506294294683
2009.5,38.7305750622957
2009.75,38.8105206951231
2010,38.8904663279506
2010.25,38.970411960778
2010.5,39.0503575936054
2010.75,39.1303032264328
2011,39.2102488592602
2011.25,39.2901944920876
2011.5,39.3701401249151
2011.75,39.4500857577425
2012,39.5769554383353
2012.25,39.7818161224556
2012.5,39.9866768065759
2012.75,40.191537490696
2013,40.3963981748163
2013.25,40.6012588589366
2013.5,40.806119543057
2013.75,41.0109802271771
2014,41.2158409112974
2014.25,41.4207015954177
2014.5,41.6255622795378
2014.75,41.8304229636581
2015,42.0352836477784
2015.25,42.2401443318986
2015.5,42.4450050160189
2015.75,42.6498657001392
2016,42.8547263842593
2016.25,43.0595870683796
2016.5,43.2644477525
2016.75,43.4693084366201
2017,43.6397980647875
2017.25,43.7497233099253
2017.5,43.859648555063
2017.75,43.9695738002006
2018,44.0794990453383
2018.25,44.1894242904761
2018.5,44.2993495356137
2018.75,44.4092747807514
2019,44.5192000258892
2019.25,44.6291252710268
2019.5,44.7390505161645
2019.75,44.8489757613022
2020,44.9589010064399
2020.25,45.0688262515776
2020.5,45.1787514967153
2020.75,45.2886767418531
2021,45.3986019869907
2021.25,45.5085272321284
2021.5,45.6184524772661
2021.75,45.7283777224038
2022,45.810446263875
2022.25,45.8404258761852
2022.5,45.8704054884955
2022.75,45.9003851008058
2023,45.9303647131161
2023.25,45.9603443254263
2023.5,45.9903239377366
2023.75,46.0203035500469
2024,46.0502831623572
2024.25,46.0802627746675
2024.5,46.1102423869778
2024.75,46.1402219992881
2025,46.1702016115983
2025.25,46.2001812239086
2025.5,46.2301608362189
2025.75,46.2601404485292
2026,46.2901200608394
2026.25,46.3200996731497
2026.5,46.35007928546
2026.75,46.3800588977703
2027,46.4200770201612
2027.25,46.4800362447817
2027.5,46.5399954694023
2027.75,46.5999546940229
2028,46.6599139186434
2028.25,46.719873143264
2028.5,46.7798323678845
2028.75,46.8397915925051
2029,46.8997508171256
2029.25,46.9597100417462
2029.5,47.0196692663668
2029.75,47.0796284909873
2030,47.1395877156079
2030.25,47.1995469402285
2030.5,47.259506164849
2030.75,47.3194653894696
2031,47.3794246140902
2031.25,47.4393838387107
2031.5,47.4993430633313
2031.75,47.5593022879519
2032,47.5133231934241
2032.25,47.2435066826317
2032.5,46.9736901718391
2032.75,46.7038736610465
2033,46.4340571502541
2033.25,46.1642406394615
2033.5,45.8944241286689
2033.75,45.6246076178766
2034,45.3547911070839
2034.25,45.0849745962913
2034.5,44.8151580854987
2034.75,44.5453415747064
2035,44.2755250639138
2035.25,44.0057085531212
2035.5,43.7358920423288
2035.75,43.4660755315362
2036,43.1962590207436
2036.25,42.9264425099512
2036.5,42.6566259991586
2036.75,42.386809488366
2037,42.1800168279344
2037.25,42.1150610012621
2037.5,42.0501051745898
2037.75,41.9851493479176
2038,41.9201935212453
2038.25,41.855237694573
2038.5,41.7902818679007
2038.75,41.7253260412285
2039,41.6603702145562
2039.25,41.5954143878839
2039.5,41.5304585612116
2039.75,41.4655027345393
2040,41.400546907867
2040.25,41.3355910811948
2040.5,41.2706352545225
2040.75,41.2056794278502
2041,41.140723601178
2041.25,41.0757677745057
2041.5,41.0108119478334
2041.75,40.9458561211611
2042,40.9
2042.25,40.9
2042.5,40.9
2042.75,40.9
2043,40.9
2043.25,40.9
2043.5,40.9
2043.75,40.9
2044,40.9
2044.25,40.9
2044.5,40.9
2044.75,40.9
2045,40.9
2045.25,40.9
2045.5,40.9
2045.75,40.9
2046,40.9
2046.25,40.9
2046.5,40.9
2046.75,40.9
2047,40.8957962525485
2047.25,40.8808064463933
2047.5,40.8658166402382
2047.75,40.850826834083
2048,40.8358370279279
2048.25,40.8208472217728
2048.5,40.8058574156176
2048.75,40.7908676094625
2049,40.7758778033073
2049.25,40.7608879971522
2049.5,40.7458981909971
2049.75,40.7309083848419
2050,40.7159185786868
2050.25,40.7009287725316
2050.5,40.6859389663765
2050.75,40.6709491602214
2051,40.6559593540662
2051.25,40.6409695479111
2051.5,40.6259797417559
2051.75,40.6109899356008
2052,40.6213326429566
2052.25,40.701278275784
2052.5,40.7812239086114
2052.75,40.8611695414388
2053,40.9411151742662
2053.25,41.0210608070936
2053.5,41.101006439921
2053.75,41.1809520727485
2054,41.2608977055758
2054.25,41.3408433384033
2054.5,41.4207889712307
2054.75,41.5007346040581
2055,41.5806802368855
2055.25,41.660625869713
2055.5,41.7405715025404
2055.75,41.8205171353678
2056,41.9004627681952
2056.25,41.9804084010227
2056.5,42.06035403385
2056.75,42.1402996666775
2057,42.1645707258664
2057.25,42.0246658684185
2057.5,41.8847610109705
2057.75,41.7448561535225
2058,41.6049512960746
2058.25,41.4650464386266
2058.5,41.3251415811786
2058.75,41.1852367237307
2059,41.0453318662827
2059.25,40.9054270088347
2059.5,40.7655221513866
2059.75,40.6256172939387
2060,40.4857124364907
2060.25,40.3458075790427
2060.5,40.2059027215948
2060.75,40.0659978641468
2061,39.9260930066988
2061.25,39.7861881492509
2061.5,39.6462832918029
2061.75,39.5063784343548
2062,39.3952105109867
2062.25,39.3752241027798
2062.5,39.355237694573
2062.75,39.3352512863661
2063,39.3152648781593
2063.25,39.2952784699524
2063.5,39.2752920617456
2063.75,39.2553056535387
2064,39.2353192453319
2064.25,39.215332837125
2064.5,39.1953464289182
2064.75,39.1753600207113
2065,39.1553736125044
2065.25,39.1353872042976
2065.5,39.1154007960907
2065.75,39.0954143878839
2066,39.075427979677
2066.25,39.0554415714702
2066.5,39.0354551632633
2066.75,39.0154687550565
2067,39
2067.25,39
2067.5,39
2067.75,39
2068,39
2068.25,39
2068.5,39
2068.75,39
2069,39
2069.25,39
2069.5,39
2069.75,39
2070,39
2070.25,39
2070.5,39
2070.75,39
2071,39
2071.25,39
2071.5,39
2071.75,39
2072,39.0021229086437
2072.25,39.0121161127472
2072.5,39.0221093168506
2072.75,39.032102520954
2073,39.0420957250574
2073.25,39.0520889291609
2073.5,39.0620821332643
2073.75,39.0720753373677
2074,39.0820685414712
2074.25,39.0920617455746
2074.5,39.102054949678
2074.75,39.1120481537814
2075,39.1220413578849
2075.25,39.1320345619883
2075.5,39.1420277660917
2075.75,39.1520209701951
2076,39.1620141742986
2076.25,39.172007378402
2076.5,39.1820005825054
2076.75,39.1919937866088
2077,39.2009934953561
2077.25,39.2059900974079
2077.5,39.2109866994596
2077.75,39.2159833015113
2078,39.220979903563
2078.25,39.2259765056147
2078.5,39.2309731076664
2078.75,39.2359697097181
2079,39.2409663117698
2079.25,39.2459629138216
2079.5,39.2509595158733
2079.75,39.255956117925
2080,39.2609527199767
2080.25,39.2659493220284
2080.5,39.2709459240801
2080.75,39.2759425261318
2081,39.2809391281836
2081.25,39.2859357302353
2081.5,39.290932332287
2081.75,39.2959289343387
2082,39.3148085822465
2082.25,39.3947542150739
2082.5,39.4746998479014
2082.75,39.5546454807288
2083,39.6345911135562
2083.25,39.7145367463836
2083.5,39.794482379211
2083.75,39.8744280120385
2084,39.9543736448658
2084.25,40.0343192776933
2084.5,40.1142649105207
2084.75,40.1942105433481
2085,40.2741561761755
2085.25,40.354101809003
2085.5,40.4340474418303
2085.75,40.5139930746578
2086,40.5939387074852
2086.25,40.6738843403126
2086.5,40.75382997314
2086.75,40.8337756059675
2087,40.8751302546843
2087.25,40.7302287951846
2087.5,40.5853273356849
2087.75,40.4404258761852
2088,40.2955244166856
2088.25,40.1506229571858
2088.5,40.0057214976861
2088.75,39.8608200381865
2089,39.7159185786868
2089.25,39.571017119187
2089.5,39.4261156596874
2089.75,39.2812142001877
2090,39.136312740688
2090.25,38.9914112811884
2090.5,38.8465098216886
2090.75,38.7016083621889
2091,38.5567069026892
2091.25,38.4118054431896
2091.5,38.2669039836898
2091.75,38.1220025241901
2092,37.9715737354779
2092.25,37.7916960616161
2092.5,37.6118183877544
2092.75,37.4319407138928
2093,37.2520630400311
2093.25,37.0721853661693
2093.5,36.8923076923078
2093.75,36.712430018446
2094,36.5325523445843
2094.25,36.3526746707226
2094.5,36.172796996861
2094.75,35.9929193229992
2095,35.8130416491375
2095.25,35.6331639752759
2095.5,35.4532863014142
2095.75,35.2734086275524
2096,35.0935309536909
2096.25,34.9136532798291
2096.5,34.7337756059674
2096.75,34.5538979321058
2097,34.3978350215203
2097.25,34.3828452153652
2097.5,34.3678554092101
2097.75,34.3528656030549
2098,34.3378757968998
2098.25,34.3228859907446
2098.5,34.3078961845895
2098.75,34.2929063784344
2099,34.2779165722792
2099.25,34.2629267661241
2099.5,34.2479369599689
2099.75,34.2329471538138
2100,34.2179573476587
2100.25,34.2029675415035
2100.5,34.1879777353484
2100.75,34.1729879291932
2101,34.1579981230381
2101.25,34.1430083168829
2101.5,34.1280185107278
2101.75,34.1130287045727
2102,34.0993462994725
2102.25,34.0943496974208
2102.5,34.0893530953691
2102.75,34.0843564933174
2103,34.0793598912657
2103.25,34.0743632892139
2103.5,34.0693666871622
2103.75,34.0643700851105
2104,34.0593734830588
2104.25,34.0543768810071
2104.5,34.0493802789554
2104.75,34.0443836769037
2105,34.0393870748519
2105.25,34.0343904728002
2105.5,34.0293938707485
2105.75,34.0243972686968
2106,34.0194006666451
2106.25,34.0144040645934
2106.5,34.0094074625417
2106.75,34.00441086049
2107,33.9935568428206
2107.25,33.9385942202518
2107.5,33.8836315976829
2107.75,33.8286689751141
2108,33.7737063525452
2108.25,33.7187437299764
2108.5,33.6637811074075
2108.75,33.6088184848387
2109,33.5538558622698
2109.25,33.498893239701
2109.5,33.4439306171321
2109.75,33.3889679945633
2110,33.3340053719944
2110.25,33.2790427494256
2110.5,33.2240801268568
2110.75,33.1691175042879
2111,33.114154881719
2111.25,33.0591922591502
2111.5,33.0042296365814
2111.75,32.9492670140125
2112,32.8922332610595
2112.25,32.8172842302838
2112.5,32.7423351995081
2112.75,32.6673861687324
2113,32.5924371379567
2113.25,32.517488107181
2113.5,32.4425390764053
2113.75,32.3675900456296
2114,32.2926410148539
2114.25,32.2176919840782
2114.5,32.1427429533025
2114.75,32.0677939225268
2115,31.9928448917511
2115.25,31.9178958609753
2115.5,31.8429468301997
2115.75,31.767997799424
2116,31.6930487686482
2116.25,31.6180997378726
2116.5,31.5431507070969
2116.75,31.4682016763211
2117,31.4062975308242
2117.25,31.4762499595482
2117.5,31.5462023882722
2117.75,31.6161548169962
2118,31.6861072457202
2118.25,31.7560596744442
2118.5,31.8260121031682
2118.75,31.8959645318922
2119,31.9659169606162
2119.25,32.0358693893402
2119.5,32.1058218180641
2119.75,32.1757742467881
2120,32.2457266755121
2120.25,32.3156791042361
2120.5,32.3856315329601
2120.75,32.4555839616841
2121,32.5255363904081
2121.25,32.5954888191321
2121.5,32.6654412478561
2121.75,32.73539367658
2122,32.8084010226206
2122.25,32.9183262677583
2122.5,33.0282515128961
2122.75,33.1381767580337
2123,33.2481020031714
2123.25,33.3580272483091
2123.5,33.4679524934468
2123.75,33.5778777385845
2124,33.6878029837222
2124.25,33.7977282288599
2124.5,33.9076534739976
2124.75,34.0175787191353
2125,34.127503964273
2125.25,34.2374292094107
2125.5,34.3473544545484
2125.75,34.4572796996861
2126,34.5672049448238
2126.25,34.6771301899615
2126.5,34.7870554350992
2126.75,34.8969806802369
2127,34.9912106404323
2127.25,34.8513057829843
2127.5,34.7114009255364
2127.75,34.5714960680884
2128,34.4315912106404
2128.25,34.2916863531925
2128.5,34.1517814957445
2128.75,34.0118766382965
2129,33.8719717808486
2129.25,33.7320669234006
2129.5,33.5921620659525
2129.75,33.4522572085045
2130,33.3123523510566
2130.25,33.1724474936086
2130.5,33.0325426361606
2130.75,32.8926377787127
2131,32.7527329212647
2131.25,32.6128280638167
2131.5,32.4729232063688
2131.75,32.3330183489208
2132,32.2
2132.25,32.2
2132.5,32.2
2132.75,32.2
2133,32.2
2133.25,32.2
2133.5,32.2
2133.75,32.2
2134,32.2
2134.25,32.2
2134.5,32.2
2134.75,32.2
2135,32.2
2135.25,32.2
2135.5,32.2
2135.75,32.2
2136,32.2
2136.25,32.2
2136.5,32.2
2136.75,32.2
2137,32.1992880489304
2137.25,32.1793016407236
2137.5,32.1593152325167
2137.75,32.1393288243099
2138,32.119342416103
2138.25,32.0993560078962
2138.5,32.0793695996893
2138.75,32.0593831914825
2139,32.0393967832756
2139.25,32.0194103750688
2139.5,31.9994239668619
2139.75,31.9794375586551
2140,31.9594511504482
2140.25,31.9394647422413
2140.5,31.9194783340345
2140.75,31.8994919258276
2141,31.8795055176208
2141.25,31.8595191094139
2141.5,31.8395327012071
2141.75,31.8195462930002
2142,31.8020905472314
2142.25,31.897025986214
2142.5,31.9919614251966
2142.75,32.0868968641791
2143,32.1818323031617
2143.25,32.2767677421443
2143.5,32.3717031811269
2143.75,32.4666386201094
2144,32.5615740590919
2144.25,32.6565094980745
2144.5,32.751444937057
2144.75,32.8463803760396
2145,32.9413158150222
2145.25,33.0362512540047
2145.5,33.1311866929873
2145.75,33.2261221319699
2146,33.3210575709524
2146.25,33.4159930099349
2146.5,33.5109284489175
2146.75,33.6058638879001
2147,33.7013041649137
2147.25,33.8561988285169
2147.5,34.0110934921201
2147.75,34.1659881557231
2148,34.3208828193262
2148.25,34.4757774829294
2148.5,34.6306721465324
2148.75,34.7855668101356
2149,34.9404614737388
2149.25,35.0953561373418
2149.5,35.2502508009449
2149.75,35.4051454645481
2150,35.5600401281511
2150.25,35.7149347917543
2150.5,35.8698294553574
2150.75,36.0247241189606
2151,36.1796187825636
2151.25,36.3345134461668
2151.5,36.48940810977
2151.75,36.644302773373
2152,36.7991974369761
2152.25,36.7602342966247
2152.5,36.720261480211
2152.75,36.6802886637973
2153,36.6403158473836
2153.25,36.6003430309699
2153.5,36.5603702145562
2153.75,36.5203973981425
2154,36.4804245817287
2154.25,36.440451765315
2154.5,36.4004789489013
2154.75,36.3605061324876
2155,36.3205333160739
2155.25,36.2805604996602
2155.5,36.2405876832465
2155.75,36.2006148668328
2156,36.1606420504191
2156.25,36.1206692340054
2156.5,36.0806964175917
2156.75,36.040723601178
2157,36.0007507847642
2157.25,36.1029578330799
2157.5,36.2078864761658
2157.75,36.3128151192518
2158,36.4177437623378
2158.25,36.5226724054237
2158.5,36.6276010485098
2158.75,36.7325296915958
2159,36.8374583346817
2159.25,36.9423869777677
2159.5,37.0473156208537
2159.75,37.1522442639396
2160,37.2571729070257
2160.25,37.3621015501117
2160.5,37.4670301931976
2160.75,37.5719588362836
2161,37.6768874793696
2161.25,37.7818161224556
2161.5,37.8867447655415
2161.75,37.9916734086276
2162,38.0966020517136
2162.25,38.0081388951814
2162.5,37.9132034561988
2162.75,37.8182680172162
2163,37.7233325782338
2163.25,37.6283971392512
2163.5,37.5334617002686
2163.75,37.4385262612861
2164,37.3435908223035
2164.25,37.2486553833209
2164.5,37.1537199443383
2164.75,37.0587845053558
2165,36.9638490663733
2165.25,36.8689136273907
2165.5,36.7739781884082
2165.75,36.6790427494256
2166,36.584107310443
2166.25,36.4891718714605
2166.5,36.3942364324779
2166.75,36.2993009934953
2167,36.2043655545128
2167.25,36.2381346881978
2167.5,36.2781075046115
2167.75,36.3180803210252
2168,36.3580531374389
2168.25,36.3980259538526
2168.5,36.4379987702664
2168.75,36.47797158668
2169,36.5179444030938
2169.25,36.5579172195075
2169.5,36.5978900359212
2169.75,36.6378628523349
2170,36.6778356687486
2170.25,36.7178084851623
2170.5,36.757781301576
2170.75,36.7977541179897
2171,36.8377269344034
2171.25,36.8776997508171
2171.5,36.9176725672308
2171.75,36.9576453836446
2172,36.9976182000582
2172.25,36.9201190899971
2172.5,36.8351768551179
2172.75,36.7502346202388
2173,36.6652923853597
2173.25,36.5803501504805
2173.5,36.4954079156015
2173.75,36.4104656807223
2174,36.3255234458432
2174.25,36.2405812109641
2174.5,36.1556389760849
2174.75,36.0706967412058
2175,35.9857545063266
2175.25,35.9008122714475
2175.5,35.8158700365684
2175.75,35.7309278016892
2176,35.6459855668102
2176.25,35.561043331931
2176.5,35.4761010970518
2176.75,35.3911588621728
2177,35.3062166272936
2177.25,35.3555710171192
2177.5,35.4155302417397
2177.75,35.4754894663603
2178,35.5354486909809
2178.25,35.5954079156015
2178.5,35.655367140222
2178.75,35.7153263648426
2179,35.7752855894631
2179.25,35.8352448140837
2179.5,35.8952040387043
2179.75,35.9551632633248
2180,36.0151224879454
2180.25,36.0750817125659
2180.5,36.1350409371865
2180.75,36.195000161807
2181,36.2549593864276
2181.25,36.3149186110482
2181.5,36.3748778356687
2181.75,36.4348370602893
2182,36.4947962849099
2182.25,36.5182518365102
2182.5,36.538238244717
2182.75,36.5582246529239
2183,36.5782110611307
2183.25,36.5981974693376
2183.5,36.6181838775444
2183.75,36.6381702857513
2184,36.6581566939581
2184.25,36.678143102165
2184.5,36.6981295103718
2184.75,36.7181159185787
2185,36.7381023267855
2185.25,36.7580887349924
2185.5,36.7780751431993
2185.75,36.7980615514061
2186,36.818047959613
2186.25,36.8380343678198
2186.5,36.8580207760267
2186.75,36.8780071842335
2187,36.8979935924404
2187.25,36.8685349988674
2187.5,36.8335587845054
2187.75,36.7985825701434
2188,36.7636063557814
2188.25,36.7286301414194
2188.5,36.6936539270574
2188.75,36.6586777126954
2189,36.6237014983334
2189.25,36.5887252839714
2189.5,36.5537490696094
2189.75,36.5187728552474
2190,36.4837966408854
2190.25,36.4488204265234
2190.5,36.4138442121614
2190.75,36.3788679977994
2191,36.3438917834374
2191.25,36.3089155690755
2191.5,36.2739393547134
2191.75,36.2389631403514
2192,36.2039869259895
2192.25,36.1778647940196
2192.5,36.152881783761
2192.75,36.1278987735025
2193,36.1029157632439
2193.25,36.0779327529853
2193.5,36.0529497427268
2193.75,36.0279667324682
2194,36.0029837222096
2194.25,35.9780007119511
2194.5,35.9530177016925
2194.75,35.9280346914339
2195,35.9030516811754
2195.25,35.8780686709168
2195.5,35.8530856606582
2195.75,35.8281026503997
2196,35.8031196401411
2196.25,35.7781366298825
2196.5,35.753153619624
2196.75,35.7281706093654
2197,35.7031875991068
2197.25,35.6084592731627
2197.5,35.5035306300767
2197.75,35.3986019869907
2198,35.2936733439047
2198.25,35.1887447008187
2198.5,35.0838160577328
2198.75,34.9788874146468
2199,34.8739587715608
2199.25,34.7690301284748
2199.5,34.6641014853888
2199.75,34.5591728423028
2200,34.4542441992168
2200.25,34.3493155561309
2200.5,34.2443869130449
2200.75,34.1394582699589
2201,34.034529626873
2201.25,33.9296009837869
2201.5,33.8246723407009
2201.75,33.719743697615
2202,33.614815054529
2202.25,33.6214556163231
2202.5,33.6464386265817
2202.75,33.6714216368402
2203,33.6964046470988
2203.25,33.7213876573574
2203.5,33.7463706676159
2203.75,33.7713536778745
2204,33.7963366881331
2204.25,33.8213196983916
2204.5,33.8463027086502
2204.75,33.8712857189088
2205,33.8962687291673
2205.25,33.9212517394259
2205.5,33.9462347496845
2205.75,33.971217759943
2206,33.9962007702016
2206.25,34.0211837804602
2206.5,34.0461667907188
2206.75,34.0711498009773
2207,34.0961328112359
2207.25,34.0788841785055
2207.5,34.053901168247
2207.75,34.0289181579884
2208,34.0039351477298
2208.25,33.9789521374713
2208.5,33.9539691272127
2208.75,33.9289861169541
2209,33.9040031066956
2209.25,33.879020096437
2209.5,33.8540370861784
2209.75,33.8290540759199
2210,33.8040710656613
2210.25,33.7790880554027
2210.5,33.7541050451442
2210.75,33.7291220348856
2211,33.704139024627
2211.25,33.6791560143685
2211.5,33.6541730041099
2211.75,33.6291899938513
2212,33.6042069835928
2212.25,33.6415520533316
2212.5,33.6915180738487
2212.75,33.7414840943659
2213,33.791450114883
2213.25,33.8414161354001
2213.5,33.8913821559173
2213.75,33.9413481764344
2214,33.9913141969515
2214.25,34.0412802174687
2214.5,34.0912462379858
2214.75,34.1412122585029
2215,34.1911782790201
2215.25,34.2411442995372
2215.5,34.2911103200544
2215.75,34.3410763405715
2216,34.3910423610887
2216.25,34.4410083816058
2216.5,34.4909744021229
2216.75,34.5409404226401
2217,34.5909064431572
2217.25,34.6531342027766
2217.5,34.7180900294489
2217.75,34.7830458561212
2218,34.8480016827934
2218.25,34.9129575094657
2218.5,34.977913336138
2218.75,35.0428691628102
2219,35.1078249894825
2219.25,35.1727808161548
2219.5,35.2377366428271
2219.75,35.3026924694994
2220,35.3676482961717
2220.25,35.4326041228439
2220.5,35.4975599495162
2220.75,35.5625157761885
2221,35.6274716028608
2221.25,35.692427429533
2221.5,35.7573832562053
2221.75,35.8223390828776
2222,35.8872949095498
2222.25,35.9562700236238
2222.5,36.0262224523478
2222.75,36.0961748810718
2223,36.1661273097958
2223.25,36.2360797385198
2223.5,36.3060321672437
2223.75,36.3759845959678
2224,36.4459370246918
2224.25,36.5158894534158
2224.5,36.5858418821397
2224.75,36.6557943108637
2225,36.7257467395877
2225.25,36.7956991683117
2225.5,36.8656515970357
2225.75,36.9356040257597
2226,37.0055564544836
2226.25,37.0755088832077
2226.5,37.1454613119317
2226.75,37.2154137406556
2227,37.2853661693796
2227.25,37.3276592990518
2227.5,37.3626355134138
2227.75,37.3976117277758
2228,37.4325879421378
2228.25,37.4675641564998
2228.5,37.5025403708618
2228.75,37.5375165852238
2229,37.5724927995858
2229.25,37.6074690139478
2229.5,37.6424452283098
2229.75,37.6774214426718
2230,37.7123976570337
2230.25,37.7473738713957
2230.5,37.7823500857577
2230.75,37.8173263001197
2231,37.8523025144817
2231.25,37.8872787288437
2231.5,37.9222549432057
2231.75,37.9572311575677
2232,37.9922073719297
2232.25,37.9766997831785
2232.5,37.9467201708683
2232.75,37.916740558558
2233,37.8867609462477
2233.25,37.8567813339374
2233.5,37.8268017216271
2233.75,37.7968221093168
2234,37.7668424970066
2234.25,37.7368628846963
2234.5,37.706883272386
2234.75,37.6769036600757
2235,37.6469240477655
2235.25,37.6169444354552
2235.5,37.5869648231449
2235.75,37.5569852108346
2236,37.5270055985243
2236.25,37.497025986214
2236.5,37.4670463739038
2236.75,37.4370667615935
2237,37.4070871492832
2237.25,37.392369178991
2237.5,37.3823759748875
2237.75,37.3723827707841
2238,37.3623895666807
2238.25,37.3523963625773
2238.5,37.3424031584738
2238.75,37.3324099543704
2239,37.322416750267
2239.25,37.3124235461636
2239.5,37.3024303420601
2239.75,37.2924371379567
2240,37.2824439338533
2240.25,37.2724507297498
2240.5,37.2624575256464
2240.75,37.252464321543
2241,37.2424711174396
2241.25,37.2324779133361
2241.5,37.2224847092327
2241.75,37.2124915051293
2242,37.2024983010259
2242.25,37.2074949030776
2242.5,37.217488107181
2242.75,37.2274813112844
2243,37.2374745153879
2243.25,37.2474677194913
2243.5,37.2574609235947
2243.75,37.2674541276981
2244,37.2774473318016
2244.25,37.287440535905
2244.5,37.2974337400084
2244.75,37.3074269441118
2245,37.3174201482153
2245.25,37.3274133523187
2245.5,37.3374065564221
2245.75,37.3473997605255
2246,37.357392964629
2246.25,37.3673861687324
2246.5,37.3773793728358
2246.75,37.3873725769393
2247,37.3973657810427
2247.25,37.4551923885958
2247.5,37.5301414193716
2247.75,37.6050904501472
2248,37.6800394809229
2248.25,37.7549885116987
2248.5,37.8299375424744
2248.75,37.90488657325
2249,37.9798356040258
2249.25,38.0547846348015
2249.5,38.1297336655771
2249.75,38.2046826963529
2250,38.2796317271286
2250.25,38.3545807579043
2250.5,38.42952978868
2250.75,38.5044788194557
2251,38.5794278502314
2251.25,38.6543768810071
2251.5,38.7293259117828
2251.75,38.8042749425585
2252,38.8792239733342
2252.25,38.9433384032879
2252.5,39.0032976279085
2252.75,39.063256852529
2253,39.1232160771496
2253.25,39.1831753017702
2253.5,39.2431345263907
2253.75,39.3030937510113
2254,39.3630529756319
2254.25,39.4230122002524
2254.5,39.482971424873
2254.75,39.5429306494936
2255,39.6028898741141
2255.25,39.6628490987347
2255.5,39.7228083233552
2255.75,39.7827675479758
2256,39.8427267725963
2256.25,39.9026859972169
2256.5,39.9626452218375
2256.75,40.022604446458
2257,40.0825636710786
2257.25,40.0751949775088
2257.5,40.0402187631468
2257.75,40.0052425487848
2258,39.9702663344228
2258.25,39.9352901200609
2258.5,39.9003139056989
2258.75,39.8653376913368
2259,39.8303614769748
2259.25,39.7953852626129
2259.5,39.7604090482509
2259.75,39.7254328338889
2260,39.6904566195269
2260.25,39.6554804051649
2260.5,39.6205041908029
2260.75,39.5855279764409
2261,39.5505517620789
2261.25,39.5155755477169
2261.5,39.4805993333549
2261.75,39.4456231189929
2262,39.4106469046309
2262.25,39.3339633021586
2262.5,39.239027863176
2262.75,39.1440924241934
2263,39.0491569852108
2263.25,38.9542215462283
2263.5,38.8592861072457
2263.75,38.7643506682631
2264,38.6694152292806
2264.25,38.574479790298
2264.5,38.4795443513155
2264.75,38.384608912333
2265,38.2896734733504
2265.25,38.1947380343678
2265.5,38.0998025953853
2265.75,38.0048671564027
2266,37.9099317174201
2266.25,37.8149962784376
2266.5,37.7200608394551
2266.75,37.6251254004725
2267,37.5301899614899
2267.25,37.4284392090871
2267.5,37.3235105660011
2267.75,37.2185819229151
2268,37.1136532798292
2268.25,37.0087246367432
2268.5,36.9037959936571
2268.75,36.7988673505712
2269,36.6939387074852
2269.25,36.5890100643992
2269.5,36.4840814213132
2269.75,36.3791527782273
2270,36.2742241351412
2270.25,36.1692954920552
2270.5,36.0643668489693
2270.75,35.9594382058833
2271,35.8545095627973
2271.25,35.7495809197114
2271.5,35.6446522766254
2271.75,35.5397236335393
2272,35.4347949904534
2272.25,35.326526649623
2272.5,35.2166014044853
2272.75,35.1066761593476
2273,34.9967509142099
2273.25,34.8868256690722
2273.5,34.7769004239345
2273.75,34.6669751787968
2274,34.5570499336591
2274.25,34.4471246885214
2274.5,34.3371994433837
2274.75,34.227274198246
2275,34.1173489531083
2275.25,34.0074237079707
2275.5,33.8974984628329
2275.75,33.7875732176952
2276,33.6776479725576
2276.25,33.5677227274198
2276.5,33.4577974822821
2276.75,33.3478722371444
2277,33.2379469920068
2277.25,33.2556195592376
2277.5,33.3405617941167
2277.75,33.4255040289958
2278,33.510446263875
2278.25,33.5953884987541
2278.5,33.6803307336332
2278.75,33.7652729685123
2279,33.8502152033915
2279.25,33.9351574382706
2279.5,34.0200996731497
2279.75,34.1050419080289
2280,34.189984142908
2280.25,34.2749263777871
2280.5,34.3598686126663
2280.75,34.4448108475454
2281,34.5297530824245
2281.25,34.6146953173036
2281.5,34.6996375521828
2281.75,34.7845797870619
2282,34.869522021941
2282.25,34.8775735413093
2282.5,34.8425973269474
2282.75,34.8076211125854
2283,34.7726448982234
2283.25,34.7376686838614
2283.5,34.7026924694994
2283.75,34.6677162551374
2284,34.6327400407754
2284.25,34.5977638264134
2284.5,34.5627876120514
2284.75,34.5278113976894
2285,34.4928351833274
2285.25,34.4578589689654
2285.5,34.4228827546034
2285.75,34.3879065402414
2286,34.3529303258794
2286.25,34.3179541115174
2286.5,34.2829778971554
2286.75,34.2480016827934
2287,34.2130254684314
2287.25,34.2501731335556
2287.5,34.330118766383
2287.75,34.4100643992104
2288,34.4900100320378
2288.25,34.5699556648652
2288.5,34.6499012976926
2288.75,34.7298469305201
2289,34.8097925633474
2289.25,34.8897381961749
2289.5,34.9696838290023
2289.75,35.0496294618297
2290,35.1295750946571
2290.25,35.2095207274846
2290.5,35.289466360312
2290.75,35.3694119931394
2291,35.4493576259668
2291.25,35.5293032587942
2291.5,35.6092488916216
2291.75,35.689194524449
2292,35.7691401572765
2292.25,35.812271447526
2292.5,35.8322578557328
2292.75,35.8522442639397
2293,35.8722306721465
2293.25,35.8922170803534
2293.5,35.9122034885602
2293.75,35.9321898967671
2294,35.9521763049739
2294.25,35.9721627131808
2294.5,35.9921491213877
2294.75,36.0121355295945
2295,36.0321219378014
2295.25,36.0521083460082
2295.5,36.0720947542151
2295.75,36.0920811624219
2296,36.1120675706288
2296.25,36.1320539788356
2296.5,36.1520403870425
2296.75,36.1720267952494
2297,36.1920132034562
2297.25,36.3379955341251
2297.5,36.567839228504
2297.75,36.7976829228829
2298,37.0275266172615
2298.25,37.2573703116404
2298.5,37.4872140060193
2298.75,37.717057700398
2299,37.9469013947769
2299.25,38.1767450891558
2299.5,38.4065887835344
2299.75,38.6364324779133
2300,38.8662761722922
2300.25,39.0961198666709
2300.5,39.3259635610498
2300.75,39.5558072554287
2301,39.7856509498075
2301.25,40.0154946441862
2301.5,40.2453383385651
2301.75,40.475182032944
2302,40.7050257273227
2302.25,40.8381152713504
2302.5,40.9030710980227
2302.75,40.968026924695
2303,41.0329827513673
2303.25,41.0979385780396
2303.5,41.1628944047118
2303.75,41.2278502313841
2304,41.2928060580564
2304.25,41.3577618847286
2304.5,41.4227177114009
2304.75,41.4876735380732
2305,41.5526293647455
2305.25,41.6175851914177
2305.5,41.68254101809
2305.75,41.7474968447623
2306,41.8124526714346
2306.25,41.8774084981069
2306.5,41.9423643247791
2306.75,42.0073201514514
2307,42.0722759781237
2307.25,42.1515517297175
2307.5,42.2414905666483
2307.75,42.3314294035792
2308,42.42136824051
2308.25,42.5113070774409
2308.5,42.6012459143717
2308.75,42.6911847513026
2309,42.7811235882334
2309.25,42.8710624251642
2309.5,42.9610012620951
2309.75,43.050940099026
2310,43.1408789359567
2310.25,43.2308177728876
2310.5,43.3207566098185
2310.75,43.4106954467493
2311,43.5006342836801
2311.25,43.590573120611
2311.5,43.6805119575419
2311.75,43.7704507944727
2312,43.8603896314035
2312.25,43.7406265169411
2312.5,43.4558201999936
2312.75,43.1710138830458
2313,42.8862075660981
2313.25,42.6014012491506
2313.5,42.3165949322029
2313.75,42.0317886152551
2314,41.7469822983076
2314.25,41.4621759813599
2314.5,41.1773696644121
2314.75,40.8925633474646
2315,40.6077570305169
2315.25,40.3229507135691
2315.5,40.0381443966214
2315.75,39.7533380796739
2316,39.4685317627261
2316.25,39.1837254457784
2316.5,38.8989191288309
2316.75,38.6141128118831
2317,38.3293064949354
2317.25,38.2218245364228
2317.5,38.2617973528365
2317.75,38.3017701692502
2318,38.3417429856639
2318.25,38.3817158020776
2318.5,38.4216886184913
2318.75,38.461661434905
2319,38.5016342513187
2319.25,38.5416070677324
2319.5,38.5815798841462
2319.75,38.6215527005598
2320,38.6615255169736
2320.25,38.7014983333873
2320.5,38.741471149801
2320.75,38.7814439662147
2321,38.8214167826284
2321.25,38.8613895990421
2321.5,38.9013624154558
2321.75,38.9413352318695
2322,38.9813080482832
2322.25,38.9866994595644
2322.5,38.9617164493058
2322.75,38.9367334390473
2323,38.9117504287887
2323.25,38.8867674185301
2323.5,38.8617844082716
2323.75,38.836801398013
2324,38.8118183877544
2324.25,38.7868353774959
2324.5,38.7618523672373
2324.75,38.7368693569787
2325,38.7118863467202
2325.25,38.6869033364616
2325.5,38.661920326203
2325.75,38.6369373159445
2326,38.6119543056859
2326.25,38.5869712954273
2326.5,38.5619882851688
2326.75,38.5370052749102
2327,38.5120222646516
2327.25,38.4870392543931
2327.5,38.4620562441345
2327.75,38.4370732338759
2328,38.4120902236174
2328.25,38.3871072133588
2328.5,38.3621242031002
2328.75,38.3371411928417
2329,38.3121581825831
2329.25,38.2871751723245
2329.5,38.262192162066
2329.75,38.2372091518074
2330,38.2122261415488
2330.25,38.1872431312903
2330.5,38.1622601210317
2330.75,38.1372771107731
2331,38.1122941005146
2331.25,38.087311090256
2331.5,38.0623280799974
2331.75,38.0373450697389
2332,38.0123620594803
2332.25,38
2332.5,38
2332.75,38
2333,38
2333.25,38
2333.5,38
2333.75,38
2334,38
2334.25,38
2334.5,38
2334.75,38
2335,38
2335.25,38
2335.5,38
2335.75,38
2336,38
2336.25,38
2336.5,38
2336.75,38
2337,38
2337.25,37.9901750752403
2337.5,37.9701886670334
2337.75,37.9502022588266
2338,37.9302158506197
2338.25,37.9102294424129
2338.5,37.890243034206
2338.75,37.8702566259992
2339,37.8502702177923
2339.25,37.8302838095855
2339.5,37.8102974013786
2339.75,37.7903109931717
2340,37.7703245849649
2340.25,37.750338176758
2340.5,37.7303517685512
2340.75,37.7103653603443
2341,37.6903789521375
2341.25,37.6703925439306
2341.5,37.6504061357238
2341.75,37.6304197275169
2342,37.6104333193101
2342.25,37.6023882722242
2342.5,37.6073848742759
2342.75,37.6123814763276
2343,37.6173780783793
2343.25,37.6223746804311
2343.5,37.6273712824828
2343.75,37.6323678845345
2344,37.6373644865862
2344.25,37.6423610886379
2344.5,37.6473576906896
2344.75,37.6523542927413
2345,37.657350894793
2345.25,37.6623474968448
2345.5,37.6673440988965
2345.75,37.6723407009482
2346,37.6773373029999
2346.25,37.6823339050516
2346.5,37.6873305071033
2346.75,37.692327109155
2347,37.6973237112068
2347.25,37.7672890844956
2347.5,37.9121905439954
2347.75,38.0570920034951
2348,38.2019934629947
2348.25,38.3468949224944
2348.5,38.4917963819941
2348.75,38.6366978414938
2349,38.7815993009935
2349.25,38.9265007604932
2349.5,39.0714022199928
2349.75,39.2163036794926
2350,39.3612051389923
2350.25,39.506106598492
2350.5,39.6510080579916
2350.75,39.7959095174914
2351,39.9408109769911
2351.25,40.0857124364907
2351.5,40.2306138959904
2351.75,40.3755153554902
2352,40.5204168149898
2352.25,40.5346817255105
2352.5,40.3897802660108
2352.75,40.2448788065112
2353,40.0999773470114
2353.25,39.9550758875117
2353.5,39.810174428012
2353.75,39.6652729685124
2354,39.5203715090126
2354.25,39.3754700495129
2354.5,39.2305685900133
2354.75,39.0856671305136
2355,38.9407656710138
2355.25,38.7958642115142
2355.5,38.6509627520145
2355.75,38.5060612925148
2356,38.3611598330152
2356.25,38.2162583735154
2356.5,38.0713569140157
2356.75,37.9264554545161
2357,37.7815539950164
2357.25,37.7109219766351
2357.5,37.7359049868936
2357.75,37.7608879971522
2358,37.7858710074108
2358.25,37.8108540176693
2358.5,37.8358370279279
2358.75,37.8608200381865
2359,37.885803048445
2359.25,37.9107860587036
2359.5,37.9357690689622
2359.75,37.9607520792207
2360,37.9857350894793
2360.25,38.0107180997379
2360.5,38.0357011099964
2360.75,38.060684120255
2361,38.0856671305136
2361.25,38.1106501407721
2361.5,38.1356331510307
2361.75,38.1606161612893
2362,38.1855991715479
2362.25,38.2
2362.5,38.2
2362.75,38.2
2363,38.2
2363.25,38.2
2363.5,38.2
2363.75,38.2
2364,38.2
2364.25,38.2
2364.5,38.2
2364.75,38.2
2365,38.2
2365.25,38.2
2365.5,38.2
2365.75,38.2
2366,38.2
2366.25,38.2
2366.5,38.2
2366.75,38.2
2367,38.2
2367.25,38.2
2367.5,38.2
2367.75,38.2
2368,38.2
2368.25,38.2
2368.5,38.2
2368.75,38.2
2369,38.2
2369.25,38.2
2369.5,38.2
2369.75,38.2
2370,38.2
2370.25,38.2
2370.5,38.2
2370.75,38.2
2371,38.2
2371.25,38.2
2371.5,38.2
2371.75,38.2
2372,38.2
2372.25,38.2435714054562
2372.5,38.3534966505937
2372.75,38.4634218957315
2373,38.5733471408692
2373.25,38.6832723860069
2373.5,38.7931976311447
2373.75,38.9031228762824
2374,39.0130481214201
2374.25,39.1229733665576
2374.5,39.2328986116954
2374.75,39.3428238568331
2375,39.4527491019708
2375.25,39.5626743471085
2375.5,39.6725995922463
2375.75,39.7825248373838
2376,39.8924500825215
2376.25,40.0023753276593
2376.5,40.112300572797
2376.75,40.2222258179347
2377,40.3321510630725
2377.25,40.3789618458949
2377.5,40.3239992233261
2377.75,40.2690366007573
2378,40.2140739781884
2378.25,40.1591113556196
2378.5,40.1041487330507
2378.75,40.0491861104818
2379,39.9942234879131
2379.25,39.9392608653442
2379.5,39.8842982427753
2379.75,39.8293356202065
2380,39.7743729976376
2380.25,39.7194103750687
2380.5,39.6644477524999
2380.75,39.6094851299311
2381,39.5545225073622
2381.25,39.4995598847934
2381.5,39.4445972622245
2381.75,39.3896346396556
2382,39.3346720170868
2382.25,39.3608718164459
2382.5,39.5257596841525
2382.75,39.6906475518591
2383,39.8555354195657
2383.25,40.0204232872723
2383.5,40.1853111549789
2383.75,40.3501990226855
2384,40.5150868903918
2384.25,40.6799747580984
2384.5,40.844862625805
2384.75,41.0097504935116
2385,41.1746383612182
2385.25,41.3395262289248
2385.5,41.504414096631
2385.75,41.6693019643376
2386,41.8341898320442
2386.25,41.9990776997508
2386.5,42.1639655674574
2386.75,42.328853435164
2387,42.4937413028706
2387.25,42.5911167923368
2387.5,42.5661337820783
2387.75,42.5411507718197
2388,42.5161677615611
2388.25,42.4911847513025
2388.5,42.466201741044
2388.75,42.4412187307854
2389,42.4162357205269
2389.25,42.3912527102683
2389.5,42.3662697000097
2389.75,42.3412866897511
2390,42.3163036794926
2390.25,42.291320669234
2390.5,42.2663376589755
2390.75,42.2413546487169
2391,42.2163716384583
2391.25,42.1913886281997
2391.5,42.1664056179412
2391.75,42.1414226076826
2392,42.1164395974241
2392.25,42.0948739522993
2392.5,42.0798841461441
2392.75,42.064894339989
2393,42.0499045338339
2393.25,42.0349147276787
2393.5,42.0199249215236
2393.75,42.0049351153684
2394,41.9899453092133
2394.25,41.9749555030582
2394.5,41.959965696903
2394.75,41.9449758907479
2395,41.9299860845927
2395.25,41.9149962784376
2395.5,41.9000064722825
2395.75,41.8850166661273
2396,41.8700268599722
2396.25,41.855037053817
2396.5,41.8400472476619
2396.75,41.8250574415068
2397,41.8100676353516
2397.25,41.7868742111906
2397.5,41.7469013947769
2397.75,41.7069285783631
2398,41.6669557619494
2398.25,41.6269829455357
2398.5,41.5870101291221
2398.75,41.5470373127083
2399,41.5070644962946
2399.25,41.4670916798809
2399.5,41.4271188634672
2399.75,41.3871460470535
2400,41.3471732306398
2400.25,41.3072004142261
2400.5,41.2672275978124
2400.75,41.2272547813987
2401,41.1872819649849
2401.25,41.1473091485712
2401.5,41.1073363321575
2401.75,41.0673635157439
2402,41.0273906993301
2402.25,40.9984272353646
2402.5,40.9934306333128
2402.75,40.9884340312611
2403,40.9834374292094
2403.25,40.9784408271577
2403.5,40.973444225106
2403.75,40.9684476230543
2404,40.9634510210026
2404.25,40.9584544189508
2404.5,40.9534578168991
2404.75,40.9484612148474
2405,40.9434646127957
2405.25,40.938468010744
2405.5,40.9334714086923
2405.75,40.9284748066406
2406,40.9234782045888
2406.25,40.9184816025371
2406.5,40.9134850004854
2406.75,40.9084883984337
2407,40.903491796382
2407.25,40.8789327206239
2407.5,40.8089802918999
2407.75,40.7390278631759
2408,40.6690754344519
2408.25,40.599123005728
2408.5,40.529170577004
2408.75,40.45921814828
2409,40.389265719556
2409.25,40.319313290832
2409.5,40.249360862108
2409.75,40.1794084333841
2410,40.1094560046601
2410.25,40.0395035759361
2410.5,39.9695511472121
2410.75,39.8995987184881
2411,39.829646289764
2411.25,39.7596938610402
2411.5,39.6897414323161
2411.75,39.6197890035921
2412,39.5498365748681
2412.25,39.5186790071519
2412.5,39.5836348338242
2412.75,39.6485906604965
2413,39.7135464871686
2413.25,39.7785023138409
2413.5,39.8434581405132
2413.75,39.9084139671855
2414,39.9733697938578
2414.25,40.0383256205301
2414.5,40.1032814472023
2414.75,40.1682372738746
2415,40.2331931005469
2415.25,40.2981489272192
2415.5,40.3631047538915
2415.75,40.4280605805638
2416,40.4930164072361
2416.25,40.5579722339082
2416.5,40.6229280605805
2416.75,40.6878838872528
2417,40.7528397139251
2417.25,40.7904177858322
2417.5,40.7554415714702
2417.75,40.7204653571082
2418,40.6854891427462
2418.25,40.6505129283842
2418.5,40.6155367140222
2418.75,40.5805604996602
2419,40.5455842852982
2419.25,40.5106080709362
2419.5,40.4756318565742
2419.75,40.4406556422122
2420,40.4056794278502
2420.25,40.3707032134882
2420.5,40.3357269991262
2420.75,40.3007507847642
2421,40.2657745704023
2421.25,40.2307983560403
2421.5,40.1958221416783
2421.75,40.1608459273163
2422,40.1258697129543
2422.25,40.1286204329958
2422.5,40.2385456781335
2422.75,40.348470923271
2423,40.4583961684087
2423.25,40.5683214135465
2423.5,40.6782466586842
2423.75,40.7881719038219
2424,40.8980971489597
2424.25,41.0080223940972
2424.5,41.1179476392349
2424.75,41.2278728843726
2425,41.3377981295104
2425.25,41.4477233746481
2425.5,41.5576486197858
2425.75,41.6675738649236
2426,41.7774991100611
2426.25,41.8874243551988
2426.5,41.9973496003365
2426.75,42.1072748454743
2427,42.217200090612
2427.25,42.2605449661822
2427.5,42.1006537005276
2427.75,41.9407624348727
2428,41.7808711692179
2428.25,41.620979903563
2428.5,41.4610886379081
2428.75,41.3011973722532
2429,41.1413061065984
2429.25,40.9814148409438
2429.5,40.8215235752889
2429.75,40.661632309634
2430,40.5017410439791
2430.25,40.3418497783242
2430.5,40.1819585126694
2430.75,40.0220672470148
2431,39.8621759813599
2431.25,39.702284715705
2431.5,39.5423934500501
2431.75,39.3825021843953
2432,39.2226109187404
2432.25,39.0370894145823
2432.5,38.7672729037897
2432.75,38.4974563929971
2433,38.2276398822045
2433.25,37.9578233714119
2433.5,37.6880068606193
2433.75,37.4181903498267
2434,37.1483738390345
2434.25,36.8785573282419
2434.5,36.6087408174493
2434.75,36.3389243066567
2435,36.0691077958641
2435.25,35.7992912850715
2435.5,35.5294747742794
2435.75,35.2596582634868
2436,34.9898417526942
2436.25,34.7200252419016
2436.5,34.450208731109
2436.75,34.1803922203164
2437,33.9105757095237
2437.25,33.6791560143685
2437.5,33.584220575386
2437.75,33.4892851364034
2438,33.3943496974208
2438.25,33.2994142584382
2438.5,33.2044788194556
2438.75,33.1095433804732
2439,33.0146079414906
2439.25,32.919672502508
2439.5,32.8247370635255
2439.75,32.7298016245429
2440,32.6348661855603
2440.25,32.5399307465777
2440.5,32.4449953075953
2440.75,32.3500598686127
2441,32.2551244296301
2441.25,32.1601889906475
2441.5,32.065253551665
2441.75,31.9703181126824
2442,31.8753826737
2442.25,31.8082327432769
2442.5,31.8482055596906
2442.75,31.8881783761043
2443,31.9281511925181
2443.25,31.9681240089318
2443.5,32.0080968253455
2443.75,32.0480696417591
2444,32.0880424581729
2444.25,32.1280152745866
2444.5,32.1679880910003
2444.75,32.207960907414
2445,32.2479337238277
2445.25,32.2879065402414
2445.5,32.3278793566551
2445.75,32.3678521730688
2446,32.4078249894825
2446.25,32.4477978058963
2446.5,32.48777062231
2446.75,32.5277434387237
2447,32.5677162551373
2447.25,32.6317174201482
2447.5,32.7966052878547
2447.75,32.9614931555613
2448,33.1263810232679
2448.25,33.2912688909745
2448.5,33.4561567586808
2448.75,33.6210446263874
2449,33.785932494094
2449.25,33.9508203618006
2449.5,34.1157082295072
2449.75,34.2805960972138
2450,34.4454839649204
2450.25,34.6103718326267
2450.5,34.7752597003333
2450.75,34.9401475680399
2451,35.1050354357465
2451.25,35.269923303453
2451.5,35.4348111711596
2451.75,35.5996990388659
2452,35.7645869065725
2452.25,35.9375133490825
2452.5,36.1473706352545
2452.75,36.3572279214266
2453,36.5670852075986
2453.25,36.7769424937702
2453.5,36.9867997799423
2453.75,37.1966570661143
2454,37.4065143522863
2454.25,37.6163716384583
2454.5,37.8262289246304
2454.75,38.0360862108024
2455,38.2459434969741
2455.25,38.4558007831461
2455.5,38.6656580693181
2455.75,38.8755153554901
2456,39.0853726416622
2456.25,39.2952299278342
2456.5,39.5050872140058
2456.75,39.7149445001779
2457,39.9248017863499
2457.25,40.0933982719006
2457.5,40.0534254554869
2457.75,40.0134526390732
2458,39.9734798226594
2458.25,39.9335070062458
2458.5,39.8935341898321
2458.75,39.8535613734183
2459,39.8135885570046
2459.25,39.7736157405909
2459.5,39.7336429241772
2459.75,39.6936701077635
2460,39.6536972913498
2460.25,39.6137244749361
2460.5,39.5737516585224
2460.75,39.5337788421087
2461,39.4938060256949
2461.25,39.4538332092812
2461.5,39.4138603928676
2461.75,39.3738875764539
2462,39.3339147600401
2462.25,39.3045435422802
2462.5,39.3345231545905
2462.75,39.3645027669008
2463,39.394482379211
2463.25,39.4244619915213
2463.5,39.4544416038316
2463.75,39.4844212161419
2464,39.5144008284522
2464.25,39.5443804407625
2464.5,39.5743600530727
2464.75,39.604339665383
2465,39.6343192776933
2465.25,39.6642988900036
2465.5,39.6942785023138
2465.75,39.7242581146241
2466,39.7542377269344
2466.25,39.7842173392447
2466.5,39.8141969515549
2466.75,39.8441765638652
2467,39.8741561761755
2467.25,39.8986214038381
2467.5,39.8886281997346
2467.75,39.8786349956312
2468,39.8686417915278
2468.25,39.8586485874244
2468.5,39.8486553833209
2468.75,39.8386621792175
2469,39.8286689751141
2469.25,39.8186757710106
2469.5,39.8086825669072
2469.75,39.7986893628038
2470,39.7886961587004
2470.25,39.7787029545969
2470.5,39.7687097504935
2470.75,39.7587165463901
2471,39.7487233422867
2471.25,39.7387301381832
2471.5,39.7287369340798
2471.75,39.7187437299764
2472,39.708750525873
2472.25,39.6707970615837
2472.5,39.4359567651531
2472.75,39.2011164687229
2473,38.9662761722923
2473.25,38.7314358758617
2473.5,38.4965955794311
2473.75,38.2617552830005
2474,38.0269149865699
2474.25,37.7920746901397
2474.5,37.5572343937091
2474.75,37.3223940972785
2475,37.0875538008479
2475.25,36.8527135044173
2475.5,36.6178732079867
2475.75,36.3830329115561
2476,36.1481926151259
2476.25,35.9133523186953
2476.5,35.6785120222647
2476.75,35.4436717258341
2477,35.2088314294035
2477.25,35.0166014044854
2477.5,35.1664994660366
2477.75,35.316397527588
2478,35.4662955891395
2478.25,35.6161936506909
2478.5,35.7660917122424
2478.75,35.9159897737938
2479,36.0658878353453
2479.25,36.2157858968964
2479.5,36.3656839584479
2479.75,36.5155820199993
2480,36.6654800815508
2480.25,36.8153781431022
2480.5,36.9652762046537
2480.75,37.1151742662048
2481,37.2650723277563
2481.25,37.4149703893077
2481.5,37.5648684508592
2481.75,37.7147665124106
2482,37.8646645739621
2482.25,37.9805831526486
2482.5,37.7807190705804
2482.75,37.5808549885118
2483,37.3809909064432
2483.25,37.1811268243746
2483.5,36.981262742306
2483.75,36.7813986602374
2484,36.5815345781692
2484.25,36.3816704961006
2484.5,36.181806414032
2484.75,35.9819423319634
2485,35.7820782498948
2485.25,35.5822141678262
2485.5,35.3823500857576
2485.75,35.1824860036893
2486,34.9826219216207
2486.25,34.7827578395521
2486.5,34.5828937574835
2486.75,34.3830296754149
2487,34.1831655933463
2487.25,34.0008349244361
2487.5,34.0108281285395
2487.75,34.020821332643
2488,34.0308145367464
2488.25,34.0408077408498
2488.5,34.0508009449532
2488.75,34.0607941490567
2489,34.0707873531601
2489.25,34.0807805572635
2489.5,34.0907737613669
2489.75,34.1007669654704
2490,34.1107601695738
2490.25,34.1207533736772
2490.5,34.1307465777806
2490.75,34.1407397818841
2491,34.1507329859875
2491.25,34.1607261900909
2491.5,34.1707193941944
2491.75,34.1807125982978
2492,34.1907058024012
2492.25,34.1940584447106
2492.5,34.1091162098314
2492.75,34.0241739749523
2493,33.9392317400731
2493.25,33.854289505194
2493.5,33.7693472703148
2493.75,33.6844050354358
2494,33.5994628005567
2494.25,33.5145205656775
2494.5,33.4295783307984
2494.75,33.3446360959192
2495,33.25969386104
2495.25,33.174751626161
2495.5,33.0898093912819
2495.75,33.0048671564027
2496,32.9199249215236
2496.25,32.8349826866444
2496.5,32.7500404517653
2496.75,32.6650982168861
2497,32.5801559820071
2497.25,32.5028154428659
2497.5,32.5527814633831
2497.75,32.6027474839002
2498,32.6527135044173
2498.25,32.7026795249345
2498.5,32.7526455454516
2498.75,32.8026115659687
2499,32.8525775864859
2499.25,32.902543607003
2499.5,32.9525096275202
2499.75,33.0024756480373
2500,33.0524416685545
2500.25,33.1024076890715
2500.5,33.1523737095887
2500.75,33.2023397301058
2501,33.252305750623
2501.25,33.3022717711401
2501.5,33.3522377916573
2501.75,33.4022038121743
2502,33.4521698326915
2502.25,33.4974369761497
2502.5,33.4374777515291
2502.75,33.3775185269085
2503,33.3175593022879
2503.25,33.2576000776673
2503.5,33.1976408530469
2503.75,33.1376816284263
2504,33.0777224038057
2504.25,33.0177631791851
2504.5,32.9578039545646
2504.75,32.897844729944
2505,32.8378855053235
2505.25,32.7779262807029
2505.5,32.7179670560823
2505.75,32.6580078314618
2506,32.5980486068412
2506.25,32.5380893822206
2506.5,32.4781301576
2506.75,32.4181709329796
2507,32.358211708359
2507.25,32.3018931426167
2507.5,32.366848969289
2507.75,32.4318047959613
2508,32.4967606226336
2508.25,32.5617164493058
2508.5,32.6266722759781
2508.75,32.6916281026504
2509,32.7565839293227
2509.25,32.821539755995
2509.5,32.8864955826673
2509.75,32.9514514093396
2510,33.0164072360117
2510.25,33.081363062684
2510.5,33.1463188893563
2510.75,33.2112747160286
2511,33.2762305427009
2511.25,33.3411863693732
2511.5,33.4061421960454
2511.75,33.4710980227177
2512,33.53605384939
2512.25,33.5993786608848
2512.5,33.559405844471
2512.75,33.5194330280573
2513,33.4794602116437
2513.25,33.43948739523
2513.5,33.3995145788162
2513.75,33.3595417624025
2514,33.3195689459888
2514.25,33.2795961295751
2514.5,33.2396233131614
2514.75,33.1996504967477
2515,33.159677680334
2515.25,33.1197048639203
2515.5,33.0797320475065
2515.75,33.0397592310928
2516,32.9997864146791
2516.25,32.9598135982655
2516.5,32.9198407818517
2516.75,32.879867965438
2517,32.8398951490243
2517.25,32.8001650432025
2517.5,32.8851072780817
2517.75,32.9700495129608
2518,33.0549917478398
2518.25,33.139933982719
2518.5,33.2248762175981
2518.75,33.3098184524773
2519,33.3947606873564
2519.25,33.4797029222356
2519.5,33.5646451571146
2519.75,33.6495873919937
2520,33.7345296268729
2520.25,33.819471861752
2520.5,33.9044140966312
2520.75,33.9893563315104
2521,34.0742985663895
2521.25,34.1592408012685
2521.5,34.2441830361477
2521.75,34.3291252710268
2522,34.414067505906
2522.25,34.4990097407851
2522.5,34.4753082424517
2522.75,34.4503252321932
2523,34.4253422219346
2523.25,34.400359211676
2523.5,34.3753762014174
2523.75,34.3503931911589
2524,34.3254101809003
2524.25,34.3004271706417
2524.5,34.2754441603832
2524.75,34.2504611501246
2525,34.225478139866
2525.25,34.2004951296075
2525.5,34.1755121193489
2525.75,34.1505291090903
2526,34.1255460988318
2526.25,34.1005630885732
2526.5,34.0755800783146
2526.75,34.050597068056
2527,34.0256140577975
2527.25,34.0006310475389
2527.5,33.9951296074561
2527.75,33.9901330054044
2528,33.9851364033526
2528.25,33.9801398013009
2528.5,33.9751431992492
2528.75,33.9701465971975
2529,33.9651499951458
2529.25,33.9601533930941
2529.5,33.9551567910424
2529.75,33.9501601889907
2530,33.9451635869389
2530.25,33.9401669848872
2530.5,33.9351703828355
2530.75,33.9301737807838
2531,33.9251771787321
2531.25,33.9201805766804
2531.5,33.9151839746287
2531.75,33.9101873725769
2532,33.9051907705252
2532.25,33.9001941684735
2532.5,33.9
2532.75,33.9
2533,33.9
2533.25,33.9
2533.5,33.9
2533.75,33.9
2534,33.9
2534.25,33.9
2534.5,33.9
2534.75,33.9
2535,33.9
2535.25,33.9
2535.5,33.9
2535.75,33.9
2536,33.9
2536.25,33.9
2536.5,33.9
2536.75,33.9
2537,33.9
2537.25,33.9
2537.5,33.8905310507751
2537.75,33.8805378466716
2538,33.8705446425682
2538.25,33.8605514384648
2538.5,33.8505582343613
2538.75,33.8405650302579
2539,33.8305718261545
2539.25,33.8205786220511
2539.5,33.8105854179476
2539.75,33.8005922138442
2540,33.7905990097408
2540.25,33.7806058056374
2540.5,33.7706126015339
2540.75,33.7606193974305
2541,33.7506261933271
2541.25,33.7406329892236
2541.5,33.7306397851202
2541.75,33.7206465810168
2542,33.7106533769134
2542.25,33.70066017281
2542.5,33.8166628911685
2542.75,33.9415779424614
2543,34.0664929937543
2543.25,34.1914080450471
2543.5,34.31632309634
2543.75,34.4412381476327
2544,34.5661531989255
2544.25,34.6910682502184
2544.5,34.8159833015113
2544.75,34.9408983528042
2545,35.065813404097
2545.25,35.1907284553899
2545.5,35.3156435066825
2545.75,35.4405585579754
2546,35.5654736092683
2546.25,35.6903886605612
2546.5,35.815303711854
2546.75,35.9402187631469
2547,36.0651338144396
2547.25,36.1900488657324
2547.5,36.0758389696127
2547.75,35.9409307142164
2548,35.8060224588201
2548.25,35.6711142034238
2548.5,35.5362059480275
2548.75,35.4012976926314
2549,35.2663894372351
2549.25,35.1314811818388
2549.5,34.9965729264425
2549.75,34.8616646710462
2550,34.7267564156499
2550.25,34.5918481602538
2550.5,34.4569399048575
2550.75,34.3220316494612
2551,34.1871233940649
2551.25,34.0522151386686
2551.5,33.9173068832723
2551.75,33.782398627876
2552,33.6474903724799
2552.25,33.5125821170836
2552.5,33.5
2552.75,33.5
2553,33.5
2553.25,33.5
2553.5,33.5
2553.75,33.5
2554,33.5
2554.25,33.5
2554.5,33.5
2554.75,33.5
2555,33.5
2555.25,33.5
2555.5,33.5
2555.75,33.5
2556,33.5
2556.25,33.5
2556.5,33.5
2556.75,33.5
2557,33.5
2557.25,33.5
2557.5,33.4509109737549
2557.75,33.395948351186
2558,33.3409857286172
2558.25,33.2860231060484
2558.5,33.2310604834795
2558.75,33.1760978609107
2559,33.1211352383418
2559.25,33.0661726157729
2559.5,33.0112099932041
2559.75,32.9562473706352
2560,32.9012847480664
2560.25,32.8463221254976
2560.5,32.7913595029287
2560.75,32.7363968803598
2561,32.681434257791
2561.25,32.6264716352221
2561.5,32.5715090126534
2561.75,32.5165463900845
2562,32.4615837675156
2562.25,32.4066211449468
2562.5,32.4747095563251
2562.75,32.5596517912042
2563,32.6445940260834
2563.25,32.7295362609624
2563.5,32.8144784958415
2563.75,32.8994207307207
2564,32.9843629655998
2564.25,33.069305200479
2564.5,33.1542474353581
2564.75,33.2391896702371
2565,33.3241319051163
2565.25,33.4090741399954
2565.5,33.4940163748746
2565.75,33.5789586097538
2566,33.6639008446329
2566.25,33.7488430795121
2566.5,33.8337853143911
2566.75,33.9187275492702
2567,34.0036697841494
2567.25,34.0886120190285
2567.5,34.1346137665448
2567.75,34.1745865829585
2568,34.2145593993722
2568.25,34.2545322157859
2568.5,34.2945050321996
2568.75,34.3344778486133
2569,34.374450665027
2569.25,34.4144234814408
2569.5,34.4543962978545
2569.75,34.4943691142681
2570,34.5343419306818
2570.25,34.5743147470956
2570.5,34.6142875635093
2570.75,34.654260379923
2571,34.6942331963367
2571.25,34.7342060127504
2571.5,34.7741788291641
2571.75,34.8141516455778
2572,34.8541244619915
2572.25,34.8940972784052
2572.5,34.8787061907382
2572.75,34.8537231804796
2573,34.828740170221
2573.25,34.8037571599625
2573.5,34.7787741497039
2573.75,34.7537911394453
2574,34.7288081291867
2574.25,34.7038251189282
2574.5,34.6788421086696
2574.75,34.6538590984111
2575,34.6288760881525
2575.25,34.6038930778939
2575.5,34.5789100676353
2575.75,34.5539270573768
2576,34.5289440471182
2576.25,34.5039610368597
2576.5,34.4789780266011
2576.75,34.4539950163425
2577,34.4290120060839
2577.25,34.4040289958254
2577.5,34.4251448173198
2577.75,34.4551244296301
2578,34.4851040419404
2578.25,34.5150836542507
2578.5,34.545063266561
2578.75,34.5750428788712
2579,34.6050224911815
2579.25,34.6350021034918
2579.5,34.6649817158021
2579.75,34.6949613281123
2580,34.7249409404226
2580.25,34.7549205527329
2580.5,34.7849001650432
2580.75,34.8148797773535
2581,34.8448593896637
2581.25,34.874839001974
2581.5,34.9048186142843
2581.75,34.9347982265946
2582,34.9647778389049
2582.25,34.9947574512152
2582.5,34.9958771560791
2582.75,34.9908805540274
2583,34.9858839519757
2583.25,34.980887349924
2583.5,34.9758907478722
2583.75,34.9708941458205
2584,34.9658975437688
2584.25,34.9609009417171
2584.5,34.9559043396654
2584.75,34.9509077376137
2585,34.945911135562
2585.25,34.9409145335102
2585.5,34.9359179314585
2585.75,34.9309213294068
2586,34.9259247273551
2586.25,34.9209281253034
2586.5,34.9159315232517
2586.75,34.9109349212
2587,34.9059383191482
2587.25,34.9009417170965
2587.5,34.9324390796414
2587.75,34.9724118960551
2588,35.0123847124688
2588.25,35.0523575288826
2588.5,35.0923303452963
2588.75,35.13230316171
2589,35.1722759781237
2589.25,35.2122487945374
2589.5,35.2522216109511
2589.75,35.2921944273648
2590,35.3321672437785
2590.25,35.3721400601923
2590.5,35.412112876606
2590.75,35.4520856930196
2591,35.4920585094333
2591.25,35.5320313258471
2591.5,35.5720041422608
2591.75,35.6119769586745
2592,35.6519497750882
2592.25,35.6919225915019
2592.5,35.6242484062005
2592.75,35.5293129672179
2593,35.4343775282353
2593.25,35.3394420892527
2593.5,35.2445066502702
2593.75,35.1495712112876
2594,35.0546357723052
2594.25,34.9597003333226
2594.5,34.86476489434
2594.75,34.7698294553574
2595,34.6748940163748
2595.25,34.5799585773922
2595.5,34.4850231384098
2595.75,34.3900876994272
2596,34.2951522604447
2596.25,34.2002168214621
2596.5,34.1052813824795
2596.75,34.0103459434969
2597,33.9154105045145
2597.25,33.8204750655319
2597.5,33.8705414064269
2597.75,33.9604802433578
2598,34.0504190802887
2598.25,34.1403579172196
2598.5,34.2302967541504
2598.75,34.3202355910811
2599,34.410174428012
2599.25,34.5001132649429
2599.5,34.5900521018737
2599.75,34.6799909388046
2600,34.7699297757355
2600.25,34.8598686126662
2600.5,34.949807449597
2600.75,35.0397462865279
2601,35.1296851234588
2601.25,35.2196239603897
2601.5,35.3095627973205
2601.75,35.3995016342514
2602,35.4894404711821
2602.25,35.579379308113
2602.5,35.6577651208699
2602.75,35.7327141516456
2603,35.8076631824213
2603.25,35.882612213197
2603.5,35.9575612439726
2603.75,36.0325102747483
2604,36.1074593055241
2604.25,36.1824083362998
2604.5,36.2573573670755
2604.75,36.3323063978512
2605,36.407255428627
2605.25,36.4822044594026
2605.5,36.5571534901783
2605.75,36.632102520954
2606,36.7070515517297
2606.25,36.7820005825055
2606.5,36.8569496132812
2606.75,36.9318986440568
2607,37.0068476748325
2607.25,37.0817967056082
2607.5,37.1
2607.75,37.1
2608,37.1
2608.25,37.1
2608.5,37.1
2608.75,37.1
2609,37.1
2609.25,37.1
2609.5,37.1
2609.75,37.1
2610,37.1
2610.25,37.1
2610.5,37.1
2610.75,37.1
2611,37.1
2611.25,37.1
2611.5,37.1
2611.75,37.1
2612,37.1
2612.25,37.1
2612.5,37.1
2612.75,37.1
2613,37.1
2613.25,37.1
2613.5,37.1
2613.75,37.1
2614,37.1
2614.25,37.1
2614.5,37.1
2614.75,37.1
2615,37.1
2615.25,37.1
2615.5,37.1
2615.75,37.1
2616,37.1
2616.25,37.1
2616.5,37.1
2616.75,37.1
2617,37.1
2617.25,37.1
2617.5,37.1
2617.75,37.1
2618,37.1
2618.25,37.1
2618.5,37.1
2618.75,37.1
2619,37.1
2619.25,37.1
2619.5,37.1
2619.75,37.1
2620,37.1
2620.25,37.1
2620.5,37.1
2620.75,37.1
2621,37.1
2621.25,37.1
2621.5,37.1
2621.75,37.1
2622,37.1
2622.25,37.1
2622.5,37.1644250995114
2622.75,37.2543639364423
2623,37.344302773373
2623.25,37.4342416103038
2623.5,37.5241804472347
2623.75,37.6141192841656
2624,37.7040581210964
2624.25,37.7939969580273
2624.5,37.883935794958
2624.75,37.9738746318889
2625,38.0638134688198
2625.25,38.1537523057506
2625.5,38.2436911426815
2625.75,38.3336299796124
2626,38.4235688165432
2626.25,38.5135076534739
2626.5,38.6034464904048
2626.75,38.6933853273357
2627,38.7833241642665
2627.25,38.8732630011974
2627.5,38.9245784926054
2627.75,38.9595547069674
2628,38.9945309213294
2628.25,39.0295071356914
2628.5,39.0644833500534
2628.75,39.0994595644154
2629,39.1344357787774
2629.25,39.1694119931394
2629.5,39.2043882075014
2629.75,39.2393644218634
2630,39.2743406362254
2630.25,39.3093168505874
2630.5,39.3442930649494
2630.75,39.3792692793114
2631,39.4142454936733
2631.25,39.4492217080353
2631.5,39.4841979223973
2631.75,39.5191741367593
2632,39.5541503511213
2632.25,39.5891265654833
2632.5,39.5139186434095
2632.75,39.3890035921168
2633,39.264088540824
2633.25,39.1391734895311
2633.5,39.0142584382382
2633.75,38.8893433869453
2634,38.7644283356525
2634.25,38.6395132843598
2634.5,38.514598233067
2634.75,38.3896831817741
2635,38.2647681304812
2635.25,38.1398530791883
2635.5,38.0149380278955
2635.75,37.8900229766028
2636,37.7651079253099
2636.25,37.6401928740171
2636.5,37.5152778227242
2636.75,37.3903627714313
2637,37.2654477201384
2637.25,37.1405326688456
2637.5,37.0493705705318
2637.75,36.974421539756
2638,36.8994725089803
2638.25,36.8245234782046
2638.5,36.7495744474289
2638.75,36.6746254166531
2639,36.5996763858776
2639.25,36.5247273551018
2639.5,36.4497783243261
2639.75,36.3748292935504
2640,36.2998802627747
2640.25,36.2249312319989
2640.5,36.1499822012232
2640.75,36.0750331704476
2641,36.0000841396719
2641.25,35.9251351088962
2641.5,35.8501860781204
2641.75,35.7752370473447
2642,35.700288016569
2642.25,35.6253389857934
2642.5,35.6099220089965
2642.75,35.6249118151516
2643,35.6399016213068
2643.25,35.6548914274619
2643.5,35.669881233617
2643.75,35.6848710397722
2644,35.6998608459273
2644.25,35.7148506520825
2644.5,35.7298404582376
2644.75,35.7448302643927
2645,35.7598200705479
2645.25,35.774809876703
2645.5,35.7897996828581
2645.75,35.8047894890133
2646,35.8197792951684
2646.25,35.8347691013236
2646.5,35.8497589074787
2646.75,35.8647487136339
2647,35.879738519789
2647.25,35.8947283259441
2647.5,35.9064787547329
2647.75,35.9164719588363
2648,35.9264651629397
2648.25,35.9364583670431
2648.5,35.9464515711466
2648.75,35.95644477525
2649,35.9664379793534
2649.25,35.9764311834568
2649.5,35.9864243875603
2649.75,35.9964175916637
2650,36.0064107957671
2650.25,36.0164039998706
2650.5,36.026397203974
2650.75,36.0363904080774
2651,36.0463836121808
2651.25,36.0563768162843
2651.5,36.0663700203877
2651.75,36.0763632244911
2652,36.0863564285945
2652.25,36.096349632698
2652.5,36.1475712760105
2652.75,36.2225203067862
2653,36.2974693375619
2653.25,36.3724183683376
2653.5,36.4473673991134
2653.75,36.522316429889
2654,36.5972654606647
2654.25,36.6722144914404
2654.5,36.7471635222161
2654.75,36.8221125529918
2655,36.8970615837676
2655.25,36.9720106145432
2655.5,37.0469596453189
2655.75,37.1219086760946
2656,37.1968577068703
2656.25,37.2718067376461
2656.5,37.3467557684218
2656.75,37.4217047991974
2657,37.4966538299731
2657.25,37.5716028607488
2657.5,37.6093103783049
2657.75,37.6243001844601
2658,37.6392899906152
2658.25,37.6542797967703
2658.5,37.6692696029255
2658.75,37.6842594090806
2659,37.6992492152358
2659.25,37.7142390213909
2659.5,37.729228827546
2659.75,37.7442186337012
2660,37.7592084398563
2660.25,37.7741982460114
2660.5,37.7891880521666
2660.75,37.8041778583217
2661,37.8191676644769
2661.25,37.834157470632
2661.5,37.8491472767872
2661.75,37.8641370829423
2662,37.8791268890974
2662.25,37.8941166952526
2662.5,37.9182130028154
2662.75,37.9481926151257
2663,37.978172227436
2663.25,38.0081518397463
2663.5,38.0381314520565
2663.75,38.0681110643668
2664,38.0980906766771
2664.25,38.1280702889874
2664.5,38.1580499012977
2664.75,38.188029513608
2665,38.2180091259182
2665.25,38.2479887382285
2665.5,38.2779683505388
2665.75,38.3079479628491
2666,38.3379275751594
2666.25,38.3679071874697
2666.5,38.3978867997799
2666.75,38.4278664120902
2667,38.4578460244005
2667.25,38.4878256367108
2667.5,38.5
2667.75,38.5
2668,38.5
2668.25,38.5
2668.5,38.5
2668.75,38.5
2669,38.5
2669.25,38.5
2669.5,38.5
2669.75,38.5
2670,38.5
2670.25,38.5
2670.5,38.5
2670.75,38.5
2671,38.5
2671.25,38.5
2671.5,38.5
2671.75,38.5
2672,38.5
2672.25,38.5
2672.5,38.4913012523866
2672.75,38.4763114462315
2673,38.4613216400764
2673.25,38.4463318339212
2673.5,38.4313420277661
2673.75,38.416352221611
2674,38.4013624154558
2674.25,38.3863726093007
2674.5,38.3713828031455
2674.75,38.3563929969904
2675,38.3414031908353
2675.25,38.3264133846801
2675.5,38.311423578525
2675.75,38.2964337723698
2676,38.2814439662147
2676.25,38.2664541600596
2676.5,38.2514643539044
2676.75,38.2364745477493
2677,38.2214847415941
2677.25,38.206494935439
2677.5,38.0952299278339
2677.75,37.9103556519208
2678,37.7254813760074
2678.25,37.5406071000939
2678.5,37.3557328241805
2678.75,37.170858548267
2679,36.9859842723536
2679.25,36.8011099964401
2679.5,36.616235720527
2679.75,36.4313614446135
2680,36.2464871687001
2680.25,36.0616128927866
2680.5,35.8767386168732
2680.75,35.6918643409597
2681,35.5069900650466
2681.25,35.3221157891332
2681.5,35.1372415132197
2681.75,34.9523672373062
2682,34.7674929613928
2682.25,34.5826186854793
2682.5,34.4695996893304
2682.75,34.4146370667616
2683,34.3596744441928
2683.25,34.3047118216239
2683.5,34.249749199055
2683.75,34.1947865764862
2684,34.1398239539173
2684.25,34.0848613313485
2684.5,34.0298987087797
2684.75,33.9749360862108
2685,33.919973463642
2685.25,33.8650108410731
2685.5,33.8100482185042
2685.75,33.7550855959354
2686,33.7001229733666
2686.25,33.6451603507977
2686.5,33.5901977282289
2686.75,33.53523510566
2687,33.4802724830911
2687.25,33.4253098605223
2687.5,33.4269570564059
2687.75,33.4769230769231
2688,33.5268890974402
2688.25,33.5768551179573
2688.5,33.6268211384745
2688.75,33.6767871589916
2689,33.7267531795088
2689.25,33.7767192000259
2689.5,33.826685220543
2689.75,33.8766512410602
2690,33.9266172615773
2690.25,33.9765832820945
2690.5,34.0265493026116
2690.75,34.0765153231287
2691,34.1264813436458
2691.25,34.176447364163
2691.5,34.2264133846801
2691.75,34.2763794051973
2692,34.3263454257144
2692.25,34.3763114462316
2692.5,34.512993107019
2692.75,34.7278469952428
2693,34.9427008834665
2693.25,35.1575547716903
2693.5,35.372408659914
2693.75,35.5872625481378
2694,35.8021164363611
2694.25,36.0169703245849
2694.5,36.2318242128086
2694.75,36.4466781010323
2695,36.6615319892561
2695.25,36.8763858774798
2695.5,37.0912397657036
2695.75,37.3060936539269
2696,37.5209475421507
2696.25,37.7358014303744
2696.5,37.9506553185982
2696.75,38.1655092068219
2697,38.3803630950456
2697.25,38.595216983269
2697.5,38.738396815637
2697.75,38.8133458464127
2698,38.8882948771885
2698.25,38.9632439079642
2698.5,39.0381929387399
2698.75,39.1131419695155
2699,39.1880910002912
2699.25,39.2630400310669
2699.5,39.3379890618427
2699.75,39.4129380926184
2700,39.4878871233941
2700.25,39.5628361541698
2700.5,39.6377851849454
2700.75,39.7127342157211
2701,39.7876832464969
2701.25,39.8626322772726
2701.5,39.9375813080483
2701.75,40.012530338824
2702,40.0874793695996
2702.25,40.1624284003753
2702.5,40.2199346299472
2702.75,40.259907446361
2703,40.2998802627747
2703.25,40.3398530791884
2703.5,40.3798258956021
2703.75,40.4197987120158
2704,40.4597715284295
2704.25,40.4997443448432
2704.5,40.5397171612569
2704.75,40.5796899776706
2705,40.6196627940844
2705.25,40.659635610498
2705.5,40.6996084269117
2705.75,40.7395812433254
2706,40.7795540597392
2706.25,40.8195268761529
2706.5,40.8594996925666
2706.75,40.8994725089803
2707,40.939445325394
2707.25,40.9794181418077
2707.5,41
2707.75,41
2708,41
2708.25,41
2708.5,41
2708.75,41
2709,41
2709.25,41
2709.5,41
2709.75,41
2710,41
2710.25,41
2710.5,41
2710.75,41
2711,41
2711.25,41
2711.5,41
2711.75,41
2712,41
2712.25,41
2712.5,41
2712.75,41
2713,41
2713.25,41
2713.5,41
2713.75,41
2714,41
2714.25,41
2714.5,41
2714.75,41
2715,41
2715.25,41
2715.5,41
2715.75,41
2716,41
2716.25,41
2716.5,41
2716.75,41
2717,41
2717.25,41
2717.5,40.9931361444613
2717.75,40.9781463383062
2718,40.9631565321511
2718.25,40.9481667259959
2718.5,40.9331769198408
2718.75,40.9181871136856
2719,40.9031973075305
2719.25,40.8882075013754
2719.5,40.8732176952202
2719.75,40.8582278890651
2720,40.8432380829099
2720.25,40.8282482767548
2720.5,40.8132584705997
2720.75,40.7982686644445
2721,40.7832788582894
2721.25,40.7682890521342
2721.5,40.7532992459791
2721.75,40.738309439824
2722,40.7233196336688
2722.25,40.7083298275137
2722.5,40.7377398789684
2722.75,40.8226821138475
2723,40.9076243487265
2723.25,40.9925665836057
2723.5,41.0775088184848
2723.75,41.162451053364
2724,41.2473932882431
2724.25,41.3323355231223
2724.5,41.4172777580014
2724.75,41.5022199928804
2725,41.5871622277596
2725.25,41.6721044626387
2725.5,41.7570466975179
2725.75,41.841988932397
2726,41.9269311672762
2726.25,42.0118734021552
2726.5,42.0968156370344
2726.75,42.1817578719135
2727,42.2667001067927
2727.25,42.3516423416718
2727.5,42.4
2727.75,42.4
2728,42.4
2728.25,42.4
2728.5,42.4
2728.75,42.4
2729,42.4
2729.25,42.4
2729.5,42.4
2729.75,42.4
2730,42.4
2730.25,42.4
2730.5,42.4
2730.75,42.4
2731,42.4
2731.25,42.4
2731.5,42.4
2731.75,42.4
2732,42.4
2732.25,42.4
2732.5,42.3729070256625
2732.75,42.3079511989904
2733,42.2429953723181
2733.25,42.1780395456458
2733.5,42.1130837189735
2733.75,42.0481278923012
2734,41.9831720656289
2734.25,41.9182162389566
2734.5,41.8532604122844
2734.75,41.7883045856121
2735,41.7233487589398
2735.25,41.6583929322676
2735.5,41.5934371055953
2735.75,41.528481278923
2736,41.4635254522508
2736.25,41.3985696255785
2736.5,41.3336137989062
2736.75,41.2686579722339
2737,41.2037021455616
2737.25,41.1387463188893
2737.5,41.0334681725509
2737.75,40.8685803048446
2738,40.703692437138
2738.25,40.5388045694314
2738.5,40.3739167017248
2738.75,40.2090288340182
2739,40.0441409663116
2739.25,39.8792530986053
2739.5,39.7143652308988
2739.75,39.5494773631922
2740,39.3845894954856
2740.25,39.219701627779
2740.5,39.0548137600724
2740.75,38.8899258923661
2741,38.7250380246595
2741.25,38.5601501569529
2741.5,38.3952622892463
2741.75,38.2303744215397
2742,38.0654865538331
2742.25,37.9005986861265
2742.5,37.72791819035
2742.75,37.5430439144365
2743,37.3581696385231
2743.25,37.1732953626096
2743.5,36.9884210866962
2743.75,36.8035468107827
2744,36.6186725348696
2744.25,36.4337982589561
2744.5,36.2489239830427
2744.75,36.0640497071292
2745,35.8791754312158
2745.25,35.6943011553023
2745.5,35.5094268793889
2745.75,35.3245526034758
2746,35.1396783275623
2746.25,34.9548040516488
2746.5,34.7699297757354
2746.75,34.5850554998219
2747,34.4001812239085
2747.25,34.2153069479954
2747.5,34.0811980194816
2747.75,34.0312319989645
2748,33.9812659784473
2748.25,33.9312999579302
2748.5,33.881333937413
2748.75,33.8313679168959
2749,33.7814018963788
2749.25,33.7314358758616
2749.5,33.6814698553445
2749.75,33.6315038348273
2750,33.5815378143102
2750.25,33.531571793793
2750.5,33.481605773276
2750.75,33.4316397527588
2751,33.3816737322417
2751.25,33.3317077117245
2751.5,33.2817416912074
2751.75,33.2317756706902
2752,33.1818096501731
2752.25,33.131843629656
2752.5,33.0855020873111
2752.75,33.0455292708974
2753,33.0055564544837
2753.25,32.96558363807
2753.5,32.9256108216562
2753.75,32.8856380052426
2754,32.8456651888289
2754.25,32.8056923724151
2754.5,32.7657195560014
2754.75,32.7257467395877
2755,32.685773923174
2755.25,32.6458011067603
2755.5,32.6058282903466
2755.75,32.5658554739329
2756,32.5258826575192
2756.25,32.4859098411055
2756.5,32.4459370246917
2756.75,32.405964208278
2757,32.3659913918644
2757.25,32.3260185754506
2757.5,32.3261642018057
2757.75,32.4011132325815
2758,32.4760622633572
2758.25,32.5510112941329
2758.5,32.6259603249085
2758.75,32.7009093556842
2759,32.77585838646
2759.25,32.8508074172357
2759.5,32.9257564480114
2759.75,33.0007054787871
2760,33.0756545095629
2760.25,33.1506035403384
2760.5,33.2255525711142
2760.75,33.3005016018899
2761,33.3754506326656
2761.25,33.4503996634413
2761.5,33.5253486942171
2761.75,33.6002977249927
2762,33.6752467557684
2762.25,33.7501957865441
2762.5,33.8335264230931
2762.75,33.9334584641274
2763,34.0333905051617
2763.25,34.133322546196
2763.5,34.2332545872301
2763.75,34.3331866282644
2764,34.4331186692987
2764.25,34.533050710333
2764.5,34.6329827513673
2764.75,34.7329147924016
2765,34.8328468334357
2765.25,34.93277887447
2765.5,35.0327109155043
2765.75,35.1326429565386
2766,35.2325749975729
2766.25,35.3325070386072
2766.5,35.4324390796415
2766.75,35.5323711206756
2767,35.6323031617099
2767.25,35.7322352027442
2767.5,35.8032167243778
2767.75,35.8132099284813
2768,35.8232031325847
2768.25,35.8331963366881
2768.5,35.8431895407915
2768.75,35.853182744895
2769,35.8631759489984
2769.25,35.8731691531018
2769.5,35.8831623572053
2769.75,35.8931555613087
2770,35.9031487654121
2770.25,35.9131419695155
2770.5,35.923135173619
2770.75,35.9331283777224
2771,35.9431215818258
2771.25,35.9531147859293
2771.5,35.9631079900327
2771.75,35.9731011941361
2772,35.9830943982395
2772.25,35.993087602343
2772.5,35.9722727419824
2772.75,35.8823339050516
2773,35.7923950681207
2773.25,35.70245623119
2773.5,35.6125173942591
2773.75,35.5225785573283
2774,35.4326397203974
2774.25,35.3427008834665
2774.5,35.2527620465356
2774.75,35.1628232096049
2775,35.0728843726741
2775.25,34.9829455357432
2775.5,34.8930066988123
2775.75,34.8030678618815
2776,34.7131290249506
2776.25,34.6231901880197
2776.5,34.533251351089
2776.75,34.4433125141582
2777,34.3533736772273
2777.25,34.2634348402964
2777.5,34.152881783761
2777.75,33.9929905181061
2778,33.8330992524515
2778.25,33.6732079867966
2778.5,33.5133167211417
2778.75,33.3534254554869
2779,33.193534189832
2779.25,33.0336429241771
2779.5,32.8737516585225
2779.75,32.7138603928676
2780,32.5539691272128
2780.25,32.3940778615579
2780.5,32.234186595903
2780.75,32.0742953302481
2781,31.9144040645933
2781.25,31.7545127989387
2781.5,31.5946215332838
2781.75,31.4347302676289
2782,31.274839001974
2782.25,31.1149477363192
2782.5,31.0070224264587
2782.75,31.0320054367172
2783,31.0569884469758
2783.25,31.0819714572344
2783.5,31.106954467493
2783.75,31.1319374777515
2784,31.1569204880101
2784.25,31.1819034982687
2784.5,31.2068865085272
2784.75,31.2318695187858
2785,31.2568525290444
2785.25,31.2818355393029
2785.5,31.3068185495615
2785.75,31.3318015598201
2786,31.3567845700786
2786.25,31.3817675803372
2786.5,31.4067505905958
2786.75,31.4317336008543
2787,31.4567166111129
2787.25,31.4816996213715
2787.5,31.5080191579561
2787.75,31.5379987702663
2788,31.5679783825766
2788.25,31.5979579948869
2788.5,31.6279376071972
2788.75,31.6579172195075
2789,31.6878968318178
2789.25,31.717876444128
2789.5,31.7478560564383
2789.75,31.7778356687486
2790,31.8078152810589
2790.25,31.8377948933692
2790.5,31.8677745056794
2790.75,31.8977541179897
2791,31.9277337303
2791.25,31.9577133426103
2791.5,31.9876929549206
2791.75,32.0176725672308
2792,32.0476521795411
2792.25,32.0776317918514
2792.5,32.1177599430439
2792.75,32.1877123717679
2793,32.2576648004919
2793.25,32.3276172292159
2793.5,32.3975696579399
2793.75,32.4675220866639
2794,32.5374745153879
2794.25,32.6074269441118
2794.5,32.6773793728358
2794.75,32.7473318015598
2795,32.8172842302838
2795.25,32.8872366590078
2795.5,32.9571890877318
2795.75,33.0271415164557
2796,33.0970939451797
2796.25,33.1670463739037
2796.5,33.2369988026278
2796.75,33.3069512313518
2797,33.3769036600758
2797.25,33.4468560887998
2797.5,33.51320669234
2797.75,33.5681693149089
2798,33.6231319374777
2798.25,33.6780945600466
2798.5,33.7330571826155
2798.75,33.7880198051843
2799,33.8429824277531
2799.25,33.897945050322
2799.5,33.9529076728908
2799.75,34.0078702954597
2800,34.0628329180286
2800.25,34.1177955405974
2800.5,34.1727581631662
2800.75,34.2277207857351
2801,34.2826834083039
2801.25,34.3376460308728
2801.5,34.3926086534416
2801.75,34.4475712760105
2802,34.5025338985794
2802.25,34.5574965211481
2802.5,34.5898061551406
2802.75,34.5448367366752
2803,34.4998673182098
2803.25,34.4548978997443
2803.5,34.4099284812789
2803.75,34.3649590628135
2804,34.3199896443481
2804.25,34.2750202258827
2804.5,34.2300508074172
2804.75,34.1850813889518
2805,34.1401119704864
2805.25,34.0951425520209
2805.5,34.0501731335556
2805.75,34.0052037150901
2806,33.9602342966247
2806.25,33.9152648781593
2806.5,33.8702954596938
2806.75,33.8253260412284
2807,33.7803566227631
2807.25,33.7353872042976
2807.5,33.6978706190738
2807.75,33.6878774149704
2808,33.677884210867
2808.25,33.6678910067635
2808.5,33.6578978026601
2808.75,33.6479045985567
2809,33.6379113944533
2809.25,33.6279181903498
2809.5,33.6179249862464
2809.75,33.607931782143
2810,33.5979385780395
2810.25,33.5879453739361
2810.5,33.5779521698327
2810.75,33.5679589657293
2811,33.5579657616258
2811.25,33.5479725575224
2811.5,33.537979353419
2811.75,33.5279861493155
2812,33.5179929452121
2812.25,33.5079997411087
2812.5,33.5069771204815
2812.75,33.5419533348435
2813,33.5769295492055
2813.25,33.6119057635675
2813.5,33.6468819779295
2813.75,33.6818581922915
2814,33.7168344066535
2814.25,33.7518106210155
2814.5,33.7867868353775
2814.75,33.8217630497395
2815,33.8567392641015
2815.25,33.8917154784635
2815.5,33.9266916928255
2815.75,33.9616679071875
2816,33.9966441215495
2816.25,34.0316203359115
2816.5,34.0665965502735
2816.75,34.1015727646354
2817,34.1365489789974
2817.25,34.1715251933594
2817.5,34.2
2817.75,34.2
2818,34.2
2818.25,34.2
2818.5,34.2
2818.75,34.2
2819,34.2
2819.25,34.2
2819.5,34.2
2819.75,34.2
2820,34.2
2820.25,34.2
2820.5,34.2
2820.75,34.2
2821,34.2
2821.25,34.2
2821.5,34.2
2821.75,34.2
2822,34.2
2822.25,34.2
2822.5,34.1991391864341
2822.75,34.1941425843824
2823,34.1891459823307
2823.25,34.184149380279
2823.5,34.1791527782272
2823.75,34.1741561761755
2824,34.1691595741238
2824.25,34.1641629720721
2824.5,34.1591663700204
2824.75,34.1541697679687
2825,34.149173165917
2825.25,34.1441765638653
2825.5,34.1391799618135
2825.75,34.1341833597618
2826,34.1291867577101
2826.25,34.1241901556584
2826.5,34.1191935536067
2826.75,34.114196951555
2827,34.1092003495033
2827.25,34.1042037474515
2827.5,34.0968285815993
2827.75,34.0768421733924
2828,34.0568557651856
2828.25,34.0368693569788
2828.5,34.0168829487719
2828.75,33.996896540565
2829,33.9769101323582
2829.25,33.9569237241513
2829.5,33.9369373159445
2829.75,33.9169509077376
2830,33.8969644995308
2830.25,33.8769780913239
2830.5,33.8569916831171
2830.75,33.8370052749102
2831,33.8170188667033
2831.25,33.7970324584965
2831.5,33.7770460502896
2831.75,33.7570596420828
2832,33.7370732338759
2832.25,33.7170868256691
2832.5,33.7028995825378
2832.75,33.7228859907447
2833,33.7428723989515
2833.25,33.7628588071583
2833.5,33.7828452153652
2833.75,33.8028316235721
2834,33.8228180317789
2834.25,33.8428044399858
2834.5,33.8627908481926
2834.75,33.8827772563995
2835,33.9027636646063
2835.25,33.9227500728132
2835.5,33.94273648102
2835.75,33.9627228892269
2836,33.9827092974338
2836.25,34.0026957056406
2836.5,34.0226821138474
2836.75,34.0426685220543
2837,34.0626549302612
2837.25,34.082641338468
2837.5,34.1039416200123
2837.75,34.1339212323226
2838,34.1639008446328
2838.25,34.1938804569431
2838.5,34.2238600692534
2838.75,34.2538396815637
2839,34.283819293874
2839.25,34.3137989061843
2839.5,34.3437785184945
2839.75,34.3737581308048
2840,34.4037377431151
2840.25,34.4337173554254
2840.5,34.4636969677357
2840.75,34.493676580046
2841,34.5236561923562
2841.25,34.5536358046665
2841.5,34.5836154169768
2841.75,34.6135950292871
2842,34.6435746415974
2842.25,34.6735542539077
2842.5,34.6946992006732
2842.75,34.6497297822077
2843,34.6047603637423
2843.25,34.5597909452769
2843.5,34.5148215268114
2843.75,34.469852108346
2844,34.4248826898806
2844.25,34.3799132714152
2844.5,34.3349438529498
2844.75,34.2899744344843
2845,34.2450050160189
2845.25,34.2000355975535
2845.5,34.155066179088
2845.75,34.1100967606227
2846,34.0651273421572
2846.25,34.0201579236918
2846.5,33.9751885052264
2846.75,33.9302190867609
2847,33.8852496682955
2847.25,33.8402802498301
2847.5,33.8031261124235
2847.75,33.8331057247338
2848,33.8630853370441
2848.25,33.8930649493544
2848.5,33.9230445616647
2848.75,33.953024173975
2849,33.9830037862852
2849.25,34.0129833985955
2849.5,34.0429630109058
2849.75,34.0729426232161
2850,34.1029222355264
2850.25,34.1329018478367
2850.5,34.1628814601469
2850.75,34.1928610724572
2851,34.2228406847675
2851.25,34.2528202970778
2851.5,34.282799909388
2851.75,34.3127795216983
2852,34.3427591340086
2852.25,34.3727387463189
2852.5,34.3977347011424
2852.75,34.3727516908838
2853,34.3477686806252
2853.25,34.3227856703666
2853.5,34.2978026601081
2853.75,34.2728196498495
2854,34.247836639591
2854.25,34.2228536293324
2854.5,34.1978706190738
2854.75,34.1728876088152
2855,34.1479045985567
2855.25,34.1229215882981
2855.5,34.0979385780396
2855.75,34.072955567781
2856,34.0479725575224
2856.25,34.0229895472638
2856.5,33.9980065370053
2856.75,33.9730235267467
2857,33.9480405164881
2857.25,33.9230575062296
2857.5,33.9023106048348
2857.75,33.9322902171451
2858,33.9622698294554
2858.25,33.9922494417657
2858.5,34.0222290540759
2858.75,34.0522086663862
2859,34.0821882786965
2859.25,34.1121678910068
2859.5,34.142147503317
2859.75,34.1721271156273
2860,34.2021067279376
2860.25,34.2320863402479
2860.5,34.2620659525582
2860.75,34.2920455648684
2861,34.3220251771787
2861.25,34.352004789489
2861.5,34.3819844017993
2861.75,34.4119640141096
2862,34.4419436264198
2862.25,34.4719232387301
2862.5,34.4996828581599
2862.75,34.4946862561082
2863,34.4896896540565
2863.25,34.4846930520048
2863.5,34.4796964499531
2863.75,34.4746998479014
2864,34.4697032458497
2864.25,34.4647066437979
2864.5,34.4597100417462
2864.75,34.4547134396945
2865,34.4497168376428
2865.25,34.4447202355911
2865.5,34.4397236335394
2865.75,34.4347270314877
2866,34.4297304294359
2866.25,34.4247338273842
2866.5,34.4197372253325
2866.75,34.4147406232808
2867,34.4097440212291
2867.25,34.4047474191774
2867.5,34.4009967314974
2867.75,34.4209831397042
2868,34.4409695479111
2868.25,34.4609559561179
2868.5,34.4809423643248
2868.75,34.5009287725316
2869,34.5209151807385
2869.25,34.5409015889453
2869.5,34.5608879971522
2869.75,34.5808744053591
2870,34.6008608135659
2870.25,34.6208472217727
2870.5,34.6408336299796
2870.75,34.6608200381865
2871,34.6808064463933
2871.25,34.7007928546002
2871.5,34.720779262807
2871.75,34.7407656710139
2872,34.7607520792207
2872.25,34.7807384874276
2872.5,34.803262030355
2872.75,34.8932008672859
2873,34.9831397042168
2873.25,35.0730785411475
2873.5,35.1630173780783
2873.75,35.2529562150092
2874,35.3428950519401
2874.25,35.4328338888709
2874.5,35.5227727258018
2874.75,35.6127115627327
2875,35.7026503996634
2875.25,35.7925892365942
2875.5,35.8825280735251
2875.75,35.972466910456
2876,36.0624057473869
2876.25,36.1523445843177
2876.5,36.2422834212484
2876.75,36.3322222581793
2877,36.4221610951102
2877.25,36.512099932041
2877.5,36.5998867350571
2877.75,36.5948901330054
2878,36.5898935309537
2878.25,36.584896928902
2878.5,36.5799003268503
2878.75,36.5749037247986
2879,36.5699071227468
2879.25,36.5649105206951
2879.5,36.5599139186434
2879.75,36.5549173165917
2880,36.54992071454
2880.25,36.5449241124883
2880.5,36.5399275104366
2880.75,36.5349309083848
2881,36.5299343063331
2881.25,36.5249377042814
2881.5,36.5199411022297
2881.75,36.514944500178
2882,36.5099478981263
2882.25,36.5049512960746
2882.5,36.5000453059772
2882.75,36.5050419080289
2883,36.5100385100806
2883.25,36.5150351121323
2883.5,36.520031714184
2883.75,36.5250283162357
2884,36.5300249182874
2884.25,36.5350215203392
2884.5,36.5400181223909
2884.75,36.5450147244426
2885,36.5500113264943
2885.25,36.555007928546
2885.5,36.5600045305977
2885.75,36.5650011326494
2886,36.5699977347011
2886.25,36.5749943367529
2886.5,36.5799909388046
2886.75,36.5849875408563
2887,36.589984142908
2887.25,36.5949807449597
2887.5,36.5999773470114
2887.75,36.4308857318535
2888,36.2610012620952
2888.25,36.0911167923369
2888.5,35.9212323225786
2888.75,35.7513478528203
2889,35.5814633830619
2889.25,35.4115789133036
2889.5,35.2416944435456
2889.75,35.0718099737873
2890,34.901925504029
2890.25,34.7320410342707
2890.5,34.5621565645124
2890.75,34.3922720947541
2891,34.2223876249961
2891.25,34.0525031552378
2891.5,33.8826186854795
2891.75,33.7127342157212
2892,33.5428497459629
2892.25,33.3729652762046
2892.5,33.2030808064463
2892.75,33.1901880198052
2893,33.1801948157018
2893.25,33.1702016115983
2893.5,33.1602084074949
2893.75,33.1502152033915
2894,33.140221999288
2894.25,33.1302287951846
2894.5,33.1202355910812
2894.75,33.1102423869778
2895,33.1002491828743
2895.25,33.0902559787709
2895.5,33.0802627746675
2895.75,33.0702695705641
2896,33.0602763664606
2896.25,33.0502831623572
2896.5,33.0402899582538
2896.75,33.0302967541503
2897,33.0203035500469
2897.25,33.0103103459435
2897.5,33.0003171418401
2897.75,33.014514093395
2898,33.0295038995502
2898.25,33.0444937057053
2898.5,33.0594835118605
2898.75,33.0744733180156
2899,33.0894631241707
2899.25,33.1044529303259
2899.5,33.119442736481
2899.75,33.1344325426362
2900,33.1494223487913
2900.25,33.1644121549464
2900.5,33.1794019611016
2900.75,33.1943917672567
2901,33.2093815734119
2901.25,33.224371379567
2901.5,33.2393611857221
2901.75,33.2543509918773
2902,33.2693407980324
2902.25,33.2843306041876
2902.5,33.2993204103427
2902.75,33.3143102164978
2903,33.329300022653
2903.25,33.3442898288081
2903.5,33.3592796349633
2903.75,33.3742694411184
2904,33.3892592472735
2904.25,33.4042490534287
2904.5,33.4192388595838
2904.75,33.434228665739
2905,33.4492184718941
2905.25,33.4642082780493
2905.5,33.4791980842044
2905.75,33.4941878903595
2906,33.5091776965147
2906.25,33.5241675026698
2906.5,33.539157308825
2906.75,33.5541471149801
2907,33.5691369211353
2907.25,33.5841267272904
2907.5,33.5991165334455
2907.75,33.5670852075985
2908,33.5321089932365
2908.25,33.4971327788745
2908.5,33.4621565645125
2908.75,33.4271803501505
2909,33.3922041357885
2909.25,33.3572279214265
2909.5,33.3222517070645
2909.75,33.2872754927025
2910,33.2522992783405
2910.25,33.2173230639785
2910.5,33.1823468496165
2910.75,33.1473706352545
2911,33.1123944208925
2911.25,33.0774182065305
2911.5,33.0424419921685
2911.75,33.0074657778065
2912,32.9724895634446
2912.25,32.9375133490826
2912.5,32.9025371347206
2912.75,32.890731691531
2913,32.8807384874276
2913.25,32.8707452833242
2913.5,32.8607520792207
2913.75,32.8507588751173
2914,32.8407656710139
2914.25,32.8307724669105
2914.5,32.820779262807
2914.75,32.8107860587036
2915,32.8007928546002
2915.25,32.7907996504968
2915.5,32.7808064463933
2915.75,32.7708132422899
2916,32.7608200381865
2916.25,32.750826834083
2916.5,32.7408336299796
2916.75,32.7308404258762
2917,32.7208472217728
2917.25,32.7108540176693
2917.5,32.7008608135659
2917.75,32.6954338047312
2918,32.6904372026795
2918.25,32.6854406006278
2918.5,32.6804439985761
2918.75,32.6754473965244
2919,32.6704507944727
2919.25,32.665454192421
2919.5,32.6604575903692
2919.75,32.6554609883175
2920,32.6504643862658
2920.25,32.6454677842141
2920.5,32.6404711821624
2920.75,32.6354745801107
2921,32.630477978059
2921.25,32.6254813760073
2921.5,32.6204847739555
2921.75,32.6154881719038
2922,32.6104915698521
2922.25,32.6054949678004
2922.5,32.6004983657487
2922.75,32.6944629623637
2923,32.7993916054497
2923.25,32.9043202485356
2923.5,33.0092488916216
2923.75,33.1141775347076
2924,33.2191061777936
