1671,37.5
1671.25,37.5
1671.5,37.4722657624516
1671.75,37.3023799622532
1672,37.1324941620549
1672.25,36.9626083618567
1672.5,36.7927225616583
1672.75,36.62283676146
1673,36.4529509612616
1673.25,36.2830651610633
1673.5,36.1131793608649
1673.75,35.9432935606667
1674,35.7734077604683
1674.25,35.60352196027
1674.5,35.4336361600716
1674.75,35.2637503598734
1675,35.093864559675
1675.25,34.9239787594767
1675.5,34.7540929592783
1675.75,34.58420715908
1676,34.4143213588816
1676.25,34.2444355586834
1676.5,34.0842807331819
1676.75,33.9793512683536
1677,33.8744218035251
1677.25,33.7694923386968
1677.5,33.6645628738684
1677.75,33.55963340904
1678,33.4547039442116
1678.25,33.3497744793833
1678.5,33.2448450145548
1678.75,33.1399155497265
1679,33.0349860848981
1679.25,32.9300566200698
1679.5,32.8251271552413
1679.75,32.720197690413
1680,32.6152682255846
1680.25,32.5103387607562
1680.5,32.4054092959278
1680.75,32.3004798310995
1681,32.195550366271
1681.25,32.0906209014427
1681.5,31.9959118390327
1681.75,31.9659319919388
1682,31.935952144845
1682.25,31.9059722977512
1682.5,31.8759924506574
1682.75,31.8460126035635
1683,31.8160327564697
1683.25,31.7860529093759
1683.5,31.7560730622821
1683.75,31.7260932151883
1684,31.6961133680944
1684.25,31.6661335210006
1684.5,31.6361536739068
1684.75,31.606173826813
1685,31.5761939797191
1685.25,31.5462141326253
1685.5,31.5162342855315
1685.75,31.4862544384377
1686,31.4562745913438
1686.25,31.42629474425
1686.5,31.4128978599533
1686.75,31.5178273247817
1687,31.6227567896101
1687.25,31.7276862544384
1687.5,31.8326157192669
1687.75,31.9375451840952
1688,32.0424746489236
1688.25,32.147404113752
1688.5,32.2523335785804
1688.75,32.3572630434087
1689,32.4621925082371
1689.25,32.5671219730655
1689.5,32.6720514378939
1689.75,32.7769809027222
1690,32.8819103675507
1690.25,32.986839832379
1690.5,33.0917692972074
1690.75,33.1966987620358
1691,33.3016282268642
1691.25,33.4065576916925
1691.5,33.5021880298135
1691.75,33.5221745945427
1692,33.5421611592719
1692.25,33.5621477240012
1692.5,33.5821342887304
1692.75,33.6021208534596
1693,33.6221074181888
1693.25,33.642093982918
1693.5,33.6620805476472
1693.75,33.6820671123764
1694,33.7020536771057
1694.25,33.7220402418349
1694.5,33.7420268065641
1694.75,33.7620133712933
1695,33.7819999360225
1695.25,33.8019865007517
1695.5,33.821973065481
1695.75,33.8419596302102
1696,33.8619461949394
1696.25,33.8819327596686
1696.5,33.9047983109946
1696.75,33.9547647228176
1697,34.0047311346406
1697.25,34.0546975464637
1697.5,34.1046639582867
1697.75,34.1546303701097
1698,34.2045967819328
1698.25,34.2545631937558
1698.5,34.3045296055789
1698.75,34.3544960174019
1699,34.4044624292249
1699.25,34.454428841048
1699.5,34.504395252871
1699.75,34.554361664694
1700,34.6043280765171
1700.25,34.6542944883401
1700.5,34.7042609001632
1700.75,34.7542273119862
1701,34.8041937238092
1701.25,34.8541601356323
1701.5,34.8909215955983
1701.75,34.7809954895876
1702,34.6710693835769
1702.25,34.5611432775663
1702.5,34.4512171715555
1702.75,34.3412910655449
1703,34.2313649595342
1703.25,34.1214388535235
1703.5,34.0115127475128
1703.75,33.9015866415022
1704,33.7916605354915
1704.25,33.6817344294808
1704.5,33.5718083234702
1704.75,33.4618822174594
1705,33.3519561114488
1705.25,33.2420300054381
1705.5,33.1321038994274
1705.75,33.0221777934167
1706,32.9122516874061
1706.25,32.8023255813953
1706.5,32.7062186110489
1706.75,32.7961581523304
1707,32.8860976936118
1707.25,32.9760372348933
1707.5,33.0659767761748
1707.75,33.1559163174563
1708,33.2458558587377
1708.25,33.3357954000192
1708.5,33.4257349413006
1708.75,33.5156744825822
1709,33.6056140238636
1709.25,33.6955535651451
1709.5,33.7854931064265
1709.75,33.875432647708
1710,33.9653721889895
1710.25,34.055311730271
1710.5,34.1452512715524
1710.75,34.2351908128339
1711,34.3251303541153
1711.25,34.4150698953968
1711.5,34.4894245225681
1711.75,34.2995521576405
1712,34.109679792713
1712.25,33.9198074277854
1712.5,33.7299350628579
1712.75,33.5400626979303
1713,33.3501903330028
1713.25,33.1603179680752
1713.5,32.9704456031477
1713.75,32.7805732382201
1714,32.5907008732926
1714.25,32.400828508365
1714.5,32.2109561434375
1714.75,32.0210837785099
1715,31.8312114135824
1715.25,31.6413390486548
1715.5,31.4514666837273
1715.75,31.2615943187997
1716,31.0717219538723
1716.25,30.8818495889446
1716.5,30.7029557595726
1716.75,30.7729087361249
1717,30.8428617126771
1717.25,30.9128146892294
1717.5,30.9827676657816
1717.75,31.0527206423339
1718,31.1226736188861
1718.25,31.1926265954384
1718.5,31.2625795719907
1718.75,31.3325325485429
1719,31.4024855250952
1719.25,31.4724385016474
1719.5,31.5423914781997
1719.75,31.612344454752
1720,31.6822974313042
1720.25,31.7522504078565
1720.5,31.8222033844087
1720.75,31.892156360961
1721,31.9621093375132
1721.25,32.0320623140655
1721.5,32.0969770640735
1721.75,31.992047599245
1722,31.8871181344167
1722.25,31.7821886695883
1722.5,31.6772592047599
1722.75,31.5723297399315
1723,31.4674002751032
1723.25,31.3624708102747
1723.5,31.2575413454464
1723.75,31.152611880618
1724,31.0476824157896
1724.25,30.9427529509612
1724.5,30.8378234861329
1724.75,30.7328940213045
1725,30.6279645564761
1725.25,30.5230350916477
1725.5,30.4181056268194
1725.75,30.3131761619909
1726,30.2082466971626
1726.25,30.1033172323342
1726.5,30.0003838648796
1726.75,30.0253670707911
1727,30.0503502767026
1727.25,30.0753334826141
1727.5,30.1003166885256
1727.75,30.1252998944372
1728,30.1502831003487
1728.25,30.1752663062602
1728.5,30.2002495121717
1728.75,30.2252327180832
1729,30.2502159239948
1729.25,30.2751991299063
1729.5,30.3001823358178
1729.75,30.3251655417293
1730,30.3501487476408
1730.25,30.3751319535524
1730.5,30.4001151594639
1730.75,30.4250983653754
1731,30.4500815712869
1731.25,30.4750647771984
1731.5,30.5001727391958
1731.75,30.5901122804773
1732,30.6800518217588
1732.25,30.7699913630403
1732.5,30.8599309043217
1732.75,30.9498704456032
1733,31.0398099868846
1733.25,31.1297495281661
1733.5,31.2196890694476
1733.75,31.3096286107291
1734,31.3995681520105
1734.25,31.489507693292
1734.5,31.5794472345734
1734.75,31.669386775855
1735,31.7593263171364
1735.25,31.8492658584179
1735.5,31.9392053996993
1735.75,32.0291449409808
1736,32.1190844822623
1736.25,32.2090240235437
1736.5,32.2989635648252
1736.75,32.3098781229007
1737,32.3198714052653
1737.25,32.32986468763
1737.5,32.3398579699946
1737.75,32.3498512523592
1738,32.3598445347238
1738.25,32.3698378170884
1738.5,32.379831099453
1738.75,32.3898243818176
1739,32.3998176641822
1739.25,32.4098109465468
1739.5,32.4198042289114
1739.75,32.429797511276
1740,32.4397907936406
1740.25,32.4497840760052
1740.5,32.4597773583699
1740.75,32.4697706407345
1741,32.4797639230991
1741.25,32.4897572054637
1741.5,32.4997504878283
1741.75,32.5048718850964
1742,32.5098685262788
1742.25,32.5148651674611
1742.5,32.5198618086434
1742.75,32.5248584498257
1743,32.529855091008
1743.25,32.5348517321903
1743.5,32.5398483733726
1743.75,32.5448450145549
1744,32.5498416557372
1744.25,32.5548382969195
1744.5,32.5598349381018
1744.75,32.5648315792841
1745,32.5698282204664
1745.25,32.5748248616487
1745.5,32.579821502831
1745.75,32.5848181440133
1746,32.5898147851956
1746.25,32.5948114263779
1746.5,32.5998080675602
1746.75,32.4366399027543
1747,32.2667541025558
1747.25,32.0968683023576
1747.5,31.9269825021592
1747.75,31.7570967019609
1748,31.5872109017625
1748.25,31.4173251015643
1748.5,31.2474393013659
1748.75,31.0775535011676
1749,30.9076677009692
1749.25,30.7377819007709
1749.5,30.5678961005725
1749.75,30.3980103003743
1750,30.2281245001759
1750.25,30.0582386999776
1750.5,29.8883528997792
1750.75,29.718467099581
1751,29.5485812993825
1751.25,29.3786954991843
1751.5,29.2088096989859
1751.75,29.2426377914974
1752,29.2876075621381
1752.25,29.3325773327789
1752.5,29.3775471034196
1752.75,29.4225168740603
1753,29.4674866447011
1753.25,29.5124564153418
1753.5,29.5574261859826
1753.75,29.6023959566233
1754,29.647365727264
1754.25,29.6923354979047
1754.5,29.7373052685455
1754.75,29.7822750391862
1755,29.827244809827
1755.25,29.8722145804677
1755.5,29.9171843511084
1755.75,29.9621541217491
1756,30.0071238923899
1756.25,30.0520936630306
1756.5,30.0970634336714
1756.75,30.1980774767282
1757,30.3030069415566
1757.25,30.407936406385
1757.5,30.5128658712134
1757.75,30.6177953360417
1758,30.7227248008701
1758.25,30.8276542656985
1758.5,30.9325837305269
1758.75,31.0375131953552
1759,31.1424426601837
1759.25,31.247372125012
1759.5,31.3523015898404
1759.75,31.4572310546688
1760,31.5621605194972
1760.25,31.6670899843255
1760.5,31.772019449154
1760.75,31.8769489139823
1761,31.9818783788107
1761.25,32.0868078436391
1761.5,32.1917373084675
1761.75,32.4485717027607
1762,32.7183903266052
1762.25,32.9882089504495
1762.5,33.258027574294
1762.75,33.5278461981383
1763,33.7976648219828
1763.25,34.0674834458271
1763.5,34.3373020696716
1763.75,34.6071206935159
1764,34.8769393173605
1764.25,35.1467579412047
1764.5,35.4165765650493
1764.75,35.6863951888935
1765,35.9562138127381
1765.25,36.2260324365824
1765.5,36.4958510604269
1765.75,36.7656696842712
1766,37.0354883081157
1766.25,37.30530693196
1766.5,37.5751255558045
1766.75,37.4094878602731
1767,37.1996289306163
1767.25,36.9897700009596
1767.5,36.7799110713028
1767.75,36.5700521416461
1768,36.3601932119894
1768.25,36.1503342823326
1768.5,35.9404753526759
1768.75,35.7306164230191
1769,35.5207574933624
1769.25,35.3108985637055
1769.5,35.1010396340489
1769.75,34.891180704392
1770,34.6813217747353
1770.25,34.4714628450785
1770.5,34.2616039154218
1770.75,34.051744985765
1771,33.8418860561083
1771.25,33.6320271264514
1771.5,33.4221681967948
1771.75,33.4268129618374
1772,33.4567928089312
1772.25,33.4867726560251
1772.5,33.5167525031189
1772.75,33.5467323502127
1773,33.5767121973065
1773.25,33.6066920444004
1773.5,33.6366718914942
1773.75,33.666651738588
1774,33.6966315856818
1774.25,33.7266114327757
1774.5,33.7565912798695
1774.75,33.7865711269633
1775,33.8165509740571
1775.25,33.846530821151
1775.5,33.8765106682448
1775.75,33.9064905153386
1776,33.9364703624324
1776.25,33.9664502095263
1776.5,33.9964300566201
1776.75,33.9031636863824
1777,33.7932375803717
1777.25,33.683311474361
1777.5,33.5733853683504
1777.75,33.4634592623396
1778,33.353533156329
1778.25,33.2436070503183
1778.5,33.1336809443076
1778.75,33.0237548382969
1779,32.9138287322862
1779.25,32.8039026262755
1779.5,32.6939765202649
1779.75,32.5840504142541
1780,32.4741243082435
1780.25,32.3641982022328
1780.5,32.2542720962221
1780.75,32.1443459902114
1781,32.0344198842008
1781.25,31.92449377819
1781.5,31.8145676721794
1781.75,31.9387031764819
1782,32.0985956943156
1782.25,32.2584882121494
1782.5,32.418380729983
1782.75,32.5782732478168
1783,32.7381657656505
1783.25,32.8980582834843
1783.5,33.0579508013179
1783.75,33.2178433191517
1784,33.3777358369854
1784.25,33.5376283548192
1784.5,33.6975208726528
1784.75,33.8574133904866
1785,34.0173059083203
1785.25,34.1771984261541
1785.5,34.3370909439877
1785.75,34.4969834618215
1786,34.6568759796552
1786.25,34.816768497489
1786.5,34.9766610153226
1786.75,34.9359905313329
1787,34.8610409135984
1787.25,34.7860912958638
1787.5,34.7111416781293
1787.75,34.6361920603947
1788,34.5612424426602
1788.25,34.4862928249256
1788.5,34.4113432071911
1788.75,34.3363935894565
1789,34.261443971722
1789.25,34.1864943539874
1789.5,34.1115447362528
1789.75,34.0365951185182
1790,33.9616455007837
1790.25,33.8866958830491
1790.5,33.8117462653146
1790.75,33.73679664758
1791,33.6618470298455
1791.25,33.5868974121109
1791.5,33.5119477943764
1791.75,33.5210006077861
1792,33.5459838136976
1792.25,33.5709670196091
1792.5,33.5959502255206
1792.75,33.6209334314322
1793,33.6459166373437
1793.25,33.6708998432552
1793.5,33.6958830491667
1793.75,33.7208662550782
1794,33.7458494609897
1794.25,33.7708326669013
1794.5,33.7958158728128
1794.75,33.8207990787243
1795,33.8457822846358
1795.25,33.8707654905473
1795.5,33.8957486964589
1795.75,33.9207319023704
1796,33.9457151082819
1796.25,33.9706983141934
1796.5,33.9956815201049
1796.75,33.9545376027638
1797,33.8995745497585
1797.25,33.8446114967531
1797.5,33.7896484437478
1797.75,33.7346853907424
1798,33.6797223377371
1798.25,33.6247592847317
1798.5,33.5697962317264
1798.75,33.5148331787211
1799,33.4598701257157
1799.25,33.4049070727104
1799.5,33.3499440197051
1799.75,33.2949809666997
1800,33.2400179136944
1800.25,33.1850548606891
1800.5,33.1300918076837
1800.75,33.0751287546784
1801,33.020165701673
1801.25,32.9652026486677
1801.5,32.9102395956623
1801.75,32.8634080803557
1802,32.818438309715
1802.25,32.7734685390743
1802.5,32.7284987684335
1802.75,32.6835289977928
1803,32.638559227152
1803.25,32.5935894565113
1803.5,32.5486196858706
1803.75,32.5036499152299
1804,32.4586801445891
1804.25,32.4137103739484
1804.5,32.3687406033076
1804.75,32.3237708326669
1805,32.2788010620262
1805.25,32.2338312913854
1805.5,32.1888615207447
1805.75,32.143891750104
1806,32.0989219794632
1806.25,32.0539522088225
1806.5,32.0089824381817
1806.75,32.1039634048815
1807,32.2338760756214
1807.25,32.3637887463613
1807.5,32.4937014171012
1807.75,32.6236140878411
1808,32.753526758581
1808.25,32.8834394293209
1808.5,33.0133521000608
1808.75,33.1432647708007
1809,33.2731774415406
1809.25,33.4030901122805
1809.5,33.5330027830204
1809.75,33.6629154537603
1810,33.7928281245002
1810.25,33.9227407952401
1810.5,34.05265346598
1810.75,34.1825661367199
1811,34.3124788074598
1811.25,34.4423914781997
1811.5,34.5723041489396
1811.75,34.7100796519625
1812,34.8499856050671
1812.25,34.9898915581715
1812.5,35.1297975112761
1812.75,35.2697034643805
1813,35.4096094174851
1813.25,35.5495153705895
1813.5,35.6894213236941
1813.75,35.8293272767986
1814,35.9692332299031
1814.25,36.1091391830076
1814.5,36.2490451361121
1814.75,36.3889510892166
1815,36.5288570423212
1815.25,36.6687629954256
1815.5,36.8086689485302
1815.75,36.9485749016346
1816,37.0884808547392
1816.25,37.2283868078436
1816.5,37.3682927609482
1816.75,37.4038642397876
1817,37.4088608809699
1817.25,37.4138575221522
1817.5,37.4188541633345
1817.75,37.4238508045168
1818,37.4288474456991
1818.25,37.4338440868814
1818.5,37.4388407280637
1818.75,37.443837369246
1819,37.4488340104283
1819.25,37.4538306516106
1819.5,37.4588272927929
1819.75,37.4638239339752
1820,37.4688205751575
1820.25,37.4738172163398
1820.5,37.4788138575222
1820.75,37.4838104987045
1821,37.4888071398868
1821.25,37.4938037810691
1821.5,37.4988004222514
1821.75,37.3898851604235
1822,37.2449825661366
1822.25,37.1000799718499
1822.5,36.955177377563
1822.75,36.8102747832763
1823,36.6653721889894
1823.25,36.5204695947027
1823.5,36.3755670004158
1823.75,36.230664406129
1824,36.0857618118422
1824.25,35.9408592175554
1824.5,35.7959566232685
1824.75,35.6510540289818
1825,35.5061514346949
1825.25,35.3612488404082
1825.5,35.2163462461213
1825.75,35.0714436518345
1826,34.9265410575477
1826.25,34.7816384632609
1826.5,34.636735868974
1826.75,34.5962701129203
1827,34.5912734717379
1827.25,34.5862768305556
1827.5,34.5812801893733
1827.75,34.576283548191
1828,34.5712869070087
1828.25,34.5662902658264
1828.5,34.5612936246441
1828.75,34.5562969834618
1829,34.5513003422795
1829.25,34.5463037010972
1829.5,34.5413070599149
1829.75,34.5363104187326
1830,34.5313137775503
1830.25,34.526317136368
1830.5,34.5213204951857
1830.75,34.5163238540034
1831,34.5113272128211
1831.25,34.5063305716388
1831.5,34.5013339304565
1831.75,34.4487220498384
1832,34.3787690732862
1832.25,34.3088160967339
1832.5,34.2388631201817
1832.75,34.1689101436294
1833,34.0989571670772
1833.25,34.0290041905249
1833.5,33.9590512139727
1833.75,33.8890982374204
1834,33.8191452608682
1834.25,33.7491922843159
1834.5,33.6792393077637
1834.75,33.6092863312114
1835,33.5393333546592
1835.25,33.4693803781069
1835.5,33.3994274015547
1835.75,33.3294744250024
1836,33.2595214484502
1836.25,33.1895684718979
1836.5,33.1196154953457
1836.75,33.0892133968843
1837,33.0742234733374
1837.25,33.0592335497905
1837.5,33.0442436262436
1837.75,33.0292537026967
1838,33.0142637791497
1838.25,32.9992738556028
1838.5,32.9842839320559
1838.75,32.969294008509
1839,32.9543040849621
1839.25,32.9393141614152
1839.5,32.9243242378683
1839.75,32.9093343143214
1840,32.8943443907744
1840.25,32.8793544672275
1840.5,32.8643645436806
1840.75,32.8493746201337
1841,32.8343846965868
1841.25,32.8193947730399
1841.5,32.804404849493
1841.75,32.7717731358562
1842,32.7318000063977
1842.25,32.6918268769393
1842.5,32.6518537474809
1842.75,32.6118806180224
1843,32.571907488564
1843.25,32.5319343591056
1843.5,32.4919612296472
1843.75,32.4519881001887
1844,32.4120149707303
1844.25,32.3720418412719
1844.5,32.3320687118134
1844.75,32.292095582355
1845,32.2521224528966
1845.25,32.2121493234381
1845.5,32.1721761939797
1845.75,32.1322030645213
1846,32.0922299350629
1846.25,32.0522568056044
1846.5,32.012283676146
1846.75,32.0346118166406
1847,32.0845782284636
1847.25,32.1345446402866
1847.5,32.1845110521097
1847.75,32.2344774639327
1848,32.2844438757557
1848.25,32.3344102875788
1848.5,32.3843766994018
1848.75,32.4343431112249
1849,32.4843095230479
1849.25,32.5342759348709
1849.5,32.584242346694
1849.75,32.634208758517
1850,32.68417517034
1850.25,32.7341415821631
1850.5,32.7841079939861
1850.75,32.8340744058092
1851,32.8840408176322
1851.25,32.9340072294553
1851.5,32.9839736412783
1851.75,32.9626659415885
1852,32.9077028885832
1852.25,32.8527398355779
1852.5,32.7977767825725
1852.75,32.7428137295672
1853,32.6878506765618
1853.25,32.6328876235565
1853.5,32.5779245705512
1853.75,32.5229615175458
1854,32.4679984645405
1854.25,32.4130354115351
1854.5,32.3580723585298
1854.75,32.3031093055244
1855,32.2481462525191
1855.25,32.1931831995137
1855.5,32.1382201465084
1855.75,32.0832570935031
1856,32.0282940404977
1856.25,31.9733309874924
1856.5,31.9183679344871
1856.75,31.9166341447811
1857,31.9416173506926
1857.25,31.9666005566041
1857.5,31.9915837625156
1857.75,32.0165669684271
1858,32.0415501743386
1858.25,32.0665333802502
1858.5,32.0915165861617
1858.75,32.1164997920732
1859,32.1414829979847
1859.25,32.1664662038962
1859.5,32.1914494098078
1859.75,32.2164326157193
1860,32.2414158216308
1860.25,32.2663990275423
1860.5,32.2913822334538
1860.75,32.3163654393654
1861,32.3413486452769
1861.25,32.3663318511884
1861.5,32.3913150570999
1861.75,32.445635136432
1862,32.5155881129842
1862.25,32.5855410895365
1862.5,32.6554940660888
1862.75,32.725447042641
1863,32.7954000191933
1863.25,32.8653529957455
1863.5,32.9353059722978
1863.75,33.00525894885
1864,33.0752119254023
1864.25,33.1451649019545
1864.5,33.2151178785068
1864.75,33.285070855059
1865,33.3550238316113
1865.25,33.4249768081635
1865.5,33.4949297847158
1865.75,33.564882761268
1866,33.6348357378203
1866.25,33.7047887143725
1866.5,33.7747416909248
1866.75,33.9117366686926
1867,34.0866191100733
1867.25,34.2615015514538
1867.5,34.4363839928346
1867.75,34.6112664342151
1868,34.7861488755958
1868.25,34.9610313169764
1868.5,35.1359137583571
1868.75,35.3107961997377
1869,35.4856786411184
1869.25,35.6605610824989
1869.5,35.8354435238796
1869.75,36.0103259652602
1870,36.1852084066409
1870.25,36.3600908480215
1870.5,36.5349732894022
1870.75,36.7098557307827
1871,36.8847381721635
1871.25,37.059620613544
1871.5,37.2345030549247
1871.75,37.3749880042225
1872,37.1751223569303
1872.25,36.9752567096382
1872.5,36.775391062346
1872.75,36.5755254150539
1873,36.3756597677617
1873.25,36.1757941204696
1873.5,35.9759284731774
1873.75,35.7760628258853
1874,35.5761971785931
1874.25,35.376331531301
1874.5,35.1764658840088
1874.75,34.9766002367167
1875,34.7767345894245
1875.25,34.5768689421324
1875.5,34.3770032948401
1875.75,34.1771376475481
1876,33.9772720002558
1876.25,33.7774063529638
1876.5,33.5775407056715
1876.75,33.5366974824862
1877,33.5966571766738
1877.25,33.6566168708615
1877.5,33.7165765650491
1877.75,33.7765362592368
1878,33.8364959534244
1878.25,33.896455647612
1878.5,33.9564153417997
1878.75,34.0163750359873
1879,34.076334730175
1879.25,34.1362944243626
1879.5,34.1962541185503
1879.75,34.2562138127379
1880,34.3161735069256
1880.25,34.3761332011132
1880.5,34.4360928953009
1880.75,34.4960525894885
1881,34.5560122836762
1881.25,34.6159719778638
1881.5,34.6759316720515
1881.75,34.6611176865743
1882,34.5961613512044
1882.25,34.5312050158344
1882.5,34.4662486804644
1882.75,34.4012923450945
1883,34.3363360097245
1883.25,34.2713796743546
1883.5,34.2064233389846
1883.75,34.1414670036147
1884,34.0765106682447
1884.25,34.0115543328748
1884.5,33.9465979975048
1884.75,33.8816416621349
1885,33.8166853267649
1885.25,33.751728991395
1885.5,33.686772656025
1885.75,33.6218163206551
1886,33.5568599852851
1886.25,33.4919036499152
1886.5,33.4269473145452
1886.75,33.514027062474
1887,33.708896068584
1887.25,33.9037650746937
1887.5,34.0986340808037
1887.75,34.2935030869134
1888,34.4883720930234
1888.25,34.6832410991331
1888.5,34.8781101052431
1888.75,35.0729791113528
1889,35.2678481174628
1889.25,35.4627171235725
1889.5,35.6575861296825
1889.75,35.8524551357922
1890,36.0473241419022
1890.25,36.2421931480119
1890.5,36.4370621541219
1890.75,36.6319311602316
1891,36.8268001663416
1891.25,37.0216691724513
1891.5,37.2165381785613
1891.75,37.2400115159464
1892,37.1350820511179
1892.25,37.0301525862896
1892.5,36.9252231214612
1892.75,36.8202936566328
1893,36.7153641918044
1893.25,36.6104347269761
1893.5,36.5055052621477
1893.75,36.4005757973193
1894,36.2956463324909
1894.25,36.1907168676626
1894.5,36.0857874028341
1894.75,35.9808579380058
1895,35.8759284731774
1895.25,35.770999008349
1895.5,35.6660695435206
1895.75,35.5611400786923
1896,35.4562106138639
1896.25,35.3512811490355
1896.5,35.2463516842072
1896.75,35.2446306899971
1897,35.324576948914
1897.25,35.4045232078309
1897.5,35.4844694667477
1897.75,35.5644157256646
1898,35.6443619845814
1898.25,35.7243082434983
1898.5,35.8042545024151
1898.75,35.884200761332
1899,35.9641470202489
1899.25,36.0440932791658
1899.5,36.1240395380826
1899.75,36.2039857969995
1900,36.2839320559163
1900.25,36.3638783148332
1900.5,36.44382457375
1900.75,36.5237708326669
1901,36.6037170915837
1901.25,36.6836633505006
1901.5,36.7636096094175
1901.75,36.7047215380186
1902,36.529839096638
1902.25,36.3549566552573
1902.5,36.1800742138767
1902.75,36.005191772496
1903,35.8303093311155
1903.25,35.6554268897348
1903.5,35.4805444483542
1903.75,35.3056620069735
1904,35.1307795655929
1904.25,34.9558971242122
1904.5,34.7810146828317
1904.75,34.606132241451
1905,34.4312498000704
1905.25,34.2563673586897
1905.5,34.0814849173091
1905.75,33.9066024759284
1906,33.7317200345479
1906.25,33.5568375931671
1906.5,33.3819551517866
1906.75,33.2814145420812
1907,33.2464380538051
1907.25,33.2114615655289
1907.5,33.1764850772528
1907.75,33.1415085889767
1908,33.1065321007006
1908.25,33.0715556124244
1908.5,33.0365791241483
1908.75,33.0016026358722
1909,32.966626147596
1909.25,32.9316496593199
1909.5,32.8966731710438
1909.75,32.8616966827677
1910,32.8267201944915
1910.25,32.7917437062154
1910.5,32.7567672179393
1910.75,32.7217907296631
1911,32.686814241387
1911.25,32.6518377531109
1911.5,32.6168612648348
1911.75,32.5715332203064
1912,32.5165701673011
1912.25,32.4616071142957
1912.5,32.4066440612904
1912.75,32.3516810082851
1913,32.2967179552797
1913.25,32.2417549022744
1913.5,32.1867918492691
1913.75,32.1318287962637
1914,32.0768657432584
1914.25,32.021902690253
1914.5,31.9669396372477
1914.75,31.9119765842423
1915,31.857013531237
1915.25,31.8020504782316
1915.5,31.7470874252263
1915.75,31.692124372221
1916,31.6371613192156
1916.25,31.5821982662103
1916.5,31.527235213205
1916.75,31.6033492210743
1917,31.8082115095487
1917.25,32.0130737980232
1917.5,32.2179360864976
1917.75,32.4227983749721
1918,32.6276606634465
1918.25,32.832522951921
1918.5,33.0373852403954
1918.75,33.2422475288699
1919,33.4471098173443
1919.25,33.6519721058189
1919.5,33.8568343942932
1919.75,34.0616966827678
1920,34.2665589712421
1920.25,34.4714212597167
1920.5,34.6762835481911
1920.75,34.8811458366656
1921,35.08600812514
1921.25,35.2908704136145
1921.5,35.4957327020889
1921.75,35.766840472154
1922,36.1066120725505
1922.25,36.4463836729473
1922.5,36.7861552733438
1922.75,37.1259268737406
1923,37.4656984741372
1923.25,37.805470074534
1923.5,38.1452416749305
1923.75,38.4850132753273
1924,38.8247848757238
1924.25,39.1645564761206
1924.5,39.5043280765171
1924.75,39.8440996769139
1925,40.1838712773104
1925.25,40.5236428777073
1925.5,40.8634144781038
1925.75,41.2031860785006
1926,41.5429576788971
1926.25,41.8827292792939
1926.5,42.2225008796904
1926.75,42.5956815201052
1927,43.0054060970539
1927.25,43.415130674003
1927.5,43.8248552509517
1927.75,44.2345798279009
1928,44.6443044048496
1928.25,45.0540289817983
1928.5,45.4637535587474
1928.75,45.8734781356961
1929,46.2832027126452
1929.25,46.692927289594
1929.5,47.1026518665431
1929.75,47.5123764434918
1930,47.9221010204409
1930.25,48.3318255973896
1930.5,48.7415501743387
1930.75,49.1512747512875
1931,49.5609993282366
1931.25,49.9707239051853
1931.5,50.3804484821344
1931.75,50.5976808163526
1932,50.5926841751703
1932.25,50.587687533988
1932.5,50.5826908928057
1932.75,50.5776942516234
1933,50.5726976104411
1933.25,50.5677009692588
1933.5,50.5627043280765
1933.75,50.5577076868942
1934,50.5527110457119
1934.25,50.5477144045296
1934.5,50.5427177633473
1934.75,50.537721122165
1935,50.5327244809827
1935.25,50.5277278398004
1935.5,50.5227311986181
1935.75,50.5177345574358
1936,50.5127379162535
1936.25,50.5077412750712
1936.5,50.5027446338889
1936.75,50.4954959854131
1937,50.4855027030485
1937.25,50.4755094206839
1937.5,50.4655161383193
1937.75,50.4555228559547
1938,50.4455295735901
1938.25,50.4355362912255
1938.5,50.4255430088609
1938.75,50.4155497264963
1939,50.4055564441317
1939.25,50.3955631617671
1939.5,50.3855698794024
1939.75,50.3755765970378
1940,50.3655833146732
1940.25,50.3555900323086
1940.5,50.345596749944
1940.75,50.3356034675794
1941,50.3256101852148
1941.25,50.3156169028502
1941.5,50.3056236204856
1941.75,50.2322702408752
1942,50.0773743642237
1942.25,49.9224784875724
1942.5,49.7675826109209
1942.75,49.6126867342695
1943,49.4577908576181
1943.25,49.3028949809667
1943.5,49.1479991043152
1943.75,48.9931032276639
1944,48.8382073510124
1944.25,48.683311474361
1944.5,48.5284155977095
1944.75,48.3735197210582
1945,48.2186238444067
1945.25,48.0637279677553
1945.5,47.9088320911039
1945.75,47.7539362144525
1946,47.599040337801
1946.25,47.4441444611497
1946.5,47.2892485844982
1946.75,47.1047055436486
1947,46.8798566904449
1947.25,46.6550078372413
1947.5,46.4301589840375
1947.75,46.2053101308339
1948,45.9804612776302
1948.25,45.7556124244266
1948.5,45.5307635712228
1948.75,45.3059147180192
1949,45.0810658648155
1949.25,44.8562170116119
1949.5,44.6313681584081
1949.75,44.4065193052046
1950,44.1816704520008
1950.25,43.9568215987972
1950.5,43.7319727455934
1950.75,43.5071238923899
1951,43.2822750391861
1951.25,43.0574261859825
1951.5,42.8325773327787
1951.75,42.6917980870734
1952,42.6718115223441
1952.25,42.6518249576149
1952.5,42.6318383928857
1952.75,42.6118518281565
1953,42.5918652634273
1953.25,42.5718786986981
1953.5,42.5518921339688
1953.75,42.5319055692396
1954,42.5119190045104
1954.25,42.4919324397812
1954.5,42.471945875052
1954.75,42.4519593103228
1955,42.4319727455935
1955.25,42.4119861808643
1955.5,42.3919996161351
1955.75,42.3720130514059
1956,42.3520264866767
1956.25,42.3320399219475
1956.5,42.3120533572182
1956.75,42.2524007549342
1957,42.1324813665589
1957.25,42.0125619781837
1957.5,41.8926425898083
1957.75,41.7727232014331
1958,41.6528038130577
1958.25,41.5328844246825
1958.5,41.4129650363071
1958.75,41.2930456479319
1959,41.1731262595566
1959.25,41.0532068711813
1959.5,40.933287482806
1959.75,40.8133680944307
1960,40.6934487060555
1960.25,40.5735293176801
1960.5,40.4536099293049
1960.75,40.3336905409296
1961,40.2137711525543
1961.25,40.093851764179
1961.5,39.9739323758037
1961.75,39.9689805188574
1962,40.1488596014203
1962.25,40.3287386839833
1962.5,40.5086177665461
1962.75,40.6884968491092
1963,40.868375931672
1963.25,41.048255014235
1963.5,41.2281340967979
1963.75,41.4080131793609
1964,41.5878922619238
1964.25,41.7677713444868
1964.5,41.9476504270496
1964.75,42.1275295096127
1965,42.3074085921755
1965.25,42.4872876747385
1965.5,42.6671667573014
1965.75,42.8470458398644
1966,43.0269249224273
1966.25,43.2068040049903
1966.5,43.3866830875532
1966.75,43.5295831867183
1967,43.6095294456351
1967.25,43.689475704552
1967.5,43.7694219634689
1967.75,43.8493682223857
1968,43.9293144813026
1968.25,44.0092607402195
1968.5,44.0892069991363
1968.75,44.1691532580532
1969,44.24909951697
1969.25,44.3290457758869
1969.5,44.4089920348037
1969.75,44.4889382937206
1970,44.5688845526375
1970.25,44.6488308115544
1970.5,44.7287770704712
1970.75,44.8087233293881
1971,44.8886695883049
1971.25,44.9686158472218
1971.5,45.0485621061386
1971.75,45.0020024951216
1972,44.727187230095
1972.25,44.4523719650682
1972.5,44.1775567000416
1972.75,43.9027414350148
1973,43.6279261699882
1973.25,43.3531109049613
1973.5,43.0782956399348
1973.75,42.8034803749079
1974,42.5286651098813
1974.25,42.2538498448545
1974.5,41.9790345798279
1974.75,41.7042193148011
1975,41.4294040497745
1975.25,41.1545887847477
1975.5,40.8797735197211
1975.75,40.6049582546942
1976,40.3301429896676
1976.25,40.0553277246408
1976.5,39.7805124596142
1976.75,39.5725664566072
1977,39.4926201976904
1977.25,39.4126739387735
1977.5,39.3327276798567
1977.75,39.2527814209398
1978,39.172835162023
1978.25,39.0928889031061
1978.5,39.0129426441892
1978.75,38.9329963852723
1979,38.8530501263555
1979.25,38.7731038674386
1979.5,38.6931576085218
1979.75,38.6132113496049
1980,38.5332650906881
1980.25,38.4533188317712
1980.5,38.3733725728544
1980.75,38.2934263139375
1981,38.2134800550206
1981.25,38.1335337961037
1981.5,38.0535875371869
1981.75,38.0065896804325
1982,38.0265762451617
1982.25,38.0465628098909
1982.5,38.0665493746201
1982.75,38.0865359393494
1983,38.1065225040786
1983.25,38.1265090688078
1983.5,38.146495633537
1983.75,38.1664821982662
1984,38.1864687629954
1984.25,38.2064553277247
1984.5,38.2264418924539
1984.75,38.2464284571831
1985,38.2664150219123
1985.25,38.2864015866415
1985.5,38.3063881513707
1985.75,38.3263747160999
1986,38.3463612808292
1986.25,38.3663478455584
1986.5,38.3863344102876
1986.75,38.4458270688718
1987,38.5907296631586
1987.25,38.7356322574455
1987.5,38.8805348517322
1987.75,39.0254374460191
1988,39.1703400403058
1988.25,39.3152426345927
1988.5,39.4601452288795
1988.75,39.6050478231663
1989,39.7499504174531
1989.25,39.89485301174
1989.5,40.0397556060267
1989.75,40.1846582003136
1990,40.3295607946003
1990.25,40.4744633888872
1990.5,40.619365983174
1990.75,40.7642685774608
1991,40.9091711717476
1991.25,41.0540737660344
1991.5,41.1989763603212
1991.75,41.2878954607978
1992,41.2479223313394
1992.25,41.2079492018809
1992.5,41.1679760724225
1992.75,41.1280029429641
1993,41.0880298135056
1993.25,41.0480566840472
1993.5,41.0080835545888
1993.75,40.9681104251304
1994,40.9281372956719
1994.25,40.8881641662135
1994.5,40.8481910367551
1994.75,40.8082179072966
1995,40.7682447778382
1995.25,40.7282716483798
1995.5,40.6882985189213
1995.75,40.6483253894629
1996,40.6083522600045
1996.25,40.5683791305461
1996.5,40.5284060010876
1996.75,40.5043376731391
1997,40.519327596686
1997.25,40.5343175202329
1997.5,40.5493074437798
1997.75,40.5642973673267
1998,40.5792872908736
1998.25,40.5942772144205
1998.5,40.6092671379674
1998.75,40.6242570615143
1999,40.6392469850613
1999.25,40.6542369086082
1999.5,40.6692268321551
1999.75,40.684216755702
2000,40.6992066792489
2000.25,40.7141966027958
2000.5,40.7291865263427
2000.75,40.7441764498896
2001,40.7591663734366
2001.25,40.7741562969835
2001.5,40.7891462205304
2001.75,40.8082722881546
2002,40.8382521352484
2002.25,40.8682319823422
2002.5,40.8982118294361
2002.75,40.9281916765299
2003,40.9581715236237
2003.25,40.9881513707175
2003.5,41.0181312178113
2003.75,41.0481110649052
2004,41.078090911999
2004.25,41.1080707590928
2004.5,41.1380506061866
2004.75,41.1680304532804
2005,41.1980103003743
2005.25,41.2279901474681
2005.5,41.2579699945619
2005.75,41.2879498416557
2006,41.3179296887496
2006.25,41.3479095358434
2006.5,41.3778893829372
2006.75,41.407869230031
2007,41.4378490771249
2007.25,41.4678289242187
2007.5,41.4978087713125
2007.75,41.5277886184063
2008,41.5577684655002
2008.25,41.587748312594
2008.5,41.6177281596878
2008.75,41.6477080067816
2009,41.6776878538754
2009.25,41.7076677009693
2009.5,41.7376475480631
2009.75,41.7676273951569
2010,41.7976072422507
2010.25,41.8275870893446
2010.5,41.8575669364384
2010.75,41.8875467835322
2011,41.917526630626
2011.25,41.9475064777198
2011.5,41.9774863248137
2011.75,42.0062218099229
2012,42.0312050158344
2012.25,42.0561882217459
2012.5,42.0811714276575
2012.75,42.106154633569
2013,42.1311378394805
2013.25,42.156121045392
2013.5,42.1811042513036
2013.75,42.2060874572151
2014,42.2310706631266
2014.25,42.2560538690381
2014.5,42.2810370749496
2014.75,42.3060202808611
2015,42.3310034867727
2015.25,42.3559866926842
2015.5,42.3809698985957
2015.75,42.4059531045072
2016,42.4309363104187
2016.25,42.4559195163303
2016.5,42.4809027222418
2016.75,42.503531556892
2017,42.5185214804389
2017.25,42.5335114039858
2017.5,42.5485013275327
2017.75,42.5634912510796
2018,42.5784811746265
2018.25,42.5934710981734
2018.5,42.6084610217204
2018.75,42.6234509452673
2019,42.6384408688142
2019.25,42.6534307923611
2019.5,42.668420715908
2019.75,42.6834106394549
2020,42.6984005630018
2020.25,42.7133904865487
2020.5,42.7283804100957
2020.75,42.7433703336426
2021,42.7583602571895
2021.25,42.7733501807364
2021.5,42.7883401042833
2021.75,42.7844598701257
2022,42.7145068935734
2022.25,42.6445539170212
2022.5,42.5746009404689
2022.75,42.5046479639167
2023,42.4346949873644
2023.25,42.3647420108122
2023.5,42.2947890342599
2023.75,42.2248360577077
2024,42.1548830811554
2024.25,42.0849301046032
2024.5,42.0149771280509
2024.75,41.9450241514987
2025,41.8750711749464
2025.25,41.8051181983941
2025.5,41.7351652218419
2025.75,41.6652122452896
2026,41.5952592687374
2026.25,41.5253062921851
2026.5,41.4553533156329
2026.75,41.4010428329228
2027,41.4060394741051
2027.25,41.4110361152874
2027.5,41.4160327564697
2027.75,41.421029397652
2028,41.4260260388343
2028.25,41.4310226800166
2028.5,41.4360193211989
2028.75,41.4410159623812
2029,41.4460126035635
2029.25,41.4510092447458
2029.5,41.4560058859282
2029.75,41.4610025271105
2030,41.4659991682928
2030.25,41.4709958094751
2030.5,41.4759924506574
2030.75,41.4809890918397
2031,41.485985733022
2031.25,41.4909823742043
2031.5,41.4959790153866
2031.75,41.5068295959822
2032,41.5418060842583
2032.25,41.5767825725345
2032.5,41.6117590608106
2032.75,41.6467355490867
2033,41.6817120373628
2033.25,41.716688525639
2033.5,41.7516650139151
2033.75,41.7866415021912
2034,41.8216179904674
2034.25,41.8565944787435
2034.5,41.8915709670196
2034.75,41.9265474552958
2035,41.9615239435719
2035.25,41.996500431848
2035.5,42.0314769201241
2035.75,42.0664534084003
2036,42.1014298966764
2036.25,42.1364063849525
2036.5,42.1713828732286
2036.75,42.1800134352707
2037,42.0700873292601
2037.25,41.9601612232494
2037.5,41.8502351172387
2037.75,41.740309011228
2038,41.6303829052174
2038.25,41.5204567992066
2038.5,41.410530693196
2038.75,41.3006045871853
2039,41.1906784811746
2039.25,41.0807523751639
2039.5,40.9708262691533
2039.75,40.8609001631425
2040,40.7509740571319
2040.25,40.6410479511212
2040.5,40.5311218451105
2040.75,40.4211957390998
2041,40.3112696330892
2041.25,40.2013435270784
2041.5,40.0914174210678
2041.75,40.0159847733598
2042,40.1109209558236
2042.25,40.2058571382874
2042.5,40.3007933207511
2042.75,40.3957295032149
2043,40.4906656856786
2043.25,40.5856018681425
2043.5,40.6805380506062
2043.75,40.77547423307
2044,40.8704104155337
2044.25,40.9653465979976
2044.5,41.0602827804613
2044.75,41.1552189629251
2045,41.2501551453888
2045.25,41.3450913278526
2045.5,41.4400275103164
2045.75,41.5349636927802
2046,41.6298998752439
2046.25,41.7248360577077
2046.5,41.8197722401715
2046.75,41.9526406704842
2047,42.2924122708807
2047.25,42.6321838712775
2047.5,42.971955471674
2047.75,43.3117270720708
2048,43.6514986724673
2048.25,43.9912702728641
2048.5,44.3310418732607
2048.75,44.6708134736575
2049,45.010585074054
2049.25,45.3503566744508
2049.5,45.6901282748473
2049.75,46.0298998752441
2050,46.3696714756406
2050.25,46.7094430760374
2050.5,47.0492146764339
2050.75,47.3889862768308
2051,47.7287578772273
2051.25,48.0685294776241
2051.5,48.4083010780206
2051.75,48.7077764626852
2052,48.7627395156905
2052.25,48.8177025686959
2052.5,48.8726656217012
2052.75,48.9276286747065
2053,48.9825917277119
2053.25,49.0375547807172
2053.5,49.0925178337225
2053.75,49.1474808867279
2054,49.2024439397332
2054.25,49.2574069927386
2054.5,49.3123700457439
2054.75,49.3673330987493
2055,49.4222961517546
2055.25,49.47725920476
2055.5,49.5322222577653
2055.75,49.5871853107706
2056,49.642148363776
2056.25,49.6971114167813
2056.5,49.7520744697866
2056.75,49.8441444611496
2057,50.1889127027287
2057.25,50.5336809443075
2057.5,50.8784491858867
2057.75,51.2232174274655
2058,51.5679856690446
2058.25,51.9127539106234
2058.5,52.2575221522025
2058.75,52.6022903937813
2059,52.9470586353604
2059.25,53.2918268769393
2059.5,53.6365951185184
2059.75,53.9813633600972
2060,54.3261316016763
2060.25,54.6708998432551
2060.5,55.0156680848342
2060.75,55.3604363264131
2061,55.7052045679922
2061.25,56.049972809571
2061.5,56.3947410511501
2061.75,56.6610633057164
2062,56.3212917053196
2062.25,55.9815201049231
2062.5,55.6417485045263
2062.75,55.3019769041298
2063,54.962205303733
2063.25,54.6224337033365
2063.5,54.2826621029396
2063.75,53.9428905025431
2064,53.6031189021463
2064.25,53.2633473017498
2064.5,52.923575701353
2064.75,52.5838041009565
2065,52.2440325005597
2065.25,51.9042609001632
2065.5,51.5644892997664
2065.75,51.2247176993698
2066,50.884946098973
2066.25,50.5451744985765
2066.5,50.2054028981797
2066.75,49.9318415917597
2067,50.246629986245
2067.25,50.56141838073
2067.5,50.8762067752153
2067.75,51.1909951697003
2068,51.5057835641855
2068.25,51.8205719586705
2068.5,52.1353603531558
2068.75,52.4501487476408
2069,52.7649371421261
2069.25,53.0797255366111
2069.5,53.3945139310964
2069.75,53.7093023255814
2070,54.0240907200667
2070.25,54.3388791145517
2070.5,54.653667509037
2070.75,54.968455903522
2071,55.2832442980072
2071.25,55.5980326924922
2071.5,55.9128210869775
2071.75,56.1846613991875
2072,56.0097789578068
2072.25,55.8348965164262
2072.5,55.6600140750455
2072.75,55.4851316336649
2073,55.3102491922842
2073.25,55.1353667509037
2073.5,54.960484309523
2073.75,54.7856018681424
2074,54.6107194267617
2074.25,54.4358369853811
2074.5,54.2609545440004
2074.75,54.0860721026199
2075,53.9111896612392
2075.25,53.7363072198586
2075.5,53.5614247784779
2075.75,53.3865423370973
2076,53.2116598957166
2076.25,53.0367774543361
2076.5,52.8618950129554
2076.75,52.7159559834938
2077,52.930811554333
2077.25,53.145667125172
2077.5,53.3605226960111
2077.75,53.5753782668501
2078,53.7902338376893
2078.25,54.0050894085282
2078.5,54.2199449793674
2078.75,54.4348005502064
2079,54.6496561210455
2079.25,54.8645116918845
2079.5,55.0793672627236
2079.75,55.2942228335626
2080,55.5090784044018
2080.25,55.7239339752407
2080.5,55.9387895460799
2080.75,56.1536451169189
2081,56.368500687758
2081.25,56.583356258597
2081.5,56.7982118294362
2081.75,56.9820703112504
2082,56.6872684814943
2082.25,56.3924666517385
2082.5,56.0976648219825
2082.75,55.8028629922267
2083,55.5080611624706
2083.25,55.2132593327148
2083.5,54.9184575029588
2083.75,54.623655673203
2084,54.3288538434469
2084.25,54.0340520136911
2084.5,53.7392501839351
2084.75,53.4444483541793
2085,53.1496465244232
2085.25,52.8548446946674
2085.5,52.5600428649114
2085.75,52.2652410351556
2086,51.9704392053995
2086.25,51.6756373756437
2086.5,51.3808355458876
2086.75,51.0933719330795
2087,50.953465979975
2087.25,50.8135600268705
2087.5,50.6736540737659
2087.75,50.5337481206615
2088,50.3938421675571
2088.25,50.2539362144525
2088.5,50.114030261348
2088.75,49.9741243082435
2089,49.834218355139
2089.25,49.6943124020344
2089.5,49.55440644893
2089.75,49.4145004958254
2090,49.274594542721
2090.25,49.1346885896164
2090.5,48.994782636512
2090.75,48.8548766834074
2091,48.714970730303
2091.25,48.5750647771984
2091.5,48.4351588240939
2091.75,48.2977959758165
2092,48.2328396404466
2092.25,48.1678833050766
2092.5,48.1029269697067
2092.75,48.0379706343367
2093,47.9730142989668
2093.25,47.9080579635968
2093.5,47.8431016282269
2093.75,47.7781452928569
2094,47.713188957487
2094.25,47.648232622117
2094.5,47.5832762867471
2094.75,47.5183199513771
2095,47.4533636160072
2095.25,47.3884072806372
2095.5,47.3234509452673
2095.75,47.2584946098973
2096,47.1935382745274
2096.25,47.1285819391574
2096.5,47.0636256037875
2096.75,47
2097,47
2097.25,47
2097.5,47
2097.75,47
2098,47
2098.25,47
2098.5,47
2098.75,47
2099,47
2099.25,47
2099.5,47
2099.75,47
2100,47
2100.25,47
2100.5,47
2100.75,47
2101,47
2101.25,47
2101.5,47
2101.75,47.0017945683121
2102,47.2566232686094
2102.25,47.5114519689071
2102.5,47.7662806692044
2102.75,48.021109369502
2103,48.2759380697994
2103.25,48.530766770097
2103.5,48.7855954703944
2103.75,49.040424170692
2104,49.2952528709894
2104.25,49.550081571287
2104.5,49.8049102715844
2104.75,50.059738971882
2105,50.3145676721794
2105.25,50.569396372477
2105.5,50.8242250727744
2105.75,51.079053773072
2106,51.3338824733694
2106.25,51.588711173667
2106.5,51.8435398739644
2106.75,52.098368574262
2107,52.0503534755766
2107.25,52.0003870637535
2107.5,51.9504206519305
2107.75,51.9004542401075
2108,51.8504878282844
2108.25,51.8005214164614
2108.5,51.7505550046384
2108.75,51.7005885928153
2109,51.6506221809923
2109.25,51.6006557691692
2109.5,51.5506893573462
2109.75,51.5007229455232
2110,51.4507565337001
2110.25,51.4007901218771
2110.5,51.3508237100541
2110.75,51.300857298231
2111,51.250890886408
2111.25,51.2009244745849
2111.5,51.1509580627619
2111.75,51.1009916509388
2112,51.0657176673811
2112.25,51.0307411791049
2112.5,50.9957646908288
2112.75,50.9607882025527
2113,50.9258117142766
2113.25,50.8908352260004
2113.5,50.8558587377243
2113.75,50.8208822494482
2114,50.7859057611721
2114.25,50.7509292728959
2114.5,50.7159527846198
2114.75,50.6809762963437
2115,50.6459998080676
2115.25,50.6110233197914
2115.5,50.5760468315153
2115.75,50.5410703432392
2116,50.506093854963
2116.25,50.4711173666869
2116.5,50.4361408784108
2116.75,50.4011643901346
2117,50.390339400531
2117.25,50.3803461181664
2117.5,50.3703528358018
2117.75,50.3603595534372
2118,50.3503662710726
2118.25,50.340372988708
2118.5,50.3303797063434
2118.75,50.3203864239788
2119,50.3103931416141
2119.25,50.3003998592495
2119.5,50.2904065768849
2119.75,50.2804132945203
2120,50.2704200121557
2120.25,50.2604267297911
2120.5,50.2504334474265
2120.75,50.2404401650619
2121,50.2304468826973
2121.25,50.2204536003327
2121.5,50.2104603179681
2121.75,50.2004670356035
2122,50.1523687661943
2122.25,50.1024023543713
2122.5,50.0524359425482
2122.75,50.0024695307252
2123,49.9525031189021
2123.25,49.9025367070791
2123.5,49.8525702952561
2123.75,49.802603883433
2124,49.75263747161
2124.25,49.702671059787
2124.5,49.6527046479639
2124.75,49.6027382361409
2125,49.5527718243178
2125.25,49.5028054124948
2125.5,49.4528390006718
2125.75,49.4028725888487
2126,49.3529061770257
2126.25,49.3029397652027
2126.5,49.2529733533796
2126.75,49.2030069415566
2127,49.1812162118934
2127.25,49.1612296471642
2127.5,49.141243082435
2127.75,49.1212565177058
2128,49.1012699529765
2128.25,49.0812833882473
2128.5,49.0612968235181
2128.75,49.0413102587889
2129,49.0213236940597
2129.25,49.0013371293305
2129.5,48.9813505646013
2129.75,48.961363999872
2130,48.9413774351428
2130.25,48.9213908704136
2130.5,48.9014043056844
2130.75,48.8814177409552
2131,48.861431176226
2131.25,48.8414446114968
2131.5,48.8214580467675
2131.75,48.8014714820383
2132,48.6981670452
2132.25,48.5882409391894
2132.5,48.4783148331787
2132.75,48.368388727168
2133,48.2584626211573
2133.25,48.1485365151467
2133.5,48.0386104091359
2133.75,47.9286843031253
2134,47.8187581971146
2134.25,47.7088320911039
2134.5,47.5989059850932
2134.75,47.4889798790826
2135,47.3790537730718
2135.25,47.2691276670612
2135.5,47.1592015610505
2135.75,47.0492754550398
2136,46.9393493490291
2136.25,46.8294232430185
2136.5,46.7194971370077
2136.75,46.6095710309971
2137,46.5224528965804
2137.25,46.4375099964812
2137.5,46.352567096382
2137.75,46.2676241962829
2138,46.1826812961837
2138.25,46.0977383960846
2138.5,46.0127954959854
2138.75,45.9278525958862
2139,45.842909695787
2139.25,45.7579667956879
2139.5,45.6730238955887
2139.75,45.5880809954896
2140,45.5031380953904
2140.25,45.4181951952912
2140.5,45.333252295192
2140.75,45.2483093950929
2141,45.1633664949937
2141.25,45.0784235948946
2141.5,44.9934806947954
2141.75,44.9085377946963
2142,44.7606730430887
2142.25,44.6057771664374
2142.5,44.4508812897859
2142.75,44.2959854131346
2143,44.1410895364831
2143.25,43.9861936598317
2143.5,43.8312977831802
2143.75,43.6764019065289
2144,43.5215060298774
2144.25,43.366610153226
2144.5,43.2117142765746
2144.75,43.0568183999232
2145,42.9019225232717
2145.25,42.7470266466204
2145.5,42.5921307699689
2145.75,42.4372348933175
2146,42.282339016666
2146.25,42.1274431400147
2146.5,41.9725472633632
2146.75,41.8176513867118
2147,41.7424458590576
2147.25,41.6774895236876
2147.5,41.6125331883177
2147.75,41.5475768529477
2148,41.4826205175778
2148.25,41.4176641822079
2148.5,41.3527078468379
2148.75,41.2877515114679
2149,41.222795176098
2149.25,41.157838840728
2149.5,41.0928825053581
2149.75,41.0279261699881
2150,40.9629698346182
2150.25,40.8980134992483
2150.5,40.8330571638783
2150.75,40.7681008285084
2151,40.7031444931384
2151.25,40.6381881577684
2151.5,40.5732318223985
2151.75,40.5082754870285
2152,40.5174402610281
2152.25,40.5374268257573
2152.5,40.5574133904865
2152.75,40.5773999552158
2153,40.597386519945
2153.25,40.6173730846742
2153.5,40.6373596494034
2153.75,40.6573462141326
2154,40.6773327788618
2154.25,40.6973193435911
2154.5,40.7173059083203
2154.75,40.7372924730495
2155,40.7572790377787
2155.25,40.7772656025079
2155.5,40.7972521672371
2155.75,40.8172387319664
2156,40.8372252966956
2156.25,40.8572118614248
2156.5,40.877198426154
2156.75,40.8971849908832
2157,40.8871213332907
2157.25,40.8721314097438
2157.5,40.8571414861969
2157.75,40.8421515626499
2158,40.827161639103
2158.25,40.8121717155561
2158.5,40.7971817920092
2158.75,40.7821918684623
2159,40.7672019449154
2159.25,40.7522120213685
2159.5,40.7372220978216
2159.75,40.7222321742747
2160,40.7072422507277
2160.25,40.6922523271808
2160.5,40.6772624036339
2160.75,40.662272480087
2161,40.6472825565401
2161.25,40.6322926329932
2161.5,40.6173027094463
2161.75,40.6023127858994
2162,40.7732542145165
2162.25,40.978116502991
2162.5,41.1829787914654
2162.75,41.3878410799399
2163,41.5927033684143
2163.25,41.7975656568889
2163.5,42.0024279453632
2163.75,42.2072902338378
2164,42.4121525223121
2164.25,42.6170148107867
2164.5,42.8218770992611
2164.75,43.0267393877356
2165,43.23160167621
2165.25,43.4364639646845
2165.5,43.6413262531589
2165.75,43.8461885416334
2166,44.0510508301078
2166.25,44.2559131185824
2166.5,44.4607754070567
2166.75,44.6656376955313
2167,44.7790121877099
2167.25,44.8739483701738
2167.5,44.9688845526375
2167.75,45.0638207351013
2168,45.158756917565
2168.25,45.2536931000288
2168.5,45.3486292824926
2168.75,45.4435654649564
2169,45.5385016474201
2169.25,45.6334378298839
2169.5,45.7283740123477
2169.75,45.8233101948115
2170,45.9182463772752
2170.25,46.013182559739
2170.5,46.1081187422028
2170.75,46.2030549246666
2171,46.2979911071303
2171.25,46.3929272895941
2171.5,46.4878634720578
2171.75,46.5827996545217
2172,46.563177761428
2172.25,46.5182079907872
2172.5,46.4732382201465
2172.75,46.4282684495058
2173,46.383298678865
2173.25,46.3383289082243
2173.5,46.2933591375836
2173.75,46.2483893669428
2174,46.2034195963021
2174.25,46.1584498256613
2174.5,46.1134800550206
2174.75,46.0685102843799
2175,46.0235405137392
2175.25,45.9785707430984
2175.5,45.9336009724577
2175.75,45.8886312018169
2176,45.8436614311762
2176.25,45.7986916605355
2176.5,45.7537218898948
2176.75,45.708752119254
2177,45.6959758165126
2177.25,45.6909791753303
2177.5,45.685982534148
2177.75,45.6809858929657
2178,45.6759892517834
2178.25,45.6709926106011
2178.5,45.6659959694188
2178.75,45.6609993282365
2179,45.6560026870542
2179.25,45.6510060458719
2179.5,45.6460094046896
2179.75,45.6410127635072
2180,45.6360161223249
2180.25,45.6310194811426
2180.5,45.6260228399603
2180.75,45.621026198778
2181,45.6160295575957
2181.25,45.6110329164134
2181.5,45.6060362752311
2181.75,45.6010396340488
2182,45.6
2182.25,45.6
2182.5,45.6
2182.75,45.6
2183,45.6
2183.25,45.6
2183.5,45.6
2183.75,45.6
2184,45.6
2184.25,45.6
2184.5,45.6
2184.75,45.6
2185,45.6
2185.25,45.6
2185.5,45.6
2185.75,45.6
2186,45.6
2186.25,45.6
2186.5,45.6
2186.75,45.6
2187,45.5572118614248
2187.25,45.5022488084194
2187.5,45.4472857554141
2187.75,45.3923227024088
2188,45.3373596494034
2188.25,45.2823965963981
2188.5,45.2274335433927
2188.75,45.1724704903874
2189,45.117507437382
2189.25,45.0625443843767
2189.5,45.0075813313713
2189.75,44.952618278366
2190,44.8976552253607
2190.25,44.8426921723553
2190.5,44.78772911935
2190.75,44.7327660663447
2191,44.6778030133393
2191.25,44.622839960334
2191.5,44.5678769073286
2191.75,44.5129138543233
2192,44.2782860433126
2192.25,43.9884808547392
2192.5,43.6986756661654
2192.75,43.4088704775919
2193,43.1190652890182
2193.25,42.8292601004447
2193.5,42.5394549118709
2193.75,42.2496497232974
2194,41.9598445347237
2194.25,41.6700393461502
2194.5,41.3802341575764
2194.75,41.0904289690029
2195,40.8006237804292
2195.25,40.5108185918557
2195.5,40.2210134032819
2195.75,39.9312082147084
2196,39.6414030261347
2196.25,39.3515978375612
2196.5,39.0617926489874
2196.75,38.7719874604139
2197,38.6136240043504
2197.25,38.4987012571575
2197.5,38.3837785099644
2197.75,38.2688557627715
2198,38.1539330155785
2198.25,38.0390102683855
2198.5,37.9240875211925
2198.75,37.8091647739996
2199,37.6942420268065
2199.25,37.5793192796136
2199.5,37.4643965324205
2199.75,37.3494737852276
2200,37.2345510380346
2200.25,37.1196282908416
2200.5,37.0047055436486
2200.75,36.8897827964556
2201,36.7748600492626
2201.25,36.6599373020697
2201.5,36.5450145548766
2201.75,36.4300918076837
2202,36.4663894309204
2202.25,36.5563289722018
2202.5,36.6462685134833
2202.75,36.7362080547647
2203,36.8261475960462
2203.25,36.9160871373277
2203.5,37.0060266786092
2203.75,37.0959662198906
2204,37.1859057611721
2204.25,37.2758453024535
2204.5,37.3657848437351
2204.75,37.4557243850165
2205,37.545663926298
2205.25,37.6356034675794
2205.5,37.7255430088609
2205.75,37.8154825501424
2206,37.9054220914239
2206.25,37.9953616327053
2206.5,38.0853011739868
2206.75,38.1752407152682
2207,38.2144845014555
2207.25,38.2344710661847
2207.5,38.2544576309139
2207.75,38.2744441956431
2208,38.2944307603724
2208.25,38.3144173251016
2208.5,38.3344038898308
2208.75,38.35439045456
2209,38.3743770192892
2209.25,38.3943635840184
2209.5,38.4143501487477
2209.75,38.4343367134769
2210,38.4543232782061
2210.25,38.4743098429353
2210.5,38.4942964076645
2210.75,38.5142829723937
2211,38.5342695371229
2211.25,38.5542561018522
2211.5,38.5742426665814
2211.75,38.5942292313106
2212,38.6568631841592
2212.25,38.7368094430761
2212.5,38.816755701993
2212.75,38.8967019609098
2213,38.9766482198267
2213.25,39.0565944787435
2213.5,39.1365407376604
2213.75,39.2164869965772
2214,39.2964332554941
2214.25,39.3763795144109
2214.5,39.4563257733278
2214.75,39.5362720322447
2215,39.6162182911616
2215.25,39.6961645500784
2215.5,39.7761108089953
2215.75,39.8560570679121
2216,39.9360033268289
2216.25,40.0159495857458
2216.5,40.0958958446627
2216.75,40.1758421035796
2217,40.2453280445283
2217.25,40.3102843798983
2217.5,40.3752407152682
2217.75,40.4401970506382
2218,40.5051533860081
2218.25,40.5701097213781
2218.5,40.635066056748
2218.75,40.700022392118
2219,40.7649787274879
2219.25,40.8299350628579
2219.5,40.8948913982278
2219.75,40.9598477335978
2220,41.0248040689677
2220.25,41.0897604043377
2220.5,41.1547167397076
2220.75,41.2196730750776
2221,41.2846294104475
2221.25,41.3495857458175
2221.5,41.4145420811874
2221.75,41.4794984165574
2222,41.4863216147916
2222.25,41.4663350500624
2222.5,41.4463484853332
2222.75,41.4263619206039
2223,41.4063753558747
2223.25,41.3863887911455
2223.5,41.3664022264163
2223.75,41.3464156616871
2224,41.3264290969579
2224.25,41.3064425322287
2224.5,41.2864559674994
2224.75,41.2664694027702
2225,41.246482838041
2225.25,41.2264962733118
2225.5,41.2065097085826
2225.75,41.1865231438534
2226,41.1665365791241
2226.25,41.1465500143949
2226.5,41.1265634496657
2226.75,41.1065768849365
2227,40.9759604619174
2227.25,40.7910847381721
2227.5,40.6062090144269
2227.75,40.4213332906816
2228,40.2364575669364
2228.25,40.0515818431911
2228.5,39.866706119446
2228.75,39.6818303957006
2229,39.4969546719555
2229.25,39.3120789482101
2229.5,39.127203224465
2229.75,38.9423275007197
2230,38.7574517769745
2230.25,38.5725760532292
2230.5,38.387700329484
2230.75,38.2028246057387
2231,38.0179488819935
2231.25,37.8330731582482
2231.5,37.648197434503
2231.75,37.4633217107577
2232,37.3408656153034
2232.25,37.2509260740219
2232.5,37.1609865327405
2232.75,37.071046991459
2233,36.9811074501775
2233.25,36.891167908896
2233.5,36.8012283676146
2233.75,36.7112888263331
2234,36.6213492850517
2234.25,36.5314097437701
2234.5,36.4414702024887
2234.75,36.3515306612072
2235,36.2615911199258
2235.25,36.1716515786443
2235.5,36.0817120373628
2235.75,35.9917724960813
2236,35.9018329547999
2236.25,35.8118934135184
2236.5,35.721953872237
2236.75,35.6320143309555
2237,35.5646012603563
2237.25,35.509638207351
2237.5,35.4546751543457
2237.75,35.3997121013403
2238,35.344749048335
2238.25,35.2897859953296
2238.5,35.2348229423243
2238.75,35.1798598893189
2239,35.1248968363136
2239.25,35.0699337833082
2239.5,35.0149707303029
2239.75,34.9600076772976
2240,34.9050446242922
2240.25,34.8500815712869
2240.5,34.7951185182816
2240.75,34.7401554652762
2241,34.6851924122709
2241.25,34.6302293592655
2241.5,34.5752663062602
2241.75,34.5203032532548
2242,34.4653402002495
2242.25,34.4103771472441
2242.5,34.3554140942388
2242.75,34.3004510412335
2243,34.2454879882281
2243.25,34.1905249352228
2243.5,34.1355618822174
2243.75,34.0805988292121
2244,34.0256357762068
2244.25,33.9706727232014
2244.5,33.9157096701961
2244.75,33.8607466171907
2245,33.8057835641854
2245.25,33.75082051118
2245.5,33.6958574581747
2245.75,33.6408944051693
2246,33.585931352164
2246.25,33.5309682991587
2246.5,33.4760052461533
2246.75,33.421042193148
2247,33.3383257093503
2247.25,33.2383928857042
2247.5,33.1384600620581
2247.75,33.0385272384121
2248,32.938594414766
2248.25,32.8386615911199
2248.5,32.7387287674738
2248.75,32.6387959438278
2249,32.5388631201817
2249.25,32.4389302965356
2249.5,32.3389974728895
2249.75,32.2390646492435
2250,32.1391318255974
2250.25,32.0391990019513
2250.5,31.9392661783052
2250.75,31.8393333546592
2251,31.7394005310131
2251.25,31.639467707367
2251.5,31.5395348837209
2251.75,31.4396020600749
2252,31.4512811490356
2252.25,31.5362240491347
2252.5,31.6211669492339
2252.75,31.706109849333
2253,31.7910527494322
2253.25,31.8759956495314
2253.5,31.9609385496306
2253.75,32.0458814497297
2254,32.1308243498289
2254.25,32.215767249928
2254.5,32.3007101500272
2254.75,32.3856530501264
2255,32.4705959502256
2255.25,32.5555388503247
2255.5,32.6404817504239
2255.75,32.725424650523
2256,32.8103675506222
2256.25,32.8953104507213
2256.5,32.9802533508205
2256.75,33.0651962509197
2257,33.1235948945971
2257.25,33.1635680240555
2257.5,33.203541153514
2257.75,33.2435142829724
2258,33.2834874124308
2258.25,33.3234605418893
2258.5,33.3634336713477
2258.75,33.4034068008061
2259,33.4433799302646
2259.25,33.483353059723
2259.5,33.5233261891814
2259.75,33.5632993186398
2260,33.6032724480983
2260.25,33.6432455775567
2260.5,33.6832187070152
2260.75,33.7231918364736
2261,33.763164965932
2261.25,33.8031380953904
2261.5,33.8431112248489
2261.75,33.8830843543073
2262,33.9
2262.25,33.9
2262.5,33.9
2262.75,33.9
2263,33.9
2263.25,33.9
2263.5,33.9
2263.75,33.9
2264,33.9
2264.25,33.9
2264.5,33.9
2264.75,33.9
2265,33.9
2265.25,33.9
2265.5,33.9
2265.75,33.9
2266,33.9
2266.25,33.9
2266.5,33.9
2266.75,33.9
2267,33.9
2267.25,33.9
2267.5,33.9
2267.75,33.9
2268,33.9
2268.25,33.9
2268.5,33.9
2268.75,33.9
2269,33.9
2269.25,33.9
2269.5,33.9
2269.75,33.9
2270,33.9
2270.25,33.9
2270.5,33.9
2270.75,33.9
2271,33.9
2271.25,33.9
2271.5,33.9
2271.75,33.9
2272,33.9302261603916
2272.25,33.9851892133969
2272.5,34.0401522664023
2272.75,34.0951153194076
2273,34.1500783724129
2273.25,34.2050414254183
2273.5,34.2600044784236
2273.75,34.3149675314289
2274,34.3699305844343
2274.25,34.4248936374396
2274.5,34.479856690445
2274.75,34.5348197434503
2275,34.5897827964557
2275.25,34.644745849461
2275.5,34.6997089024664
2275.75,34.7546719554717
2276,34.8096350084771
2276.25,34.8645980614824
2276.5,34.9195611144877
2276.75,34.9745241674931
2277,34.9892773743642
2277.25,34.969290809635
2277.5,34.9493042449058
2277.75,34.9293176801766
2278,34.9093311154474
2278.25,34.8893445507181
2278.5,34.8693579859889
2278.75,34.8493714212597
2279,34.8293848565305
2279.25,34.8093982918013
2279.5,34.7894117270721
2279.75,34.7694251623428
2280,34.7494385976136
2280.25,34.7294520328844
2280.5,34.7094654681552
2280.75,34.689478903426
2281,34.6694923386968
2281.25,34.6495057739676
2281.5,34.6295192092384
2281.75,34.6095326445091
2282,34.6313617606602
2282.25,34.6913214548479
2282.5,34.7512811490355
2282.75,34.8112408432232
2283,34.8712005374108
2283.25,34.9311602315985
2283.5,34.9911199257861
2283.75,35.0510796199738
2284,35.1110393141614
2284.25,35.1709990083491
2284.5,35.2309587025367
2284.75,35.2909183967244
2285,35.350878090912
2285.25,35.4108377850997
2285.5,35.4707974792873
2285.75,35.530757173475
2286,35.5907168676626
2286.25,35.6506765618502
2286.5,35.7106362560379
2286.75,35.7705959502255
2287,35.7388887111737
2287.25,35.6189693227983
2287.5,35.4990499344231
2287.75,35.3791305460477
2288,35.2592111576725
2288.25,35.1392917692972
2288.5,35.0193723809219
2288.75,34.8994529925466
2289,34.7795336041713
2289.25,34.659614215796
2289.5,34.5396948274208
2289.75,34.4197754390454
2290,34.2998560506702
2290.25,34.1799366622948
2290.5,34.0600172739196
2290.75,33.9400978855442
2291,33.820178497169
2291.25,33.7002591087937
2291.5,33.5803397204184
2291.75,33.4604203320431
2292,33.3752087265283
2292.25,33.3252423147052
2292.5,33.2752759028822
2292.75,33.2253094910591
2293,33.1753430792361
2293.25,33.125376667413
2293.5,33.07541025559
2293.75,33.025443843767
2294,32.975477431944
2294.25,32.9255110201209
2294.5,32.8755446082979
2294.75,32.8255781964748
2295,32.7756117846518
2295.25,32.7256453728287
2295.5,32.6756789610057
2295.75,32.6257125491827
2296,32.5757461373596
2296.25,32.5257797255366
2296.5,32.4758133137136
2296.75,32.4258469018905
2297,32.313169764243
2297.25,32.13329068168
2297.5,31.9534115991171
2297.75,31.7735325165541
2298,31.5936534339912
2298.25,31.4137743514282
2298.5,31.2338952688653
2298.75,31.0540161863023
2299,30.8741371037395
2299.25,30.6942580211764
2299.5,30.5143789386136
2299.75,30.3344998560506
2300,30.1546207734877
2300.25,29.9747416909247
2300.5,29.7948626083618
2300.75,29.6149835257988
2301,29.435104443236
2301.25,29.2552253606729
2301.5,29.0753462781101
2301.75,28.8954671955471
2302,28.7577940564921
2302.25,28.6678545152106
2302.5,28.5779149739292
2302.75,28.4879754326477
2303,28.3980358913662
2303.25,28.3080963500847
2303.5,28.2181568088033
2303.75,28.1282172675218
2304,28.0382777262403
2304.25,27.9483381849588
2304.5,27.8583986436774
2304.75,27.7684591023959
2305,27.6785195611145
2305.25,27.588580019833
2305.5,27.4986404785515
2305.75,27.40870093727
2306,27.3187613959886
2306.25,27.2288218547071
2306.5,27.1388823134257
2306.75,27.0489427721441
2307,26.9977224017146
2307.25,26.9927257605323
2307.5,26.98772911935
2307.75,26.9827324781677
2308,26.9777358369854
2308.25,26.9727391958031
2308.5,26.9677425546208
2308.75,26.9627459134385
2309,26.9577492722562
2309.25,26.9527526310739
2309.5,26.9477559898916
2309.75,26.9427593487092
2310,26.937762707527
2310.25,26.9327660663446
2310.5,26.9277694251623
2310.75,26.92277278398
2311,26.9177761427977
2311.25,26.9127795016154
2311.5,26.9077828604331
2311.75,26.9027862192508
2312,26.9530501263556
2312.25,27.0729695147308
2312.5,27.1928889031061
2312.75,27.3128082914814
2313,27.4327276798567
2313.25,27.552647068232
2313.5,27.6725664566073
2313.75,27.7924858449825
2314,27.9124052333579
2314.25,28.0323246217331
2314.5,28.1522440101085
2314.75,28.2721633984837
2315,28.3920827868591
2315.25,28.5120021752343
2315.5,28.6319215636096
2315.75,28.7518409519849
2316,28.8717603403602
2316.25,28.9916797287355
2316.5,29.1115991171108
2316.75,29.2315185054861
2317,29.2785675442244
2317.25,29.2286011324014
2317.5,29.1786347205783
2317.75,29.1286683087553
2318,29.0787018969323
2318.25,29.0287354851092
2318.5,28.9787690732862
2318.75,28.9288026614632
2319,28.8788362496401
2319.25,28.8288698378171
2319.5,28.778903425994
2319.75,28.728937014171
2320,28.678970602348
2320.25,28.6290041905249
2320.5,28.5790377787019
2320.75,28.5290713668789
2321,28.4791049550558
2321.25,28.4291385432328
2321.5,28.3791721314097
2321.75,28.3292057195867
2322,28.3290649691309
2322.25,28.3990179456831
2322.5,28.4689709222354
2322.75,28.5389238987876
2323,28.6088768753399
2323.25,28.6788298518921
2323.5,28.7487828284444
2323.75,28.8187358049966
2324,28.8886887815489
2324.25,28.9586417581011
2324.5,29.0285947346534
2324.75,29.0985477112057
2325,29.1685006877579
2325.25,29.2384536643102
2325.5,29.3084066408625
2325.75,29.3783596174147
2326,29.448312593967
2326.25,29.5182655705192
2326.5,29.5882185470715
2326.75,29.6581715236237
2327,29.6839288570423
2327.25,29.6439557275839
2327.5,29.6039825981254
2327.75,29.564009468667
2328,29.5240363392086
2328.25,29.4840632097502
2328.5,29.4440900802917
2328.75,29.4041169508333
2329,29.3641438213749
2329.25,29.3241706919164
2329.5,29.284197562458
2329.75,29.2442244329996
2330,29.2042513035411
2330.25,29.1642781740827
2330.5,29.1243050446243
2330.75,29.0843319151659
2331,29.0443587857074
2331.25,29.004385656249
2331.5,28.9644125267905
2331.75,28.9244393973321
2332,28.9291257477368
2332.25,29.0040753654714
2332.5,29.079024983206
2332.75,29.1539746009405
2333,29.2289242186751
2333.25,29.3038738364096
2333.5,29.3788234541442
2333.75,29.4537730718787
2334,29.5287226896133
2334.25,29.6036723073478
2334.5,29.6786219250824
2334.75,29.7535715428169
2335,29.8285211605515
2335.25,29.9034707782861
2335.5,29.9784203960206
2335.75,30.0533700137552
2336,30.1283196314898
2336.25,30.2032692492243
2336.5,30.2782188669589
2336.75,30.3531684846934
2337,30.4187454016187
2337.25,30.4687118134417
2337.5,30.5186782252647
2337.75,30.5686446370878
2338,30.6186110489108
2338.25,30.6685774607338
2338.5,30.7185438725569
2338.75,30.7685102843799
2339,30.818476696203
2339.25,30.868443108026
2339.5,30.918409519849
2339.75,30.9683759316721
2340,31.0183423434951
2340.25,31.0683087553181
2340.5,31.1182751671412
2340.75,31.1682415789642
2341,31.2182079907873
2341.25,31.2681744026103
2341.5,31.3181408144334
2341.75,31.3681072262564
2342,31.367467451457
2342.25,31.2775279101756
2342.5,31.1875883688941
2342.75,31.0976488276127
2343,31.0077092863311
2343.25,30.9177697450497
2343.5,30.8278302037682
2343.75,30.7378906624868
2344,30.6479511212054
2344.25,30.5580115799238
2344.5,30.4680720386424
2344.75,30.3781324973609
2345,30.2881929560795
2345.25,30.198253414798
2345.5,30.1083138735165
2345.75,30.018374332235
2346,29.9284347909536
2346.25,29.8384952496721
2346.5,29.7485557083907
2346.75,29.6586161671091
2347,29.6
2347.25,29.6
2347.5,29.6
2347.75,29.6
2348,29.6
2348.25,29.6
2348.5,29.6
2348.75,29.6
2349,29.6
2349.25,29.6
2349.5,29.6
2349.75,29.6
2350,29.6
2350.25,29.6
2350.5,29.6
2350.75,29.6
2351,29.6
2351.25,29.6
2351.5,29.6
2351.75,29.6
2352,29.6217491443012
2352.25,29.6867054796712
2352.5,29.7516618150411
2352.75,29.8166181504111
2353,29.881574485781
2353.25,29.946530821151
2353.5,30.0114871565209
2353.75,30.0764434918909
2354,30.1413998272608
2354.25,30.2063561626308
2354.5,30.2713124980007
2354.75,30.3362688333707
2355,30.4012251687406
2355.25,30.4661815041106
2355.5,30.5311378394805
2355.75,30.5960941748505
2356,30.6610505102204
2356.25,30.7260068455904
2356.5,30.7909631809603
2356.75,30.8559195163303
2357,30.9
2357.25,30.9
2357.5,30.9
2357.75,30.9
2358,30.9
2358.25,30.9
2358.5,30.9
2358.75,30.9
2359,30.9
2359.25,30.9
2359.5,30.9
2359.75,30.9
2360,30.9
2360.25,30.9
2360.5,30.9
2360.75,30.9
2361,30.9
2361.25,30.9
2361.5,30.9
2361.75,30.9
2362,30.9046159751767
2362.25,30.9196058987237
2362.5,30.9345958222706
2362.75,30.9495857458175
2363,30.9645756693644
2363.25,30.9795655929113
2363.5,30.9945555164582
2363.75,31.0095454400051
2364,31.024535363552
2364.25,31.039525287099
2364.5,31.0545152106459
2364.75,31.0695051341928
2365,31.0844950577397
2365.25,31.0994849812866
2365.5,31.1144749048335
2365.75,31.1294648283804
2366,31.1444547519273
2366.25,31.1594446754742
2366.5,31.1744345990211
2366.75,31.1894245225681
2367,31.2279581587281
2367.25,31.322894341192
2367.5,31.4178305236557
2367.75,31.5127667061195
2368,31.6077028885832
2368.25,31.7026390710471
2368.5,31.7975752535108
2368.75,31.8925114359746
2369,31.9874476184383
2369.25,32.0823838009021
2369.5,32.1773199833659
2369.75,32.2722561658297
2370,32.3671923482934
2370.25,32.4621285307572
2370.5,32.557064713221
2370.75,32.6520008956848
2371,32.7469370781485
2371.25,32.8418732606123
2371.5,32.9368094430761
2371.75,33.0317456255399
2372,33.0957870829468
2372.25,33.0807971593999
2372.5,33.065807235853
2372.75,33.0508173123061
2373,33.0358273887592
2373.25,33.0208374652122
2373.5,33.0058475416653
2373.75,32.9908576181184
2374,32.9758676945715
2374.25,32.9608777710246
2374.5,32.9458878474777
2374.75,32.9308979239308
2375,32.9159080003839
2375.25,32.9009180768369
2375.5,32.88592815329
2375.75,32.8709382297431
2376,32.8559483061962
2376.25,32.8409583826493
2376.5,32.8259684591024
2376.75,32.8109785355555
2377,32.8080227759829
2377.25,32.8380026230767
2377.5,32.8679824701705
2377.75,32.8979623172643
2378,32.9279421643582
2378.25,32.957922011452
2378.5,32.9879018585458
2378.75,33.0178817056396
2379,33.0478615527334
2379.25,33.0778413998273
2379.5,33.1078212469211
2379.75,33.1378010940149
2380,33.1677809411087
2380.25,33.1977607882026
2380.5,33.2277406352964
2380.75,33.2577204823902
2381,33.287700329484
2381.25,33.3176801765778
2381.5,33.3476600236717
2381.75,33.3776398707655
2382,33.422859153578
2382.25,33.5127986948594
2382.5,33.6027382361409
2382.75,33.6926777774223
2383,33.7826173187038
2383.25,33.8725568599853
2383.5,33.9624964012668
2383.75,34.0524359425482
2384,34.1423754838297
2384.25,34.2323150251112
2384.5,34.3222545663927
2384.75,34.4121941076741
2385,34.5021336489556
2385.25,34.592073190237
2385.5,34.6820127315185
2385.75,34.7719522728
2386,34.8618918140815
2386.25,34.9518313553629
2386.5,35.0417708966444
2386.75,35.1317104379259
2387,35.2
2387.25,35.2
2387.5,35.2
2387.75,35.2
2388,35.2
2388.25,35.2
2388.5,35.2
2388.75,35.2
2389,35.2
2389.25,35.2
2389.5,35.2
2389.75,35.2
2390,35.2
2390.25,35.2
2390.5,35.2
2390.75,35.2
2391,35.2
2391.25,35.2
2391.5,35.2
2391.75,35.2
2392,35.1909151978503
2392.25,35.1509420683919
2392.5,35.1109689389335
2392.75,35.0709958094751
2393,35.0310226800166
2393.25,34.9910495505582
2393.5,34.9510764210998
2393.75,34.9111032916413
2394,34.8711301621829
2394.25,34.8311570327245
2394.5,34.791183903266
2394.75,34.7512107738076
2395,34.7112376443492
2395.25,34.6712645148908
2395.5,34.6312913854323
2395.75,34.5913182559739
2396,34.5513451265154
2396.25,34.511371997057
2396.5,34.4713988675986
2396.75,34.4314257381402
2397,34.3935894565113
2397.25,34.3636096094175
2397.5,34.3336297623236
2397.75,34.3036499152298
2398,34.273670068136
2398.25,34.2436902210422
2398.5,34.2137103739484
2398.75,34.1837305268545
2399,34.1537506797607
2399.25,34.1237708326669
2399.5,34.0937909855731
2399.75,34.0638111384792
2400,34.0338312913854
2400.25,34.0038514442916
2400.5,33.9738715971978
2400.75,33.943891750104
2401,33.9139119030101
2401.25,33.8839320559163
2401.5,33.8539522088225
2401.75,33.8239723617287
2402,33.8050062378043
2402.25,33.8299894437158
2402.5,33.8549726496273
2402.75,33.8799558555389
2403,33.9049390614504
2403.25,33.9299222673619
2403.5,33.9549054732734
2403.75,33.9798886791849
2404,34.0048718850965
2404.25,34.029855091008
2404.5,34.0548382969195
2404.75,34.079821502831
2405,34.1048047087425
2405.25,34.129787914654
2405.5,34.1547711205656
2405.75,34.1797543264771
2406,34.2047375323886
2406.25,34.2297207383001
2406.5,34.2547039442117
2406.75,34.2796871501232
2407,34.2719778637918
2407.25,34.1220786283228
2407.5,33.9721793928536
2407.75,33.8222801573846
2408,33.6723809219155
2408.25,33.5224816864463
2408.5,33.3725824509773
2408.75,33.2226832155081
2409,33.072783980039
2409.25,32.9228847445699
2409.5,32.7729855091008
2409.75,32.6230862736316
2410,32.4731870381626
2410.25,32.3232878026934
2410.5,32.1733885672244
2410.75,32.0234893317552
2411,31.8735900962861
2411.25,31.7236908608169
2411.5,31.5737916253479
2411.75,31.4238923898787
2412,31.3060682639711
2412.25,31.3410447522472
2412.5,31.3760212405233
2412.75,31.4109977287995
2413,31.4459742170756
2413.25,31.4809507053517
2413.5,31.5159271936278
2413.75,31.550903681904
2414,31.5858801701801
2414.25,31.6208566584562
2414.5,31.6558331467323
2414.75,31.6908096350085
2415,31.7257861232846
2415.25,31.7607626115607
2415.5,31.7957390998369
2415.75,31.830715588113
2416,31.8656920763891
2416.25,31.9006685646653
2416.5,31.9356450529414
2416.75,31.9706215412175
2417,31.9992002815009
2417.25,31.9942036403186
2417.5,31.9892069991363
2417.75,31.984210357954
2418,31.9792137167717
2418.25,31.9742170755894
2418.5,31.9692204344071
2418.75,31.9642237932248
2419,31.9592271520425
2419.25,31.9542305108602
2419.5,31.9492338696779
2419.75,31.9442372284956
2420,31.9392405873133
2420.25,31.934243946131
2420.5,31.9292473049487
2420.75,31.9242506637664
2421,31.919254022584
2421.25,31.9142573814017
2421.5,31.9092607402194
2421.75,31.9042640990371
2422,31.8963372892742
2422.25,31.8713540833626
2422.5,31.8463708774511
2422.75,31.8213876715396
2423,31.7964044656281
2423.25,31.7714212597166
2423.5,31.7464380538051
2423.75,31.7214548478935
2424,31.696471641982
2424.25,31.6714884360705
2424.5,31.646505230159
2424.75,31.6215220242475
2425,31.5965388183359
2425.25,31.5715556124244
2425.5,31.5465724065129
2425.75,31.5215892006014
2426,31.4966059946899
2426.25,31.4716227887783
2426.5,31.4466395828668
2426.75,31.4216563769553
2427,31.4019960973737
2427.25,31.4169860209206
2427.5,31.4319759444675
2427.75,31.4469658680145
2428,31.4619557915614
2428.25,31.4769457151083
2428.5,31.4919356386552
2428.75,31.5069255622021
2429,31.521915485749
2429.25,31.5369054092959
2429.5,31.5518953328428
2429.75,31.5668852563898
2430,31.5818751799367
2430.25,31.5968651034836
2430.5,31.6118550270305
2430.75,31.6268449505774
2431,31.6418348741243
2431.25,31.6568247976712
2431.5,31.6718147212181
2431.75,31.6868046447651
2432,31.6964108633761
2432.25,31.6664310162823
2432.5,31.6364511691884
2432.75,31.6064713220946
2433,31.5764914750008
2433.25,31.546511627907
2433.5,31.5165317808131
2433.75,31.4865519337193
2434,31.4565720866255
2434.25,31.4265922395317
2434.5,31.3966123924379
2434.75,31.366632545344
2435,31.3366526982502
2435.25,31.3066728511564
2435.5,31.2766930040626
2435.75,31.2467131569687
2436,31.2167333098749
2436.25,31.1867534627811
2436.5,31.1567736156873
2436.75,31.1267937685934
2437,31.0941588560826
2437.25,31.0391958030773
2437.5,30.984232750072
2437.75,30.9292696970666
2438,30.8743066440613
2438.25,30.8193435910559
2438.5,30.7643805380506
2438.75,30.7094174850452
2439,30.6544544320399
2439.25,30.5994913790345
2439.5,30.5445283260292
2439.75,30.4895652730239
2440,30.4346022200185
2440.25,30.3796391670132
2440.5,30.3246761140079
2440.75,30.2697130610025
2441,30.2147500079972
2441.25,30.1597869549919
2441.5,30.1048239019865
2441.75,30.0498608489812
2442,29.9990723265411
2442.25,29.9890790441764
2442.5,29.9790857618118
2442.75,29.9690924794472
2443,29.9590991970826
2443.25,29.949105914718
2443.5,29.9391126323534
2443.75,29.9291193499888
2444,29.9191260676242
2444.25,29.9091327852596
2444.5,29.899139502895
2444.75,29.8891462205304
2445,29.8791529381658
2445.25,29.8691596558012
2445.5,29.8591663734365
2445.75,29.8491730910719
2446,29.8391798087073
2446.25,29.8291865263427
2446.5,29.8191932439781
2446.75,29.8091999616135
2447,29.8015866415022
2447.25,29.8215732062314
2447.5,29.8415597709606
2447.75,29.8615463356898
2448,29.8815329004191
2448.25,29.9015194651483
2448.5,29.9215060298775
2448.75,29.9414925946067
2449,29.9614791593359
2449.25,29.9814657240651
2449.5,30.0014522887944
2449.75,30.0214388535236
2450,30.0414254182528
2450.25,30.061411982982
2450.5,30.0813985477112
2450.75,30.1013851124404
2451,30.1213716771696
2451.25,30.1413582418989
2451.5,30.1613448066281
2451.75,30.1813313713573
2452,30.1976936118486
2452.25,30.1627171235725
2452.5,30.1277406352964
2452.75,30.0927641470202
2453,30.0577876587441
2453.25,30.022811170468
2453.5,29.9878346821918
2453.75,29.9528581939157
2454,29.9178817056396
2454.25,29.8829052173635
2454.5,29.8479287290873
2454.75,29.8129522408112
2455,29.7779757525351
2455.25,29.742999264259
2455.5,29.7080227759828
2455.75,29.6730462877067
2456,29.6380697994306
2456.25,29.6030933111545
2456.5,29.5681168228783
2456.75,29.5331403346022
2457,29.4979015386584
2457.25,29.4579284092
2457.5,29.4179552797415
2457.75,29.3779821502831
2458,29.3380090208246
2458.25,29.2980358913662
2458.5,29.2580627619078
2458.75,29.2180896324494
2459,29.1781165029909
2459.25,29.1381433735325
2459.5,29.0981702440741
2459.75,29.0581971146156
2460,29.0182239851572
2460.25,28.9782508556988
2460.5,28.9382777262403
2460.75,28.8983045967819
2461,28.8583314673235
2461.25,28.8183583378651
2461.5,28.7783852084066
2461.75,28.7384120789482
2462,28.7039026262756
2462.25,28.8038354499216
2462.5,28.9037682735678
2462.75,29.0037010972138
2463,29.1036339208599
2463.25,29.203566744506
2463.5,29.3034995681521
2463.75,29.4034323917981
2464,29.5033652154442
2464.25,29.6032980390903
2464.5,29.7032308627364
2464.75,29.8031636863824
2465,29.9030965100285
2465.25,30.0030293336746
2465.5,30.1029621573207
2465.75,30.2028949809667
2466,30.3028278046128
2466.25,30.4027606282589
2466.5,30.502693451905
2466.75,30.602626275551
2467,30.7003838648796
2467.25,30.7153737884265
2467.5,30.7303637119734
2467.75,30.7453536355203
2468,30.7603435590672
2468.25,30.7753334826141
2468.5,30.790323406161
2468.75,30.8053133297079
2469,30.8203032532549
2469.25,30.8352931768018
2469.5,30.8502831003487
2469.75,30.8652730238956
2470,30.8802629474425
2470.25,30.8952528709894
2470.5,30.9102427945363
2470.75,30.9252327180832
2471,30.9402226416302
2471.25,30.9552125651771
2471.5,30.970202488724
2471.75,30.9851924122709
2472,30.9989059850933
2472.25,30.9089664438118
2472.5,30.8190269025303
2472.75,30.7290873612488
2473,30.6391478199674
2473.25,30.5492082786859
2473.5,30.4592687374044
2473.75,30.3693291961229
2474,30.2793896548415
2474.25,30.18945011356
2474.5,30.0995105722786
2474.75,30.0095710309971
2475,29.9196314897156
2475.25,29.8296919484341
2475.5,29.7397524071527
2475.75,29.6498128658712
2476,29.5598733245898
2476.25,29.4699337833082
2476.5,29.3799942420268
2476.75,29.2900547007453
2477,29.2001151594639
2477.25,29.2199609737373
2477.5,29.2399475384665
2477.75,29.2599341031957
2478,29.2799206679249
2478.25,29.2999072326541
2478.5,29.3198937973833
2478.75,29.3398803621125
2479,29.3598669268418
2479.25,29.379853491571
2479.5,29.3998400563002
2479.75,29.4198266210294
2480,29.4398131857586
2480.25,29.4597997504878
2480.5,29.479786315217
2480.75,29.4997728799463
2481,29.5197594446755
2481.25,29.5397460094047
2481.5,29.5597325741339
2481.75,29.5797191388631
2482,29.5997057035923
2482.25,29.5901538658392
2482.5,29.5801605834746
2482.75,29.57016730111
2483,29.5601740187454
2483.25,29.5501807363808
2483.5,29.5401874540162
2483.75,29.5301941716516
2484,29.520200889287
2484.25,29.5102076069224
2484.5,29.5002143245578
2484.75,29.4902210421931
2485,29.4802277598285
2485.25,29.4702344774639
2485.5,29.4602411950993
2485.75,29.4502479127347
2486,29.4402546303701
2486.25,29.4302613480055
2486.5,29.4202680656409
2486.75,29.4102747832763
2487,29.4002815009117
2487.25,29.3611528741883
2487.5,29.3211797447299
2487.75,29.2812066152714
2488,29.241233485813
2488.25,29.2012603563545
2488.5,29.1612872268961
2488.75,29.1213140974377
2489,29.0813409679793
2489.25,29.0413678385208
2489.5,29.0013947090624
2489.75,28.961421579604
2490,28.9214484501455
2490.25,28.8814753206871
2490.5,28.8415021912287
2490.75,28.8015290617702
2491,28.7615559323118
2491.25,28.7215828028534
2491.5,28.681609673395
2491.75,28.6416365439365
2492,28.6016634144781
2492.25,28.5664789993922
2492.5,28.5315025111161
2492.75,28.4965260228399
2493,28.4615495345638
2493.25,28.4265730462877
2493.5,28.3915965580116
2493.75,28.3566200697354
2494,28.3216435814593
2494.25,28.2866670931832
2494.5,28.2516906049071
2494.75,28.2167141166309
2495,28.1817376283548
2495.25,28.1467611400787
2495.5,28.1117846518026
2495.75,28.0768081635264
2496,28.0418316752503
2496.25,28.0068551869742
2496.5,27.971878698698
2496.75,27.9369022104219
2497,27.9019257221458
2497.25,27.9755446082979
2497.5,28.0554908672148
2497.75,28.1354371261317
2498,28.2153833850485
2498.25,28.2953296439654
2498.5,28.3752759028822
2498.75,28.4552221617991
2499,28.5351684207159
2499.25,28.6151146796328
2499.5,28.6950609385496
2499.75,28.7750071974665
2500,28.8549534563834
2500.25,28.9348997153003
2500.5,29.0148459742171
2500.75,29.094792233134
2501,29.1747384920508
2501.25,29.2546847509677
2501.5,29.3346310098845
2501.75,29.4145772688014
2502,29.4945235277183
2502.25,29.4906912766706
2502.5,29.480697994306
2502.75,29.4707047119414
2503,29.4607114295768
2503.25,29.4507181472122
2503.5,29.4407248648476
2503.75,29.430731582483
2504,29.4207383001184
2504.25,29.4107450177538
2504.5,29.4007517353891
2504.75,29.3907584530245
2505,29.3807651706599
2505.25,29.3707718882953
2505.5,29.3607786059307
2505.75,29.3507853235661
2506,29.3407920412015
2506.25,29.3307987588369
2506.5,29.3208054764723
2506.75,29.3108121941077
2507,29.3008189117431
2507.25,29.3137615559323
2507.5,29.3287514794792
2507.75,29.3437414030261
2508,29.3587313265731
2508.25,29.37372125012
2508.5,29.3887111736669
2508.75,29.4037010972138
2509,29.4186910207607
2509.25,29.4336809443076
2509.5,29.4486708678545
2509.75,29.4636607914014
2510,29.4786507149483
2510.25,29.4936406384953
2510.5,29.5086305620422
2510.75,29.5236204855891
2511,29.538610409136
2511.25,29.5536003326829
2511.5,29.5685902562298
2511.75,29.5835801797767
2512,29.5985701033236
2512.25,29.6090400179137
2512.5,29.6190333002783
2512.75,29.6290265826429
2513,29.6390198650075
2513.25,29.6490131473721
2513.5,29.6590064297367
2513.75,29.6689997121013
2514,29.678992994466
2514.25,29.6889862768306
2514.5,29.6989795591952
2514.75,29.7089728415598
2515,29.7189661239244
2515.25,29.728959406289
2515.5,29.7389526886536
2515.75,29.7489459710182
2516,29.7589392533828
2516.25,29.7689325357474
2516.5,29.778925818112
2516.75,29.7889191004766
2517,29.7989123828412
2517.25,29.9469434758965
2517.5,30.1118326349126
2517.75,30.2767217939285
2518,30.4416109529447
2518.25,30.6065001119606
2518.5,30.7713892709767
2518.75,30.9362784299927
2519,31.1011675890088
2519.25,31.2660567480247
2519.5,31.4309459070408
2519.75,31.5958350660568
2520,31.7607242250729
2520.25,31.9256133840888
2520.5,32.0905025431049
2520.75,32.2553917021209
2521,32.420280861137
2521.25,32.5851700201529
2521.5,32.750059179169
2521.75,32.914948338185
2522,33.0798374972011
2522.25,33.157013531237
2522.5,33.221969866607
2522.75,33.2869262019769
2523,33.3518825373469
2523.25,33.4168388727168
2523.5,33.4817952080868
2523.75,33.5467515434567
2524,33.6117078788267
2524.25,33.6766642141966
2524.5,33.7416205495666
2524.75,33.8065768849365
2525,33.8715332203065
2525.25,33.9364895556764
2525.5,34.0014458910464
2525.75,34.0664022264163
2526,34.1313585617863
2526.25,34.1963148971562
2526.5,34.2612712325262
2526.75,34.3262275678961
2527,34.3911839032661
2527.25,34.4086369597902
2527.5,34.4186302421548
2527.75,34.4286235245194
2528,34.438616806884
2528.25,34.4486100892486
2528.5,34.4586033716132
2528.75,34.4685966539778
2529,34.4785899363424
2529.25,34.488583218707
2529.5,34.4985765010716
2529.75,34.5085697834362
2530,34.5185630658008
2530.25,34.5285563481654
2530.5,34.5385496305301
2530.75,34.5485429128947
2531,34.5585361952593
2531.25,34.5685294776239
2531.5,34.5785227599885
2531.75,34.5885160423531
2532,34.5985093247177
2532.25,34.4597069831419
2532.5,34.2948178241258
2532.75,34.1299286651098
2533,33.9650395060937
2533.25,33.8001503470778
2533.5,33.6352611880617
2533.75,33.4703720290457
2534,33.3054828700296
2534.25,33.1405937110137
2534.5,32.9757045519976
2534.75,32.8108153929816
2535,32.6459262339655
2535.25,32.4810370749496
2535.5,32.3161479159335
2535.75,32.1512587569175
2536,31.9863695979016
2536.25,31.8214804388855
2536.5,31.6565912798695
2536.75,31.4917021208534
2537,31.3268129618375
2537.25,31.2414222193788
2537.5,31.1714692428265
2537.75,31.1015162662742
2538,31.031563289722
2538.25,30.9616103131697
2538.5,30.8916573366175
2538.75,30.8217043600652
2539,30.751751383513
2539.25,30.6817984069607
2539.5,30.6118454304085
2539.75,30.5418924538562
2540,30.471939477304
2540.25,30.4019865007517
2540.5,30.3320335241995
2540.75,30.2620805476472
2541,30.192127571095
2541.25,30.1221745945427
2541.5,30.0522216179905
2541.75,29.9822686414382
2542,29.912315664886
2542.25,29.7970762291673
2542.5,29.6721601996097
2542.75,29.5472441700521
2543,29.4223281404946
2543.25,29.2974121109369
2543.5,29.1724960813794
2543.75,29.0475800518217
2544,28.9226640222642
2544.25,28.7977479927065
2544.5,28.672831963149
2544.75,28.5479159335913
2545,28.4229999040338
2545.25,28.2980838744761
2545.5,28.1731678449186
2545.75,28.0482518153609
2546,27.9233357858034
2546.25,27.7984197562457
2546.5,27.6735037266882
2546.75,27.5485876971306
2547,27.423671667573
2547.25,27.4
2547.5,27.4
2547.75,27.4
2548,27.4
2548.25,27.4
2548.5,27.4
2548.75,27.4
2549,27.4
2549.25,27.4
2549.5,27.4
2549.75,27.4
2550,27.4
2550.25,27.4
2550.5,27.4
2550.75,27.4
2551,27.4
2551.25,27.4
2551.5,27.4
2551.75,27.4
2552,27.4
2552.25,27.3840696074981
2552.5,27.3640830427689
2552.75,27.3440964780397
2553,27.3241099133105
2553.25,27.3041233485813
2553.5,27.2841367838521
2553.75,27.2641502191229
2554,27.2441636543936
2554.25,27.2241770896644
2554.5,27.2041905249352
2554.75,27.184203960206
2555,27.1642173954768
2555.25,27.1442308307476
2555.5,27.1242442660184
2555.75,27.1042577012891
2556,27.0842711365599
2556.25,27.0642845718307
2556.5,27.0442980071015
2556.75,27.0243114423723
2557,27.0043248776431
2557.25,26.9138607210261
2557.5,26.8039346150155
2557.75,26.6940085090048
2558,26.5840824029941
2558.25,26.4741562969834
2558.5,26.3642301909728
2558.75,26.254304084962
2559,26.1443779789514
2559.25,26.0344518729407
2559.5,25.92452576693
2559.75,25.8145996609193
2560,25.7046735549086
2560.25,25.5947474488979
2560.5,25.4848213428873
2560.75,25.3748952368765
2561,25.2649691308659
2561.25,25.1550430248552
2561.5,25.0451169188445
2561.75,24.9351908128338
2562,24.8252647068232
2562.25,24.8038482454176
2562.5,24.8088448865999
2562.75,24.8138415277822
2563,24.8188381689645
2563.25,24.8238348101468
2563.5,24.8288314513291
2563.75,24.8338280925114
2564,24.8388247336937
2564.25,24.843821374876
2564.5,24.8488180160583
2564.75,24.8538146572407
2565,24.858811298423
2565.25,24.8638079396053
2565.5,24.8688045807876
2565.75,24.8738012219699
2566,24.8787978631522
2566.25,24.8837945043345
2566.5,24.8887911455168
2566.75,24.8937877866991
2567,24.8987844278814
2567.25,24.7903489971529
2567.5,24.6454464028661
2567.75,24.5005438085793
2568,24.3556412142925
2568.25,24.2107386200058
2568.5,24.0658360257189
2568.75,23.9209334314322
2569,23.7760308371453
2569.25,23.6311282428585
2569.5,23.4862256485717
2569.75,23.3413230542849
2570,23.196420459998
2570.25,23.0515178657113
2570.5,22.9066152714244
2570.75,22.7617126771377
2571,22.6168100828508
2571.25,22.471907488564
2571.5,22.3270048942772
2571.75,22.1821022999904
2572,22.0371997057035
2572.25,22.0965612104539
2572.5,22.2264738811939
2572.75,22.3563865519337
2573,22.4862992226737
2573.25,22.6162118934135
2573.5,22.7461245641535
2573.75,22.8760372348933
2574,23.0059499056333
2574.25,23.1358625763731
2574.5,23.2657752471131
2574.75,23.3956879178529
2575,23.5256005885929
2575.25,23.6555132593327
2575.5,23.7854259300727
2575.75,23.9153386008125
2576,24.0452512715525
2576.25,24.1751639422923
2576.5,24.3050766130323
2576.75,24.4349892837721
2577,24.5649019545121
2577.25,24.6619941780493
2577.5,24.7469370781485
2577.75,24.8318799782477
2578,24.9168228783469
2578.25,25.001765778446
2578.5,25.0867086785452
2578.75,25.1716515786443
2579,25.2565944787435
2579.25,25.3415373788427
2579.5,25.4264802789419
2579.75,25.511423179041
2580,25.5963660791402
2580.25,25.6813089792393
2580.5,25.7662518793385
2580.75,25.8511947794376
2581,25.9361376795368
2581.25,26.021080579636
2581.5,26.1060234797352
2581.75,26.1909663798343
2582,26.2759092799335
2582.25,26.3787498800422
2582.5,26.488675986053
2582.75,26.5986020920636
2583,26.7085281980743
2583.25,26.818454304085
2583.5,26.9283804100957
2583.75,27.0383065161063
2584,27.1482326221171
2584.25,27.2581587281277
2584.5,27.3680848341384
2584.75,27.4780109401491
2585,27.5879370461598
2585.25,27.6978631521704
2585.5,27.8077892581812
2585.75,27.9177153641918
2586,28.0276414702026
2586.25,28.1375675762132
2586.5,28.2474936822239
2586.75,28.3574197882346
2587,28.4673458942453
2587.25,28.514049454592
2587.5,28.5340360193212
2587.75,28.5540225840504
2588,28.5740091487796
2588.25,28.5939957135088
2588.5,28.6139822782381
2588.75,28.6339688429673
2589,28.6539554076965
2589.25,28.6739419724257
2589.5,28.6939285371549
2589.75,28.7139151018841
2590,28.7339016666134
2590.25,28.7538882313426
2590.5,28.7738747960718
2590.75,28.793861360801
2591,28.8138479255302
2591.25,28.8338344902594
2591.5,28.8538210549887
2591.75,28.8738076197179
2592,28.8937941844471
2592.25,28.8931096254119
2592.5,28.8831163430472
2592.75,28.8731230606826
2593,28.863129778318
2593.25,28.8531364959534
2593.5,28.8431432135888
2593.75,28.8331499312242
2594,28.8231566488596
2594.25,28.813163366495
2594.5,28.8031700841304
2594.75,28.7931768017658
2595,28.7831835194012
2595.25,28.7731902370366
2595.5,28.7631969546719
2595.75,28.7532036723073
2596,28.7432103899427
2596.25,28.7332171075781
2596.5,28.7232238252135
2596.75,28.7132305428489
2597,28.7032372604843
2597.25,28.7
2597.5,28.7
2597.75,28.7
2598,28.7
2598.25,28.7
2598.5,28.7
2598.75,28.7
2599,28.7
2599.25,28.7
2599.5,28.7
2599.75,28.7
2600,28.7
2600.25,28.7
2600.5,28.7
2600.75,28.7
2601,28.7
2601.25,28.7
2601.5,28.7
2601.75,28.7
2602,28.7
2602.25,28.7
2602.5,28.7
2602.75,28.7
2603,28.7
2603.25,28.7
2603.5,28.7
2603.75,28.7
2604,28.7
2604.25,28.7
2604.5,28.7
2604.75,28.7
2605,28.7
2605.25,28.7
2605.5,28.7
2605.75,28.7
2606,28.7
2606.25,28.7
2606.5,28.7
2606.75,28.7
2607,28.7
2607.25,28.7032436582323
2607.5,28.7082402994146
2607.75,28.7132369405969
2608,28.7182335817792
2608.25,28.7232302229615
2608.5,28.7282268641438
2608.75,28.7332235053261
2609,28.7382201465084
2609.25,28.7432167876907
2609.5,28.748213428873
2609.75,28.7532100700553
2610,28.7582067112376
2610.25,28.76320335242
2610.5,28.7681999936023
2610.75,28.7731966347846
2611,28.7781932759669
2611.25,28.7831899171492
2611.5,28.7881865583315
2611.75,28.7931831995138
2612,28.7981798406961
2612.25,28.7714116630946
2612.5,28.7264418924539
2612.75,28.6814721218131
2613,28.6365023511724
2613.25,28.5915325805316
2613.5,28.5465628098909
2613.75,28.5015930392502
2614,28.4566232686094
2614.25,28.4116534979687
2614.5,28.366683727328
2614.75,28.3217139566872
2615,28.2767441860465
2615.25,28.2317744154058
2615.5,28.186804644765
2615.75,28.1418348741243
2616,28.0968651034836
2616.25,28.0518953328428
2616.5,28.0069255622021
2616.75,27.9619557915613
2617,27.9169860209206
2617.25,27.9435302773424
2617.5,28.0134832538946
2617.75,28.0834362304469
2618,28.1533892069991
2618.25,28.2233421835514
2618.5,28.2932951601037
2618.75,28.3632481366559
2619,28.4332011132082
2619.25,28.5031540897604
2619.5,28.5731070663127
2619.75,28.643060042865
2620,28.7130130194172
2620.25,28.7829659959695
2620.5,28.8529189725217
2620.75,28.922871949074
2621,28.9928249256262
2621.25,29.0627779021785
2621.5,29.1327308787307
2621.75,29.202683855283
2622,29.2726368318352
2622.25,29.1874412206902
2622.5,29.002565496945
2622.75,28.8176897731997
2623,28.6328140494546
2623.25,28.4479383257092
2623.5,28.2630626019641
2623.75,28.0781868782187
2624,27.8933111544736
2624.25,27.7084354307283
2624.5,27.5235597069831
2624.75,27.3386839832378
2625,27.1538082594926
2625.25,26.9689325357473
2625.5,26.7840568120021
2625.75,26.5991810882568
2626,26.4143053645116
2626.25,26.2294296407663
2626.5,26.0445539170212
2626.75,25.8596781932758
2627,25.6748024695307
2627.25,25.653549150699
2627.5,25.7434886919804
2627.75,25.833428233262
2628,25.9233677745434
2628.25,26.0133073158249
2628.5,26.1032468571063
2628.75,26.1931863983878
2629,26.2831259396693
2629.25,26.3730654809508
2629.5,26.4630050222322
2629.75,26.5529445635137
2630,26.6428841047951
2630.25,26.7328236460767
2630.5,26.8227631873581
2630.75,26.9127027286396
2631,27.002642269921
