1671,672.733775946849
1671.25,672.575396201665
1671.5,670.933297343708
1671.75,668.268480775531
1672,666.178653697101
1672.25,665.979900976274
1672.5,666.804009100483
1672.75,666.889886712889
1673,665.446557513726
1673.25,664.062095941846
1673.5,664.581640777855
1673.75,666.548736324585
1674,667.202545941316
1674.25,664.816418338792
1674.5,664.96825871514
1674.75,676.092005481463
1675,695.337629701581
1675.25,692.869450236965
1675.5,637.49175957366
1675.75,562.334158468853
1676,565.360024179565
1676.25,568.385889890276
1676.5,571.411755600987
1676.75,574.437621311698
1677,577.463487022409
1677.25,580.48935273312
1677.5,583.515218443831
1677.75,586.541084154543
1678,589.566949865254
1678.25,592.592815575965
1678.5,595.618681286676
1678.75,598.644546997387
1679,601.670412708098
1679.25,604.696278418809
1679.5,607.722144129521
1679.75,610.748009840232
1680,613.773875550943
1680.25,616.799741261654
1680.5,619.825606972365
1680.75,622.851472683076
1681,625.877338393787
1681.25,628.903204104499
1681.5,631.92906981521
1681.75,634.954935525921
1682,637.980801236632
1682.25,641.006666947343
1682.5,644.032532658054
1682.75,647.058398368765
1683,650.084264079477
1683.25,653.110129790188
1683.5,656.135995500899
1683.75,659.16186121161
1684,662.187726922321
1684.25,665.213592633032
1684.5,668.239458343743
1684.75,671.265324054454
1685,674.291189765166
1685.25,672.103509579356
1685.5,672.430529163707
1685.75,676.396438226708
1686,681.292391684665
1686.25,684.056530241096
1686.5,684.270054654688
1686.75,683.944779071739
1687,684.836270697477
1687.25,686.1391017615
1687.5,685.900653410379
1687.75,683.060453223021
1688,679.521890529618
1688.25,677.776279075804
1688.5,678.794766766905
1688.75,681.107990063298
1689,683.080608900509
1689.25,683.861331084663
1689.5,683.189479866035
1689.75,681.015894644254
1690,678.42363657074
1690.25,676.89786836218
1690.5,677.231761667463
1690.75,678.429543736025
1691,679.241828903341
1691.25,679.392785577287
1691.5,679.744303364205
1691.75,681.067327706601
1692,682.657686028858
1692.25,682.996533620278
1692.5,681.186427825092
1692.75,678.81683945257
1693,678.074727196518
1693.25,679.569932859076
1693.5,681.031462707698
1693.75,680.027628963198
1694,676.697833558529
1694.25,673.377108118133
1694.5,672.129694652388
1694.75,672.773035834982
1695,674.216490221816
1695.25,675.518232484069
1695.5,676.13174139195
1695.75,675.594747090781
1696,674.054165174139
1696.25,672.353688569817
1696.5,671.293247848798
1696.75,670.946844472285
1697,671.009124750796
1697.25,671.363426967446
1697.5,672.541512282294
1697.75,675.188396432176
1698,678.868872459247
1698.25,681.639432335496
1698.5,681.702745275618
1698.75,680.157699596799
1699,679.922415718062
1699.25,683.069056137415
1699.5,687.59045627189
1699.75,690.301583480876
1700,689.701402834869
1700.25,687.757394018573
1700.5,686.80738948566
1700.75,687.658307098363
1701,689.456104015823
1701.25,691.280067243611
1701.5,692.36894786195
1701.75,692.050424322876
1702,689.992463469658
1702.25,687.389788111251
1702.5,685.86250662039
1702.75,686.140116389323
1703,686.924692548097
1703.25,686.684118635024
1703.5,685.263658548993
1703.75,684.082609623915
1704,684.470868579527
1704.25,685.952921104399
1704.5,686.990771330015
1704.75,686.356736685246
1705,684.262730209428
1705.25,681.320296494775
1705.5,678.119536005919
1705.75,675.204886739286
1706,673.096475905138
1706.25,671.867049016914
1706.5,671.128949586541
1706.75,670.498971086736
1707,669.786766950968
1707.25,668.890198392765
1707.5,667.776008108711
1707.75,666.608949981848
1708,665.581374012998
1708.25,664.627374023382
1708.5,663.373470283419
1708.75,661.537638070102
1709,659.731845157975
1709.25,659.004205960834
1709.5,659.953190419593
1709.75,661.898042443099
1710,663.943550397726
1710.25,665.445022145327
1710.5,666.02088995611
1710.75,665.410954908263
1711,664.088381153609
1711.25,662.828055658375
1711.5,662.069698423892
1711.75,661.425751542466
1712,660.416716711134
1712.25,659.27804544802
1712.5,658.935804586224
1712.75,660.055914132901
1713,661.590665702887
1713.25,661.869229613766
1713.5,660.289375593853
1713.75,658.42377685042
1714,657.998893592043
1714.25,658.991463785817
1714.5,659.978464095405
1714.75,659.813690695503
1715,658.804946678623
1715.25,657.675199028628
1715.5,656.955989534228
1715.75,656.865836845707
1716,657.558153783717
1716.25,658.787496716767
1716.5,660.061088282664
1716.75,660.943437842263
1717,661.206926753412
1717.25,660.681024532295
1717.5,659.656538357442
1717.75,659.002659375732
1718,659.467839925326
1718.25,660.516690691052
1718.5,660.988498220683
1718.75,660.352670813121
1719,659.788270242344
1719.25,660.702641544424
1719.5,663.12973114905
1719.75,665.692320101658
1720,667.136496161917
1720.25,667.394096692505
1720.5,666.859480101052
1720.75,666.131097596924
1721,666.279076333422
1721.25,668.372894326704
1721.5,672.052072609794
1721.75,675.590675924046
1722,677.547384730711
1722.25,678.622895008762
1722.5,680.350156136997
1722.75,683.4793020085
1723,686.718473483793
1723.25,688.479024597686
1723.5,688.216840786211
1723.75,686.655865242736
1724,684.593455953899
1724.25,682.793519584624
1724.5,681.998789785267
1724.75,682.736786939434
1725,684.473540371852
1725.25,686.349130352966
1725.5,687.762290712329
1725.75,688.686025391506
1726,689.171066941913
1726.25,689.282085183328
1726.5,689.099305706816
1726.75,688.727439814722
1727,688.513887935706
1727.25,688.948477335846
1727.5,690.407238029813
1727.75,692.722238363013
1728,695.565687629544
1728.25,698.605494337774
1728.5,701.499747411768
1728.75,703.903217837741
1729,705.399321064003
1729.25,705.481191785259
1729.5,703.70239610821
1729.75,700.615114405214
1730,697.544189830061
1730.25,695.705146574426
1730.5,695.286735751757
1730.75,695.988499743045
1731,697.402799274814
1731.25,698.692747461929
1731.5,698.914224432854
1731.75,697.771741278156
1732,696.392256851814
1732.25,696.058227941064
1732.5,696.836160270072
1732.75,697.254747208286
1733,695.908981721409
1733.25,693.623196088696
1733.5,692.823193670821
1733.75,695.460967468323
1734,700.157252365487
1734.25,704.192909328666
1734.5,705.623068503488
1734.75,705.055687179172
1735,703.619578042173
1735.25,702.202127466437
1735.5,701.222241612348
1735.75,701.034080943719
1736,701.640409519258
1736.25,702.626861773603
1736.5,703.551959197848
1736.75,703.936075581023
1737,703.272480692838
1737.25,701.227039124664
1737.5,698.672437917916
1737.75,696.994952651661
1738,697.226251838096
1738.25,698.999301942639
1738.5,701.604009628644
1738.75,704.317163733942
1739,706.387756942406
1739.25,707.088448088134
1739.5,706.664342496127
1739.75,706.576537619114
1740,708.255100935353
1740.25,711.429231742887
1740.5,714.471636895551
1740.75,715.902726422921
1741,715.811543485134
1741.25,715.075993148071
1741.5,714.434415559854
1741.75,713.834570932232
1742,712.957071349548
1742.25,711.663493891202
1742.5,710.460927178987
1742.75,709.998951582886
1743,710.620824293985
1743.25,711.960248231543
1743.5,713.553321813088
1743.75,715.077238043417
1744,716.420231247334
1744.25,717.485935525606
1744.5,718.133463477646
1744.75,718.176789884503
1745,717.480980869385
1745.25,716.627189372728
1745.5,716.710240990211
1745.75,718.671449342588
1746,722.041106309414
1746.25,725.632490980714
1746.5,728.403398412123
1746.75,730.157221825583
1747,730.993091968882
1747.25,730.969409648929
1747.5,729.971743622159
1747.75,727.840224322229
1748,724.698280432396
1748.25,721.61961437041
1748.5,719.875468606329
1748.75,720.037353315738
1749,720.861996949752
1749.25,720.82574848622
1749.5,719.433097900165
1749.75,718.09475446461
1750,718.397411247227
1750.25,720.596630253017
1750.5,723.139514260216
1750.75,724.399536905497
1751,723.964050175582
1751.25,722.599874051668
1751.5,721.096764235635
1751.75,719.88152167511
1752,719.112410717384
1752.25,718.936404619051
1752.5,719.453625225782
1752.75,720.738511089518
1753,722.734376902033
1753.25,724.561688470491
1753.5,725.021860231146
1753.75,723.430676216258
1754,721.37769966876
1754.25,721.079505784836
1754.5,723.851279793459
1754.75,728.05805445247
1755,731.464844760593
1755.25,732.518676407658
1755.5,731.261796089846
1755.75,727.968866341553
1756,723.433273146155
1756.25,719.430608753716
1756.5,717.821414106837
1756.75,719.09869355179
1757,721.691293388001
1757.25,723.888427239251
1757.5,724.814087107376
1757.75,724.491918148621
1758,723.019327586375
1758.25,720.967983323692
1758.5,719.294991894509
1758.75,718.865285893501
1759,719.412532065126
1759.25,719.972491394281
1759.5,719.736726267349
1759.75,719.095417930694
1760,718.964903469319
1760.25,720.083555658374
1760.5,722.292993714588
1760.75,725.156438858151
1761,728.140406064735
1761.25,730.380093975133
1761.5,730.941144479742
1761.75,729.49920814096
1762,727.291353085279
1762.25,725.795778493074
1762.5,725.701777327654
1762.75,726.068558534027
1763,725.765051288521
1763.25,724.397111109869
1763.5,722.743024144147
1763.75,721.666350977397
1764,721.364203839893
1764.25,721.211428729296
1764.5,720.563460189471
1764.75,719.400510739374
1765,718.2780539999
1765.25,717.729700297825
1765.5,717.749157455492
1765.75,717.963732324276
1766,718.037592273506
1766.25,717.985374478837
1766.5,717.989808225778
1766.75,718.137179907767
1767,717.992389247206
1767.25,716.946788718927
1767.5,714.776083927477
1767.75,712.654194468185
1768,712.070959752566
1768.25,713.865382234085
1768.5,717.268006333669
1768.75,721.268957480666
1769,725.111956448426
1769.25,728.452649124363
1769.5,730.981787957298
1769.75,732.30672801364
1770,731.936220513255
1770.25,729.427100343282
1770.5,725.4854133453
1770.75,721.919711249597
1771,720.45388209365
1771.25,720.8170914738
1771.5,721.170057491066
1771.75,719.842825008234
1772,717.29031192042
1772.25,715.194299623095
1772.5,714.986511947156
1772.75,716.284951894734
1773,717.947868934401
1773.25,719.011824005675
1773.5,719.319454679812
1773.75,718.93784926335
1774,717.944552749455
1774.25,716.448883216369
1774.5,714.567650422929
1774.75,712.674381984493
1775,711.690187595509
1775.25,712.587711952742
1775.5,715.376535818038
1775.75,718.661416098743
1776,720.999089234553
1776.25,722.343483909161
1776.5,724.016282329475
1776.75,727.256947653322
1777,731.434950232082
1777.25,734.583428844243
1777.5,734.915090043193
1777.75,732.595223785513
1778,728.856181514825
1778.25,724.907208730609
1778.5,721.697023688158
1778.75,720.053679086921
1779,720.640153108545
1779.25,723.163108068374
1779.5,726.984356490807
1779.75,731.282272841598
1780,734.495219456439
1780.25,734.875052326102
1780.5,731.692979836242
1780.75,727.354282492579
1781,724.861497558804
1781.25,725.793297024301
1781.5,728.051010883237
1781.75,728.963078650564
1782,727.433180757033
1782.25,725.437612715439
1782.5,725.280774493422
1782.75,727.650248920402
1783,730.721687821162
1783.25,732.506841634399
1783.5,732.726954012854
1783.75,733.142430543213
1784,735.547207519323
1784.25,739.800597466025
1784.5,743.849987535355
1784.75,745.657481125657
1785,744.818494580502
1785.25,742.29394719092
1785.5,739.066419644614
1785.75,735.800178048359
1786,732.90698877031
1786.25,730.77140622289
1786.5,729.502392469761
1786.75,729.010097334323
1787,729.205905865135
1787.25,730.060060185794
1787.5,731.577839315145
1787.75,733.693902871987
1788,735.783711534785
1788.25,736.9582090348
1788.5,736.4912096558
1788.75,734.685418044564
1789,732.24065171693
1789.25,729.854669896679
1789.5,728.209742773859
1789.75,727.982999898509
1790,729.476362074694
1790.25,731.382665411451
1790.5,731.963672350924
1790.75,730.311967116768
1791,728.258391116027
1791.25,728.194982899039
1791.5,731.306888551211
1791.75,735.557174680998
1792,738.383964452406
1792.25,738.32437243245
1792.5,736.203103976975
1792.75,733.129030530961
1793,730.076033219953
1793.25,727.771750880495
1793.5,726.906300007532
1793.75,727.507163488473
1794,728.584624185927
1794.25,729.082753166842
1794.5,728.609613695199
1794.75,727.572611648041
1795,726.41596062671
1795.25,725.352210451214
1795.5,724.369984238215
1795.75,723.444581072185
1796,722.490094514186
1796.25,721.374124603369
1796.5,719.974496642265
1796.75,718.28291872234
1797,716.356654361113
1797.25,714.309683383114
1797.5,712.637563613375
1797.75,711.995187775048
1798,712.887774365954
1798.25,715.145377566747
1798.5,718.408269655678
1798.75,722.162103019886
1799,725.450468910576
1799.25,727.243138762648
1799.5,727.128819047145
1799.75,725.927685291662
1800,724.597416199084
1800.25,723.604777202202
1800.5,722.655445284714
1800.75,721.404212993551
1801,719.976149341862
1801.25,719.056131384538
1801.5,719.315014484047
1801.75,720.547629496543
1802,721.770505303863
1802.25,722.076358904005
1802.5,721.746733313188
1802.75,721.824684671257
1803,723.165132944639
1803.25,725.048597224763
1803.5,726.012284664723
1803.75,724.921919439459
1804,722.480479650671
1804.25,720.021285854427
1804.5,718.673852795646
1804.75,718.723906533162
1805,720.239128966514
1805.25,722.96500500529
1805.5,725.715792997786
1805.75,727.146357735535
1806,727.088533931797
1806.25,727.792888669627
1806.5,731.774029724548
1806.75,739.364817138894
1807,747.408017559801
1807.25,752.489503414602
1807.5,753.366042736375
1807.75,751.602814176976
1808,748.931762942372
1808.25,746.305857065244
1808.5,743.659757129462
1808.75,740.869000932939
1809,738.186744538614
1809.25,736.359736426189
1809.5,736.133522496421
1809.75,737.120786528153
1810,737.572881146644
1810.25,735.739759408796
1810.5,731.823196484747
1810.75,728.050931837117
1811,726.643588418259
1811.25,727.859522624242
1811.5,730.17889198958
1811.75,732.07899164639
1812,732.856190469442
1812.25,732.389740739864
1812.5,730.681403030102
1812.75,728.846027357642
1813,728.644907189814
1813.25,731.575868266357
1813.5,736.981528230009
1813.75,743.176927288128
1814,748.615069068243
1814.25,752.626420727922
1814.5,754.871325351569
1814.75,755.09390931002
1815,753.508075797611
1815.25,750.49246676929
1815.5,746.450458038758
1815.75,741.932891399331
1816,737.545401131442
1816.25,733.860863528167
1816.5,731.254908405097
1816.75,730.029883797935
1817,730.311686859996
1817.25,731.323349647742
1817.5,731.999701942539
1817.75,731.514173024618
1818,730.000718238411
1818.25,727.834847103466
1818.5,725.42049800717
1818.75,723.253859487345
1819,721.848973194415
1819.25,721.398698713163
1819.5,721.289135006962
1819.75,720.788946762495
1820,719.888638219503
1820.25,719.905470695544
1820.5,722.26260558306
1820.75,726.839213187156
1821,731.434356149918
1821.25,733.800556793347
1821.5,733.971753949142
1821.75,734.25021395753
1822,736.863571311557
1822.25,741.132138505176
1822.5,743.956294436233
1822.75,742.421097870537
1823,737.049989113741
1823.25,730.810075370165
1823.5,726.537342928491
1823.75,724.838596268821
1824,724.834263882221
1824.25,725.655605815809
1824.5,726.776568307229
1824.75,727.853274338256
1825,728.584992768822
1825.25,728.942295988545
1825.5,729.004856290887
1825.75,728.877419317727
1826,728.788405902454
1826.25,729.00474881433
1826.5,729.633513523756
1826.75,730.161957520714
1827,729.927488972951
1827.25,728.773005142114
1827.5,728.067929436784
1827.75,729.465600492223
1828,733.681992025401
1828.25,739.185849156929
1828.5,744.123458353868
1828.75,747.456756058339
1829,749.695147330121
1829.25,751.517509328076
1829.5,753.316217559868
1829.75,754.980046712722
1830,756.344821076794
1830.25,757.08179850396
1830.5,756.569840673492
1830.75,754.163842377166
1831,749.899199394172
1831.25,745.102009660672
1831.5,741.23813372341
1831.75,739.189115566272
1832,738.665724608229
1832.25,739.238375384529
1832.5,740.409452201148
1832.75,741.556490444989
1833,742.046797239005
1833.25,741.464699982565
1833.5,739.748083278647
1833.75,736.877586690448
1834,733.392830361665
1834.25,730.66936164246
1834.5,730.113237978003
1834.75,731.608972826471
1835,733.037323949078
1835.25,732.287464683599
1835.5,731.015996883885
1835.75,734.902591316444
1836,749.075610280793
1836.25,764.49163410142
1836.5,759.435733071022
1836.75,757.937673358795
1837,756.439613646567
1837.25,754.94155393434
1837.5,753.443494222112
1837.75,751.945434509885
1838,750.447374797657
1838.25,748.94931508543
1838.5,747.451255373202
1838.75,745.953195660975
1839,744.455135948747
1839.25,742.95707623652
1839.5,741.459016524292
1839.75,739.960956812065
1840,738.462897099837
1840.25,736.96483738761
1840.5,735.466777675382
1840.75,733.968717963155
1841,732.470658250927
1841.25,730.9725985387
1841.5,729.474538826472
1841.75,727.976479114245
1842,726.478419402017
1842.25,724.98035968979
1842.5,723.482299977562
1842.75,721.984240265335
1843,720.486180553107
1843.25,722.191174557817
1843.5,725.778848706701
1843.75,730.040317661205
1844,733.512345640684
1844.25,735.313270186811
1844.5,735.921660066451
1844.75,736.007208644707
1845,735.87584232405
1845.25,735.12945580543
1845.5,733.295458002744
1845.75,730.343645027895
1846,726.97907794258
1846.25,723.969491403315
1846.5,721.76988113176
1846.75,720.397068912288
1847,719.818860747001
1847.25,719.572878546848
1847.5,718.733190491862
1847.75,716.437491336208
1848,713.164416804876
1848.25,710.448467315128
1848.5,709.662380146502
1848.75,710.341966526211
1849,710.994878099634
1849.25,710.408714638291
1849.5,709.048578203969
1849.75,707.978931976419
1850,707.943834516275
1850.25,708.532323559652
1850.5,709.076708322185
1850.75,709.484573684991
1851,710.934394018402
1851.25,714.737443231921
1851.5,720.436845824521
1851.75,725.073523928315
1852,725.645230284188
1852.25,722.283316155017
1852.5,718.127809864654
1852.75,716.229723327895
1853,716.631635862107
1853.25,717.13007452532
1853.5,715.790787607128
1853.75,713.552013532701
1854,712.856970598128
1854.25,715.524276860476
1854.5,719.655744705171
1854.75,722.010565607814
1855,720.378237988541
1855.25,716.39335107515
1855.5,712.58428557307
1855.75,710.650815766333
1856,710.073535458881
1856.25,709.968728887417
1856.5,709.744447446708
1856.75,709.325480776633
1857,708.696636176681
1857.25,708.057787809293
1857.5,707.857856181977
1857.75,708.542957406245
1858,710.316730006817
1858.25,713.199972313699
1858.5,717.084168896759
1858.75,720.863327409347
1859,722.953279108184
1859.25,722.292528249483
1859.5,720.495716881407
1859.75,720.026924129757
1860,722.355745499039
1860.25,725.292228673135
1860.5,725.808482738508
1860.75,722.419872526338
1861,717.63215252526
1861.25,714.57644548158
1861.5,714.968579673175
1861.75,717.730054988978
1862,721.462540659318
1862.25,725.096416284503
1862.5,728.007401032546
1862.75,729.621220921455
1863,729.777126227648
1863.25,728.723514653621
1863.5,726.726892121598
1863.75,724.064089507863
1864,721.020138162674
1864.25,717.892805635286
1864.5,715.120399244283
1864.75,713.229627579866
1865,712.65218943391
1865.25,713.098632945038
1865.5,713.952804843771
1865.75,714.705280930788
1866,715.359136062219
1866.25,716.068842209076
1866.5,717.009694265465
1866.75,718.420962159278
1867,720.550104963216
1867.25,722.998781381846
1867.5,724.022099281481
1867.75,721.74114774971
1868,716.187104868097
1868.25,710.266398833046
1868.5,707.048631674604
1868.75,707.437234997698
1869,709.882484429938
1869.25,712.735438099305
1869.5,714.801810395028
1869.75,715.21901178028
1870,713.352064716287
1870.25,710.321602216121
1870.5,708.088660671703
1870.75,708.127471482059
1871,709.380678686741
1871.25,709.979411338035
1871.5,708.782156753332
1871.75,706.910632541589
1872,705.920404782774
1872.25,706.747027009385
1872.5,709.103546691954
1872.75,712.553915754738
1873,716.453365213095
1873.25,719.900226406135
1873.5,722.060804822414
1873.75,723.479233942349
1874,725.827640330925
1874.25,730.611757730635
1874.5,737.222656084965
1874.75,743.778726335501
1875,748.521166057368
1875.25,750.780494080513
1875.5,750.396892529275
1875.75,747.490643592638
1876,744.200313036874
1876.25,743.557309680436
1876.5,747.951815094583
1876.75,755.076883128968
1877,760.5478620468
1877.25,760.734320315256
1877.5,757.155322294378
1877.75,753.45828788466
1878,752.852506900258
1878.25,755.093667689679
1878.5,758.322223290624
1878.75,760.819183499978
1879,762.074220877987
1879.25,762.161403758803
1879.5,761.213722973204
1879.75,759.865565742391
1880,759.018968158017
1880.25,759.501804758216
1880.5,761.318789190156
1880.75,763.974233398067
1881,766.999253316311
1881.25,770.339023278735
1881.5,774.215837856043
1881.75,778.784667501414
1882,783.0860667034
1882.25,785.286624259762
1882.5,783.624710355218
1882.75,778.646295545358
1883,773.272312787856
1883.25,770.487577057813
1883.5,770.868643071545
1883.75,771.411980970608
1884,768.84664686928
1884.25,762.349132854777
1884.5,755.657400179006
1884.75,752.997878071392
1885,756.062822822329
1885.25,760.64805304041
1885.5,761.721106335878
1885.75,756.864423888978
1886,749.954200263612
1886.25,745.791368626249
1886.5,747.04492546659
1886.75,750.496296170619
1887,751.922998026606
1887.25,749.121040984712
1887.5,745.208630260541
1887.75,744.167657127309
1888,748.001968336855
1888.25,753.378772628478
1888.5,756.079494893143
1888.75,753.940437893742
1889,749.972177682487
1889.25,747.984190066944
1889.5,750.09598559262
1889.75,753.868547194375
1890,756.104204605548
1890.25,754.79075910148
1890.5,751.040548508114
1890.75,746.474435951201
1891,742.533319321269
1891.25,740.149733687722
1891.5,740.166034924143
1891.75,742.729160542278
1892,746.088977476916
1892.25,748.177351161667
1892.5,747.738141456127
1892.75,745.490186983571
1893,742.446354777929
1893.25,739.477724939687
1893.5,737.118283288818
1893.75,735.850995628296
1894,735.761096681036
1894.25,736.05994662284
1894.5,735.846421190077
1894.75,734.618812852401
1895,732.627044381064
1895.25,730.21018947933
1895.5,728.116205405228
1895.75,727.754173941068
1896,730.549561846702
1896.25,736.158397387525
1896.5,741.898971448103
1896.75,745.016004586278
1897,744.973875079737
1897.25,743.590122957915
1897.5,742.725028351496
1897.75,742.626248798469
1898,741.935735286325
1898.25,739.298235273588
1898.5,734.806091233059
1898.75,729.891358066727
1899,725.980935316724
1899.25,723.545217734621
1899.5,722.248955302485
1899.75,721.690525574261
1900,720.966011642715
1900.25,718.83607830586
1900.5,714.572068944183
1900.75,715.053286549818
1901,715.534504155454
1901.25,716.015721761089
1901.5,716.496939366725
1901.75,716.97815697236
1902,717.459374577996
1902.25,717.940592183631
1902.5,718.421809789267
1902.75,718.903027394902
1903,719.384245000538
1903.25,719.865462606173
1903.5,720.346680211809
1903.75,720.827897817444
1904,721.30911542308
1904.25,721.790333028715
1904.5,722.271550634351
1904.75,722.752768239986
1905,723.233985845622
1905.25,723.715203451257
1905.5,724.196421056893
1905.75,724.677638662528
1906,725.158856268164
1906.25,725.640073873799
1906.5,726.121291479435
1906.75,726.60250908507
1907,727.083726690706
1907.25,727.564944296341
1907.5,728.046161901977
1907.75,728.527379507612
1908,729.008597113248
1908.25,726.236485674669
1908.5,726.709581553083
1908.75,729.42610148915
1909,731.79605188672
1909.25,731.611803244984
1909.5,729.658228655369
1909.75,728.068327963958
1910,728.619453607197
1910.25,730.942605975808
1910.5,733.881050331139
1910.75,736.489055781625
1911,738.783122385299
1911.25,741.052347352805
1911.5,743.448621552494
1911.75,745.610399554505
1912,747.056108535659
1912.25,747.498933648775
1912.5,747.306478115948
1912.75,746.983569116935
1913,746.758322997086
1913.25,745.961649986096
1913.5,743.743205438887
1913.75,739.853167126479
1914,735.920873147242
1914.25,733.941503548833
1914.5,735.092364396117
1914.75,738.165653704589
1915,741.522384484931
1915.25,743.918683588976
1915.5,745.068897230868
1915.75,744.830568990261
1916,743.21054708587
1916.25,740.542814680578
1916.5,737.207542434673
1916.75,734.023929299417
1917,732.720931534102
1917.25,735.1284785451
1917.5,741.924975425156
1917.75,751.69751949758
1918,762.808237717609
1918.25,773.400822545026
1918.5,781.285096495906
1918.75,784.269248754219
1919,782.172488934579
1919.25,778.198945903586
1919.5,775.872664484987
1919.75,777.027988275941
1920,779.356987498482
1920.25,779.928853368769
1920.5,777.031534098043
1920.75,772.99539095118
1921,770.987796589202
1921.25,773.256890607038
1921.5,777.683006416547
1921.75,780.850536627152
1922,779.973407262518
1922.25,776.132516508911
1922.5,771.875655845105
1922.75,769.486810428531
1923,768.807824885497
1923.25,768.369599660616
1923.5,766.828921154805
1923.75,764.547929429247
1924,763.036458685807
1924.25,763.720213676051
1924.5,766.305995472606
1924.75,769.101810266527
1925,770.446157237585
1925.25,770.124011950399
1925.5,769.268821433562
1925.75,769.046009632758
1926,770.0367606936
1926.25,772.151181047307
1926.5,775.261036714199
1926.75,779.175314787176
1927,783.614955817441
1927.25,788.288654389697
1927.5,792.363643465946
1927.75,794.025003236859
1928,791.356170113256
1928.25,783.881846832823
1928.5,775.085290182369
1928.75,769.123406765765
1929,769.055290785744
1929.25,772.974406451396
1929.5,777.57091627783
1929.75,780.045626002531
1930,780.508436327553
1930.25,780.097760567751
1930.5,779.814932903502
1930.75,779.539117479922
1931,778.604395293872
1931.25,776.433984878091
1931.5,773.59232330898
1931.75,771.411167469807
1932,771.166841886804
1932.25,772.793347055818
1932.5,775.012910424152
1932.75,776.538834046651
1933,777.075371555262
1933.25,777.440540438352
1933.5,778.498134757197
1933.75,780.3995459155
1934,782.243486463616
1934.25,783.046368305427
1934.5,782.159772207653
1934.75,779.60566396753
1935,775.486114886535
1935.25,770.229852997384
1935.5,765.215611791785
1935.75,761.993868028547
1936,761.677223612406
1936.25,763.64445000748
1936.5,766.845233841285
1936.75,770.221804287764
1937,772.68228634556
1937.25,773.125061561524
1937.5,770.777722972291
1937.75,766.718186399819
1938,762.670324951401
1938.25,760.137069528898
1938.5,758.959525036035
1938.75,758.224480358886
1939,757.111486936911
1939.25,755.647245599346
1939.5,754.297631042205
1939.75,753.498252980865
1940,753.35231157533
1940.25,753.774981616273
1940.5,754.677512052829
1940.75,755.9526353551
1941,757.482148066418
1941.25,759.160090249072
1941.5,761.015970696606
1941.75,763.162818817603
1942,765.635423199394
1942.25,767.492547384316
1942.5,767.137552645127
1942.75,763.100967106933
1943,756.03375046594
1943.25,748.237788999375
1943.5,741.999250440952
1943.75,738.424444118678
1944,737.533557880737
1944.25,739.258565038244
1944.5,742.660675386913
1944.75,746.040392647093
1945,747.759243917578
1945.25,747.475814031831
1945.5,745.847715783293
1945.75,743.536939085043
1946,740.900463797388
1946.25,738.06767255667
1946.5,735.203451860395
1946.75,733.014395838898
1947,732.590478537484
1947.25,734.831243921545
1947.5,738.466832785047
1947.75,740.890854524313
1948,739.875376971119
1948.25,736.634945308563
1948.5,734.147267888927
1948.75,735.041843765487
1949,739.162967779715
1949.25,745.063849294011
1949.5,751.268086349177
1949.75,756.157885420495
1950,758.060766409082
1950.25,755.786556304701
1950.5,751.023572881892
1950.75,746.523256411745
1951,744.600715549773
1951.25,744.683889758738
1951.5,745.032020408841
1951.75,744.214648254058
1952,742.767282629779
1952.25,741.985596865413
1952.5,742.843224955487
1952.75,744.406803813644
1953,745.04695305815
1953.25,743.554020326122
1953.5,740.965401784395
1953.75,739.06557078817
1954,739.186778371543
1954.25,740.386241279389
1954.5,741.008094456703
1954.75,739.887451343153
1955,738.020972784408
1955.25,736.999686751621
1955.5,738.014626339351
1955.75,740.677093674154
1956,744.208505889634
1956.25,748.045472770818
1956.5,752.352025412089
1956.75,757.445555986538
1957,763.186081871318
1957.25,767.993734733182
1957.5,770.006116883442
1957.75,768.19711994549
1958,764.400816800874
1958.25,761.062229545085
1958.5,760.055374578383
1958.75,760.772955935726
1959,761.933840033322
1959.25,762.472932099218
1959.5,762.397004511841
1959.75,762.044612552448
1960,761.731418636697
1960.25,761.641060010988
1960.5,761.910137753125
1960.75,762.556602988426
1961,762.807932173509
1961.25,761.568367670061
1961.5,758.035110206495
1961.75,753.688860655861
1962,751.078990327517
1962.25,752.403893538631
1962.5,756.654404477057
1962.75,761.126540656529
1963,763.409363218067
1963.25,763.899543391845
1963.5,764.493419714557
1963.75,766.890981192724
1964,770.530967671959
1964.25,773.476646411367
1964.5,773.925032846069
1964.75,772.124082008214
1965,769.785547501574
1965.25,768.579514083766
1965.5,768.724585893303
1965.75,769.106623952643
1966,768.593966414836
1966.25,766.962723595146
1966.5,765.005287904167
1966.75,763.556612476366
1967,762.964932617028
1967.25,762.913354671929
1967.5,763.037857225679
1967.75,763.024926850072
1968,762.641142523669
1968.25,761.665264826403
1968.5,760.37115790971
1968.75,759.936019662213
1969,761.627134834549
1969.25,765.764575126097
1969.5,770.696697758905
1969.75,774.528194246506
1970,776.039230503441
1970.25,775.600232168836
1970.5,773.810365623461
1970.75,771.384512561276
1971,769.39691874224
1971.25,768.991386379611
1971.5,770.814681599514
1971.75,773.458609536179
1972,774.983973337606
1972.25,773.757827147547
1972.5,769.739292668513
1972.75,763.403217301585
1973,755.401034678297
1973.25,747.634045982903
1973.5,742.543564895716
1973.75,742.131502389722
1974,744.744166709356
1974.25,746.922237520082
1974.5,745.748061003397
1974.75,742.439804399344
1975,740.08433912946
1975.25,741.253620422798
1975.5,744.758334137391
1975.75,747.766145183593
1976,747.88826192421
1976.25,745.585249276531
1976.5,742.428620142084
1976.75,739.792526320579
1977,737.817874267524
1977.25,736.17569183289
1977.5,734.680058113876
1977.75,733.949791239049
1978,734.883174269998
1978.25,738.027169067123
1978.5,742.271001906809
1978.75,746.015791323659
1979,748.064517259694
1979.25,748.802419737343
1979.5,749.004037158652
1979.75,749.165547811734
1980,748.738747824491
1980.25,746.93054972771
1980.5,743.321092850759
1980.75,738.874017322081
1981,734.873448243396
1981.25,732.266310467498
1981.5,730.793751910624
1981.75,729.927617318431
1982,729.289452353652
1982.25,728.94894551005
1982.5,729.058178953589
1982.75,729.450505578048
1983,729.201594636567
1983.25,727.286160184034
1983.5,723.673791153379
1983.75,720.206220060478
1984,718.904737956737
1984.25,720.32405526378
1984.5,722.841859542528
1984.75,724.706747127044
1985,725.404938613486
1985.25,725.748582834612
1985.5,726.571235956772
1985.75,727.991673920385
1986,729.545117660359
1986.25,730.802557595168
1986.5,731.933914116213
1986.75,733.488364772948
1987,735.875058913891
1987.25,738.247600530194
1987.5,739.119635250152
1987.75,737.327299264745
1988,733.99467436759
1988.25,731.221432283776
1988.5,730.745243965603
1988.75,732.079406236712
1989,733.900682473568
1989.25,735.110740861314
1989.5,735.703206152116
1989.75,736.000467273348
1990,736.275970271693
1990.25,736.608191092513
1990.5,737.027113062414
1990.75,737.470354661452
1991,737.56475251051
1991.25,736.872119669448
1991.5,735.232490529398
1991.75,733.28907220829
1992,731.828330530534
1992.25,731.338547204373
1992.5,731.567105223353
1992.75,732.148969165312
1993,732.819513916102
1993.25,733.51794292148
1993.5,734.213004376597
1993.75,735.230918334442
1994,737.494151087396
1994.25,741.946741141147
1994.5,747.89692780645
1994.75,752.353040665169
1995,752.228845372406
1995.25,747.301253511707
1995.5,740.969521853396
1995.75,736.817628399817
1996,736.548094707002
1996.25,739.407007094002
1996.5,744.461748391573
1996.75,750.380277710585
1997,755.370794015551
1997.25,757.669446039279
1997.5,756.875865733839
1997.75,754.0331538879
1998,750.247046452802
1998.25,746.424437689971
1998.5,743.245764858832
1998.75,741.362635136144
1999,740.919667263401
1999.25,741.471925288949
1999.5,742.544009110348
1999.75,743.730502565657
2000,744.700836567524
2000.25,745.139101739274
2000.5,744.975031704691
2000.75,744.38000801295
2001,743.554687872357
2001.25,743.088676881771
2001.5,743.934715406074
2001.75,746.97698232577
2002,751.585988192227
2002.25,755.805025999992
2002.5,757.723815914503
2002.75,756.973995998388
2003,754.470135699485
2003.25,751.161985534517
2003.5,747.925702705
2003.75,745.571564460513
2004,744.854028362727
2004.25,745.456777241836
2004.5,746.074518390251
2004.75,745.428869411986
2005,743.415678900516
2005.25,740.960022453665
2005.5,738.98541781572
2005.75,737.791207390717
2006,737.152113579005
2006.25,736.835928046407
2006.5,736.747218529146
2006.75,736.894041684795
2007,737.296261353869
2007.25,738.084452457729
2007.5,739.462172551248
2007.75,741.59990343221
2008,744.326235856053
2008.25,747.273771040788
2008.5,750.121617874436
2008.75,752.972943556819
2009,756.148867560756
2009.25,759.928958391271
2009.5,764.22630047514
2009.75,768.769735245173
2010,773.230092833384
2010.25,776.752408419491
2010.5,778.196324356926
2010.75,776.573367981624
2011,772.801611317868
2011.25,769.082431055691
2011.5,767.542755106456
2011.75,768.411527607691
2012,770.202459852449
2012.25,771.408572132861
2012.5,771.63090601649
2012.75,771.678712692528
2013,772.403728016195
2013.25,773.855444315382
2013.5,774.993066360521
2013.75,774.709363758834
2014,772.82339361217
2014.25,770.746117325071
2014.5,770.041651250139
2014.75,771.410649732139
2015,773.599676205425
2015.25,775.087312383757
2015.5,775.032855132978
2015.75,774.531825644519
2016,775.021696367985
2016.25,777.479095599939
2016.5,781.11837819123
2016.75,784.73272190521
2017,787.216775197047
2017.25,787.98946038983
2017.5,786.638523788545
2017.75,782.946106883151
2018,778.251226535114
2018.25,774.64092594213
2018.5,774.029153342736
2018.75,775.97096511928
2019,778.34865353157
2019.25,779.087078213398
2019.5,777.642066276001
2019.75,774.866253212863
2020,771.651203642719
2020.25,768.462028321023
2020.5,765.23707996114
2020.75,761.887875709954
2021,758.687146136063
2021.25,756.476738280119
2021.5,756.137075233665
2021.75,757.45319367121
2022,758.224592990107
2022.25,756.057066858743
2022.5,750.443314368193
2022.75,744.527812590736
2023,741.860761554777
2023.25,744.05942252775
2023.5,748.699976871185
2023.75,752.8627252615
2024,754.908240126302
2024.25,755.647345875771
2024.5,756.161623905116
2024.75,756.815952245076
2025,756.57321930781
2025.25,754.239337971338
2025.5,749.503716582035
2025.75,743.90231415987
2026,739.199961643274
2026.25,736.606081177351
2026.5,736.102827322522
2026.75,737.505064907434
2027,740.231708164929
2027.25,742.918774496267
2027.5,744.120422987752
2027.75,743.198350592514
2028,740.899751540385
2028.25,738.104440132695
2028.5,735.446360763697
2028.75,733.164041188471
2029,731.454242062268
2029.25,730.220125860545
2029.5,728.944968508653
2029.75,727.108556157917
2030,725.106576454519
2030.25,724.41833720233
2030.5,726.502097140087
2030.75,731.089097515397
2031,736.286911328955
2031.25,740.253557810084
2031.5,742.695037342775
2031.75,744.436843740676
2032,746.238495687523
2032.25,747.821974146653
2032.5,748.248855914451
2032.75,746.674500977472
2033,743.363678601452
2033.25,739.250360153371
2033.5,735.334476254469
2033.75,733.201977899825
2034,734.784737863988
2034.25,741.818370729966
2034.5,754.278556988729
2034.75,771.229352869913
2035,791.655611857959
2035.25,814.020209235995
2035.5,836.554582112806
2035.75,857.497847321956
2036,875.177916574805
2036.25,887.974539138122
2036.5,894.303773403589
2036.75,894.743152729972
2037,893.233135141932
2037.25,894.004944712162
2037.5,900.643794349912
2037.75,911.295289308258
2038,921.379969828635
2038.25,926.305718132531
2038.5,923.618161044736
2038.75,915.908721445954
2039,906.49651771025
2039.25,898.626059312285
2039.5,893.616250420788
2039.75,890.736203217539
2040,889.155553232548
2040.25,888.219250122225
2040.5,888.318089354954
2040.75,890.229062259234
2041,894.715197424838
2041.25,901.514836922713
2041.5,908.685211124223
2041.75,914.12751465214
2042,915.950841913392
2042.25,914.134387961023
2042.5,909.646557531664
2042.75,903.464732957577
2043,896.526745487693
2043.25,889.645870205541
2043.5,883.610924553074
2043.75,879.176056034122
2044,876.146305481198
2044.25,873.284796986475
2044.5,869.301372027563
2044.75,863.318943903916
2045,856.437585519723
2045.25,850.348239550247
2045.5,846.70493968751
2045.75,846.1488270239
2046,848.209331932551
2046.25,852.358932770034
2046.5,857.680349870821
2046.75,862.000104897272
2047,862.892122840233
2047.25,858.231392342343
2047.5,849.421644074702
2047.75,840.157003863504
2048,834.160151831913
2048.25,833.376407083414
2048.5,835.963605601766
2048.75,839.593616700081
2049,842.148638180969
2049.25,842.733518724349
2049.5,840.893757938253
2049.75,836.269888889176
2050,830.515013710102
2050.25,827.209906756437
2050.5,830.00586019777
2050.75,839.961781764187
2051,851.670264771586
2051.25,858.73239553309
2051.5,856.064302237687
2051.75,847.021200782027
2052,838.292175494959
2052.25,836.440079315136
2052.5,843.059085181131
2052.75,853.433753306182
2053,862.441525389259
2053.25,866.294833469596
2053.5,865.607966469288
2053.75,861.90118086282
2054,856.676909359904
2054.25,851.187771084816
2054.5,846.502362854008
2054.75,843.683192974558
2055,843.265991303779
2055.25,844.531607799972
2055.5,846.578040757926
2055.75,848.536011525801
2056,849.777474632236
2056.25,849.782267548991
2056.5,848.037480989124
2056.75,844.273749251051
2057,838.527590499458
2057.25,830.854945931548
2057.5,821.785141878268
2057.75,813.647660126864
2058,809.19981558386
2058.25,810.814679743554
2058.5,816.798443292891
2058.75,823.011718659866
2059,825.376198775078
2059.25,822.49975795341
2059.5,815.99598719209
2059.75,807.637273905121
2060,799.237034293487
2060.25,792.712076492023
2060.5,789.995241002985
2060.75,792.164921996303
2061,795.96413044566
2061.25,796.76418423765
2061.5,790.653391213715
2061.75,779.740260987045
2062,769.140229688737
2062.25,763.716112051576
2062.5,763.820682405184
2062.75,766.11949101117
2063,767.275419103177
2063.25,766.234726636593
2063.5,764.150230759573
2063.75,762.233046162996
2064,760.732395057706
2064.25,758.787509011829
2064.5,755.501409850321
2064.75,751.006922045003
2065,746.798831798098
2065.25,744.438234901112
2065.5,744.174805712247
2065.75,744.390817308837
2066,743.358158192844
2066.25,740.724221167507
2066.5,737.994010490656
2066.75,736.775098205595
2067,737.60848168307
2067.25,739.683066766797
2067.5,742.120491619555
2067.75,744.592797833961
2068,747.380890915552
2068.25,750.78748401835
2068.5,754.888673079623
2068.75,759.532367893858
2069,764.538811977605
2069.25,769.325585975114
2069.5,772.909064111172
2069.75,774.316973329736
2070,773.406995720414
2070.25,770.974065031373
2070.5,767.863827475564
2070.75,764.945827450043
2071,763.124347048065
2071.25,763.291644962891
2071.5,765.006620384957
2071.75,765.451955566253
2072,761.581221622194
2072.25,752.789207320044
2072.5,743.487269045231
2072.75,738.694814475975
2073,740.926788034151
2073.25,746.745765906902
2073.5,751.858773570565
2073.75,753.535639209676
2074,752.329095853078
2074.25,749.205891149215
2074.5,745.097257272985
2074.75,740.858993559462
2075,737.337184417977
2075.25,735.365350074878
2075.5,735.75032766222
2075.75,739.282652900918
2076,745.410860882267
2076.25,751.086773400115
2076.5,753.022456195113
2076.75,750.177112472616
2077,745.180783781399
2077.25,740.983979999423
2077.5,739.14001824165
2077.75,738.84511629313
2078,739.079268348657
2078.25,739.46185350453
2078.5,740.602070410269
2078.75,743.168132519561
2079,746.671932277063
2079.25,749.032842952269
2079.5,748.117014900302
2079.75,744.096042400428
2080,740.059704167107
2080.25,739.204732770938
2080.5,741.839135637276
2080.75,744.65296131651
2081,744.230479686398
2081.25,740.631477974375
2081.5,737.794614187323
2081.75,739.702837016003
2082,746.258084036671
2082.25,753.039784594203
2082.5,755.620362385367
2082.75,753.675541884069
2083,750.715233671086
2083.25,750.281339439017
2083.5,753.342556030346
2083.75,758.334551604327
2084,763.610181979047
2084.25,768.063931092117
2084.5,771.123407322171
2084.75,772.265967993755
2085,771.722418086673
2085.25,770.555343388342
2085.5,769.852115594163
2085.75,769.873312905421
2086,769.729652388099
2086.25,768.458490073327
2086.5,766.039922166502
2086.75,764.077412644548
2087,764.327024101091
2087.25,767.205318389341
2087.5,770.288385982885
2087.75,770.793102712238
2088,767.086410767984
2088.25,760.390202254333
2088.5,752.361725800686
2088.75,744.390259107526
2089,737.016342864313
2089.25,730.61284556578
2089.5,725.407704524732
2089.75,721.153288028112
2090,717.504706924914
2090.25,714.188304105343
2090.5,711.11761395488
2090.75,708.235406675378
2091,705.370217591776
2091.25,702.140749068589
2091.5,698.157047643402
2091.75,693.472540745399
2092,688.666896095445
2092.25,684.306184556869
2092.5,680.377870199974
2092.75,676.462710464706
2093,672.245452213704
2093.25,668.044711918376
2093.5,664.399976195706
2093.75,661.569615814864
2094,659.152580258109
2094.25,656.670002230505
2094.5,653.985905097251
2094.75,651.287629057861
2095,648.756033249714
2095.25,646.465664061824
2095.5,644.452781962682
2095.75,642.623348053966
2096,640.654362365122
2096.25,638.237661619941
2096.5,635.449170297475
2096.75,632.587537673406
2097,630.02385358877
2097.25,628.310163053268
2097.5,627.961572068995
2097.75,628.561984120434
2098,629.006012050128
2098.25,628.622428068432
2098.5,628.067763279683
2098.75,628.166244289389
2099,628.546572625132
2099.25,627.884665619002
2099.5,625.413766100452
2099.75,622.235468380149
2100,619.757432154651
2100.25,618.22222773899
2100.5,616.88368012481
2100.75,615.308298820805
2101,614.150574125113
2101.25,614.174628145262
2101.5,614.64034876189
2101.75,613.6863355693
2102,611.095910954999
2102.25,610.890840586463
2102.5,616.571694528157
2102.75,619.381504701954
2103,603.509831219876
2103.25,603.58229551364
2103.5,603.654759807403
2103.75,603.727224101167
2104,603.799688394931
2104.25,603.872152688694
2104.5,603.944616982458
2104.75,604.017081276221
2105,604.089545569985
2105.25,604.162009863748
2105.5,604.234474157512
2105.75,604.306938451276
2106,604.379402745039
2106.25,604.451867038803
2106.5,604.524331332566
2106.75,604.59679562633
2107,604.669259920094
2107.25,604.741724213857
2107.5,604.814188507621
2107.75,604.886652801384
2108,604.959117095148
2108.25,605.031581388912
2108.5,605.104045682675
2108.75,605.176509976439
2109,605.248974270202
2109.25,605.321438563966
2109.5,605.39390285773
2109.75,605.466367151493
2110,605.538831445257
2110.25,605.61129573902
2110.5,605.683760032784
2110.75,605.756224326548
2111,605.828688620311
2111.25,605.901152914075
2111.5,605.973617207838
2111.75,606.046081501602
2112,606.118545795365
2112.25,606.191010089129
2112.5,606.263474382893
2112.75,606.335938676656
2113,606.40840297042
2113.25,606.480867264183
2113.5,606.553331557947
2113.75,606.625795851711
2114,606.698260145474
2114.25,606.770724439238
2114.5,606.843188733001
2114.75,606.915653026765
2115,606.988117320529
2115.25,607.060581614292
2115.5,607.133045908056
2115.75,607.205510201819
2116,607.277974495583
2116.25,607.350438789347
2116.5,607.42290308311
2116.75,607.495367376874
2117,607.567831670637
2117.25,607.640295964401
2117.5,607.712760258165
2117.75,607.785224551928
2118,607.857688845692
2118.25,607.930153139455
2118.5,608.002617433219
2118.75,608.075081726982
2119,608.147546020746
2119.25,608.22001031451
2119.5,608.292474608273
2119.75,608.364938902037
2120,608.4374031958
2120.25,608.509867489564
2120.5,608.582331783328
2120.75,608.654796077091
2121,608.727260370855
2121.25,608.799724664618
2121.5,608.872188958382
2121.75,608.944653252146
2122,609.017117545909
2122.25,609.089581839673
2122.5,609.162046133436
2122.75,609.2345104272
2123,609.306974720964
2123.25,609.379439014727
2123.5,609.451903308491
2123.75,609.524367602254
2124,609.596831896018
2124.25,609.669296189782
2124.5,609.741760483545
2124.75,609.814224777309
2125,609.886689071072
2125.25,609.959153364836
2125.5,610.0316176586
2125.75,610.104081952363
2126,610.176546246127
2126.25,610.24901053989
2126.5,610.321474833654
2126.75,610.393939127418
2127,610.466403421181
2127.25,610.538867714945
2127.5,610.611332008708
2127.75,610.683796302472
2128,610.756260596236
2128.25,610.828724889999
2128.5,610.901189183763
2128.75,610.973653477526
2129,611.04611777129
2129.25,611.118582065053
2129.5,611.191046358817
2129.75,611.263510652581
2130,611.335974946344
2130.25,611.408439240108
2130.5,611.480903533871
2130.75,611.553367827635
2131,611.625832121399
2131.25,611.698296415162
2131.5,611.770760708926
2131.75,611.843225002689
2132,611.915689296453
2132.25,611.988153590217
2132.5,612.06061788398
2132.75,612.133082177744
2133,612.205546471507
2133.25,612.278010765271
2133.5,612.350475059035
2133.75,612.422939352798
2134,612.495403646562
2134.25,612.567867940325
2134.5,612.640332234089
2134.75,612.712796527853
2135,612.785260821616
2135.25,612.85772511538
2135.5,612.930189409143
2135.75,613.002653702907
2136,613.075117996671
2136.25,613.147582290434
2136.5,613.220046584198
2136.75,613.292510877961
2137,613.364975171725
2137.25,613.437439465489
2137.5,613.509903759252
2137.75,613.582368053016
2138,613.654832346779
2138.25,613.727296640543
2138.5,613.799760934307
2138.75,613.87222522807
2139,613.944689521834
2139.25,614.017153815597
2139.5,614.089618109361
2139.75,614.162082403124
2140,614.234546696888
2140.25,614.307010990652
2140.5,614.379475284415
2140.75,614.451939578179
2141,614.524403871942
2141.25,614.596868165706
2141.5,614.66933245947
2141.75,614.741796753233
2142,614.814261046997
2142.25,614.88672534076
2142.5,614.959189634524
2142.75,615.031653928288
2143,615.104118222051
2143.25,615.176582515815
2143.5,615.249046809578
2143.75,615.321511103342
2144,615.393975397106
2144.25,615.466439690869
2144.5,615.538903984633
2144.75,615.611368278396
2145,615.68383257216
2145.25,615.756296865923
2145.5,615.828761159687
2145.75,615.901225453451
2146,615.973689747214
2146.25,616.046154040978
2146.5,616.118618334741
2146.75,616.191082628505
2147,616.263546922269
2147.25,616.336011216032
2147.5,616.408475509796
2147.75,616.480939803559
2148,616.553404097323
2148.25,616.625868391087
2148.5,616.69833268485
2148.75,616.770796978614
2149,616.843261272377
2149.25,616.915725566141
2149.5,616.988189859905
2149.75,617.060654153668
2150,617.133118447432
2150.25,617.205582741195
2150.5,617.278047034959
2150.75,617.350511328723
2151,617.422975622486
2151.25,617.49543991625
2151.5,617.567904210013
2151.75,617.640368503777
2152,617.712832797541
2152.25,617.785297091304
2152.5,617.857761385068
2152.75,617.930225678831
2153,618.002689972595
2153.25,618.075154266358
2153.5,618.147618560122
2153.75,618.220082853886
2154,618.292547147649
2154.25,618.365011441413
2154.5,618.437475735176
2154.75,618.50994002894
2155,618.582404322704
2155.25,618.654868616467
2155.5,618.727332910231
2155.75,618.799797203994
2156,618.872261497758
2156.25,618.944725791522
2156.5,619.017190085285
2156.75,619.089654379049
2157,619.162118672812
2157.25,619.234582966576
2157.5,619.30704726034
2157.75,619.379511554103
2158,619.451975847867
2158.25,619.52444014163
2158.5,619.596904435394
2158.75,619.669368729158
2159,619.741833022921
2159.25,619.814297316685
2159.5,619.886761610448
2159.75,619.959225904212
2160,620.031690197976
2160.25,620.104154491739
2160.5,620.176618785503
2160.75,620.249083079266
2161,620.32154737303
2161.25,620.394011666794
2161.5,620.466475960557
2161.75,620.538940254321
2162,620.611404548084
2162.25,620.683868841848
2162.5,620.756333135612
2162.75,620.828797429375
2163,620.901261723139
2163.25,620.973726016902
2163.5,621.046190310666
2163.75,621.118654604429
2164,621.191118898193
2164.25,621.263583191957
2164.5,621.33604748572
2164.75,621.408511779484
2165,621.480976073247
2165.25,621.553440367011
2165.5,621.625904660775
2165.75,621.698368954538
2166,621.770833248302
2166.25,621.843297542065
2166.5,621.915761835829
2166.75,621.988226129593
2167,622.060690423356
2167.25,622.13315471712
2167.5,622.205619010883
2167.75,622.278083304647
2168,622.350547598411
2168.25,622.423011892174
2168.5,622.495476185938
2168.75,622.567940479701
2169,622.640404773465
2169.25,622.712869067229
2169.5,622.785333360992
2169.75,622.857797654756
2170,622.930261948519
2170.25,623.002726242283
2170.5,623.075190536047
2170.75,623.14765482981
2171,623.220119123574
2171.25,623.292583417337
2171.5,623.365047711101
2171.75,623.437512004865
2172,623.509976298628
2172.25,623.582440592392
2172.5,623.654904886155
2172.75,623.727369179919
2173,623.799833473682
2173.25,623.872297767446
2173.5,623.94476206121
2173.75,624.017226354973
2174,624.089690648737
2174.25,624.1621549425
2174.5,624.234619236264
2174.75,624.307083530028
2175,624.379547823791
2175.25,624.452012117555
2175.5,624.524476411318
2175.75,624.596940705082
2176,624.669404998846
2176.25,624.741869292609
2176.5,624.814333586373
2176.75,624.886797880136
2177,624.9592621739
2177.25,625.031726467664
2177.5,625.104190761427
2177.75,625.176655055191
2178,625.249119348954
2178.25,625.321583642718
2178.5,625.394047936481
2178.75,625.466512230245
2179,625.538976524009
2179.25,625.611440817772
2179.5,625.683905111536
2179.75,625.756369405299
2180,625.828833699063
2180.25,625.901297992827
2180.5,625.97376228659
2180.75,626.046226580354
2181,626.118690874117
2181.25,626.191155167881
2181.5,626.263619461645
2181.75,626.336083755408
2182,626.408548049172
2182.25,626.481012342935
2182.5,626.553476636699
2182.75,626.625940930463
2183,626.698405224226
2183.25,626.77086951799
2183.5,626.843333811753
2183.75,626.915798105517
2184,626.988262399281
2184.25,627.060726693044
2184.5,627.133190986808
2184.75,627.205655280571
2185,627.278119574335
2185.25,627.350583868099
2185.5,627.423048161862
2185.75,627.495512455626
2186,627.567976749389
2186.25,627.640441043153
2186.5,627.712905336916
2186.75,627.78536963068
2187,627.857833924444
2187.25,627.930298218207
2187.5,628.002762511971
2187.75,628.075226805734
2188,628.147691099498
2188.25,628.220155393262
2188.5,628.292619687025
2188.75,628.365083980789
2189,628.437548274552
2189.25,628.510012568316
2189.5,628.58247686208
2189.75,628.654941155843
2190,628.727405449607
2190.25,628.79986974337
2190.5,628.872334037134
2190.75,628.944798330898
2191,629.017262624661
2191.25,629.089726918425
2191.5,629.162191212188
2191.75,629.234655505952
2192,629.307119799716
2192.25,629.379584093479
2192.5,629.452048387243
2192.75,629.524512681006
2193,629.59697697477
2193.25,629.669441268534
2193.5,629.741905562297
2193.75,629.814369856061
2194,629.886834149824
2194.25,629.959298443588
2194.5,630.031762737352
2194.75,630.104227031115
2195,630.176691324879
2195.25,630.249155618642
2195.5,630.321619912406
2195.75,630.39408420617
2196,630.466548499933
2196.25,630.539012793697
2196.5,630.61147708746
2196.75,630.683941381224
2197,630.756405674987
2197.25,630.828869968751
2197.5,630.901334262515
2197.75,630.973798556278
2198,631.046262850042
2198.25,631.118727143805
2198.5,631.191191437569
2198.75,631.263655731333
2199,631.336120025096
2199.25,631.40858431886
2199.5,631.481048612623
2199.75,631.553512906387
2200,631.625977200151
2200.25,631.698441493914
2200.5,631.770905787678
2200.75,631.843370081441
2201,631.915834375205
2201.25,631.988298668969
2201.5,632.060762962732
2201.75,632.133227256496
2202,632.205691550259
2202.25,632.278155844023
2202.5,632.350620137787
2202.75,632.42308443155
2203,632.495548725314
2203.25,632.568013019077
2203.5,632.640477312841
2203.75,632.712941606605
2204,632.785405900368
2204.25,632.857870194132
2204.5,632.930334487895
2204.75,633.002798781659
2205,633.075263075423
2205.25,633.147727369186
2205.5,633.22019166295
2205.75,633.292655956713
2206,633.365120250477
2206.25,633.43758454424
2206.5,633.510048838004
2206.75,633.582513131768
2207,633.654977425531
2207.25,633.727441719295
2207.5,633.799906013058
2207.75,633.872370306822
2208,633.944834600586
2208.25,634.017298894349
2208.5,634.089763188113
2208.75,634.162227481876
2209,634.23469177564
2209.25,634.307156069404
2209.5,634.379620363167
2209.75,634.452084656931
2210,634.524548950694
2210.25,634.597013244458
2210.5,634.669477538222
2210.75,634.741941831985
2211,634.814406125749
2211.25,634.886870419512
2211.5,634.959334713276
2211.75,635.031799007039
2212,635.104263300803
2212.25,635.176727594567
2212.5,635.24919188833
2212.75,635.321656182094
2213,635.394120475857
2213.25,635.466584769621
2213.5,635.539049063385
2213.75,635.611513357148
2214,635.683977650912
2214.25,635.756441944675
2214.5,635.828906238439
2214.75,635.901370532203
2215,635.973834825966
2215.25,636.04629911973
2215.5,636.118763413493
2215.75,636.191227707257
2216,636.263692001021
2216.25,636.336156294784
2216.5,636.408620588548
2216.75,636.481084882311
2217,636.553549176075
2217.25,636.626013469839
2217.5,636.698477763602
2217.75,636.770942057366
2218,636.843406351129
2218.25,636.915870644893
2218.5,636.988334938657
2218.75,637.06079923242
2219,637.133263526184
2219.25,637.205727819947
2219.5,637.278192113711
2219.75,637.350656407475
2220,637.423120701238
2220.25,637.495584995002
2220.5,637.568049288765
2220.75,637.640513582529
2221,637.712977876292
2221.25,637.785442170056
2221.5,637.85790646382
2221.75,637.930370757583
2222,638.002835051347
2222.25,638.07529934511
2222.5,638.147763638874
2222.75,638.220227932638
2223,638.292692226401
2223.25,638.365156520165
2223.5,638.437620813928
2223.75,638.510085107692
2224,638.582549401456
2224.25,638.655013695219
2224.5,638.727477988983
2224.75,638.799942282746
2225,638.87240657651
2225.25,638.944870870274
2225.5,639.017335164037
2225.75,639.089799457801
2226,639.162263751564
2226.25,639.234728045328
2226.5,639.307192339092
2226.75,639.379656632855
2227,639.452120926619
2227.25,639.524585220382
2227.5,639.597049514146
2227.75,639.66951380791
2228,639.741978101673
2228.25,639.814442395437
2228.5,639.8869066892
2228.75,639.959370982964
2229,640.031835276728
2229.25,640.104299570491
2229.5,640.176763864255
2229.75,640.249228158018
2230,640.321692451782
2230.25,640.394156745546
2230.5,640.466621039309
2230.75,640.539085333073
2231,640.611549626836
2231.25,640.6840139206
2231.5,640.756478214363
2231.75,640.828942508127
2232,640.901406801891
2232.25,640.973871095654
2232.5,641.046335389418
2232.75,641.118799683181
2233,641.191263976945
2233.25,641.263728270709
2233.5,641.336192564472
2233.75,641.408656858236
2234,641.481121151999
2234.25,641.553585445763
2234.5,641.626049739527
2234.75,641.69851403329
2235,641.770978327054
2235.25,641.843442620817
2235.5,641.915906914581
2235.75,641.988371208345
2236,642.060835502108
2236.25,642.133299795872
2236.5,642.205764089635
2236.75,642.278228383399
2237,642.350692677163
2237.25,642.423156970926
2237.5,642.49562126469
2237.75,642.568085558453
2238,642.640549852217
2238.25,642.713014145981
2238.5,642.785478439744
2238.75,642.857942733508
2239,642.930407027271
2239.25,643.002871321035
2239.5,643.075335614798
2239.75,643.147799908562
2240,643.220264202326
2240.25,643.292728496089
2240.5,643.365192789853
2240.75,643.437657083616
2241,643.51012137738
2241.25,643.582585671144
2241.5,643.655049964907
2241.75,643.727514258671
2242,643.799978552434
2242.25,643.872442846198
2242.5,643.944907139962
2242.75,644.017371433725
2243,644.089835727489
2243.25,644.162300021252
2243.5,644.234764315016
2243.75,644.30722860878
2244,644.379692902543
2244.25,644.452157196307
2244.5,644.52462149007
2244.75,644.597085783834
2245,644.669550077597
2245.25,644.742014371361
2245.5,644.814478665125
2245.75,644.886942958888
2246,644.959407252652
2246.25,645.031871546415
2246.5,645.104335840179
2246.75,645.176800133943
2247,645.249264427706
2247.25,645.32172872147
2247.5,645.394193015233
2247.75,645.466657308997
2248,645.539121602761
2248.25,645.611585896524
2248.5,645.684050190288
2248.75,645.756514484051
2249,645.828978777815
2249.25,645.901443071579
2249.5,645.973907365342
2249.75,646.046371659106
2250,646.118835952869
2250.25,646.191300246633
2250.5,646.263764540397
2250.75,646.33622883416
2251,646.408693127924
2251.25,646.481157421687
2251.5,646.553621715451
2251.75,646.626086009215
2252,646.698550302978
2252.25,646.771014596742
2252.5,646.843478890505
2252.75,646.915943184269
2253,646.988407478033
2253.25,647.060871771796
2253.5,647.13333606556
2253.75,647.205800359323
2254,647.278264653087
2254.25,647.350728946851
2254.5,647.423193240614
2254.75,647.495657534378
2255,647.568121828141
2255.25,647.640586121905
2255.5,647.713050415668
2255.75,647.785514709432
2256,647.857979003196
2256.25,647.930443296959
2256.5,648.002907590723
2256.75,648.075371884486
2257,648.14783617825
2257.25,648.220300472014
2257.5,648.292764765777
2257.75,648.365229059541
2258,648.437693353304
2258.25,648.510157647068
2258.5,648.582621940832
2258.75,648.655086234595
2259,648.727550528359
2259.25,648.800014822122
2259.5,648.872479115886
2259.75,648.94494340965
2260,649.017407703413
2260.25,649.089871997177
2260.5,649.16233629094
2260.75,649.234800584704
2261,649.307264878468
2261.25,649.379729172231
2261.5,649.452193465995
2261.75,649.524657759758
2262,649.597122053522
2262.25,649.669586347286
2262.5,649.742050641049
2262.75,649.814514934813
2263,649.886979228576
2263.25,649.95944352234
2263.5,650.031907816104
2263.75,650.104372109867
2264,650.176836403631
2264.25,650.249300697394
2264.5,650.321764991158
2264.75,650.394229284921
2265,650.466693578685
2265.25,650.539157872449
2265.5,648.760803932939
2265.75,647.799682534238
2266,648.036137219338
2266.25,648.825469319095
2266.5,649.479809740141
2266.75,649.565964375144
2267,648.77275987138
2267.25,647.320967129733
2267.5,646.663070164341
2267.75,648.275099102072
2268,651.292008880617
2268.25,653.000328787384
2268.5,651.580474024648
2268.75,648.962629212195
2269,647.95685289114
2269.25,649.278732704627
2269.5,650.853537094932
2269.75,650.781183887374
2270,649.897115716939
2270.25,650.264521113057
2270.5,653.116845331026
2270.75,657.793923015957
2271,663.26359516123
2271.25,666.793073506391
2271.5,664.321369302285
2271.75,654.604912830044
2272,649.480555935736
2272.25,664.229837777172
2272.5,690.484265545413
2272.75,679.630949932066
2273,678.874621947245
2273.25,678.118293962423
2273.5,677.361965977601
2273.75,676.60563799278
2274,675.849310007958
2274.25,675.092982023136
2274.5,674.336654038314
2274.75,673.580326053493
2275,672.823998068671
2275.25,672.067670083849
2275.5,671.311342099027
2275.75,670.555014114206
2276,669.798686129384
2276.25,669.042358144562
2276.5,668.28603015974
2276.75,667.529702174919
2277,666.773374190097
2277.25,666.017046205275
2277.5,665.260718220453
2277.75,664.504390235632
2278,663.74806225081
2278.25,662.991734265988
2278.5,662.235406281166
2278.75,661.479078296345
2279,660.722750311523
2279.25,659.966422326701
2279.5,659.21009434188
2279.75,658.453766357058
2280,657.697438372236
2280.25,656.941110387414
2280.5,656.184782402593
2280.75,655.428454417771
2281,654.672126432949
2281.25,653.915798448127
2281.5,653.159470463306
2281.75,652.403142478484
2282,651.646814493662
2282.25,650.89048650884
2282.5,650.134158524019
2282.75,649.377830539197
2283,648.621502554375
2283.25,647.865174569553
2283.5,647.108846584732
2283.75,646.35251859991
2284,645.596190615088
2284.25,644.839862630267
2284.5,644.083534645445
2284.75,643.327206660623
2285,642.570878675801
2285.25,641.81455069098
2285.5,641.058222706158
2285.75,640.301894721336
2286,639.545566736514
2286.25,638.789238751693
2286.5,640.130176645112
2286.75,640.333923037565
2287,639.723329844259
2287.25,638.474577822807
2287.5,636.537270369407
2287.75,633.954785963145
2288,631.676376283646
2288.25,631.07969218518
2288.5,632.573454003708
2288.75,634.579331659245
2289,635.424772437395
2289.25,634.93334040738
2289.5,633.793788835174
2289.75,632.650111542139
2290,632.011023985332
2290.25,632.29473159561
2290.5,632.989197912419
2290.75,632.923712175677
2291,631.547695397304
2291.25,630.176061171314
2291.5,630.359406892633
2291.75,631.873743677779
2292,633.022676594826
2292.25,632.70445121214
2292.5,632.009334279839
2292.75,632.442013242093
2293,634.349174530657
2293.25,636.976911714981
2293.5,639.559314115617
2293.75,641.460062227801
2294,642.099930974016
2294.25,641.626825430117
2294.5,641.031267007305
2294.75,641.077586348897
2295,640.936921710064
2295.25,639.224126392237
2295.5,635.924012358914
2295.75,633.273411569054
2296,633.357500323739
2296.25,635.135879142567
2296.5,635.974096755116
2296.75,634.576032344477
2297,632.499593725534
2297.25,631.513957821095
2297.5,631.687887817095
2297.75,632.020169592122
2298,631.914395418755
2298.25,631.864888548395
2298.5,632.477361816674
2298.75,633.488966569491
2299,634.002362117488
2299.25,633.466204581084
2299.5,632.426401351733
2299.75,631.629020330991
2300,631.679295636218
2300.25,633.060715892287
2300.5,635.883611464243
2300.75,638.899901808945
2301,640.600390803128
2301.25,640.678339215392
2301.5,640.042516620442
2301.75,639.458393198841
2302,638.735017910405
2302.25,637.40139981813
2302.5,635.416079622544
2302.75,633.332244816014
2303,631.681353683277
2303.25,630.547184203909
2303.5,629.825684381266
2303.75,629.389693682373
2304,629.073127429471
2304.25,628.722277884858
2304.5,628.314982673788
2304.75,627.892711458351
2305,627.48470927683
2305.25,627.096069084345
2305.5,626.699337393875
2305.75,626.002248068192
2306,624.578686866786
2306.25,622.662880325392
2306.5,621.824065619758
2306.75,623.475597325664
2307,626.144638513393
2307.25,626.831032093808
2307.5,624.536140845336
2307.75,622.196884591155
2308,622.805425712302
2308.25,625.758359488639
2308.5,628.557414205157
2308.75,629.516862479439
2309,628.552922310031
2309.25,625.875835440737
2309.5,622.69696972348
2309.75,620.749378539052
2310,620.590097245638
2310.25,620.341086637655
2310.5,618.131096109256
2310.75,614.816122195231
2311,612.665710208905
2311.25,612.604412670447
2311.5,613.021767033438
2311.75,612.30622145127
2312,610.810653655029
2312.25,609.721890719436
2312.5,609.409028098309
2312.75,609.056764950236
2313,607.975708296294
2313.25,606.585246329999
2313.5,605.631824163661
2313.75,605.257773685591
2314,604.97613577998
2314.25,604.379555617445
2314.5,603.42464044601
2314.75,602.178032990153
2315,601.143816525321
2315.25,601.124782538598
2315.5,602.341709784473
2315.75,603.803537812773
2316,604.504541152075
2316.25,604.3605071324
2316.5,603.673282668497
2316.75,602.769240966305
2317,602.004256227024
2317.25,601.602883235771
2317.5,601.244797099793
2317.75,600.506446588797
2318,599.538070992112
2318.25,598.948500652561
2318.5,598.991686494325
2318.75,599.054985436244
2319,598.542548584569
2319.25,597.95750435545
2319.5,598.295756574771
2319.75,599.668120030394
2320,600.996992546163
2320.25,601.405059359004
2320.5,601.159463762624
2320.75,600.805122785916
2321,600.714988882737
2321.25,601.12563511036
2321.5,601.912887480772
2321.75,602.130252872141
2322,600.985381603494
2322.25,599.77762300831
2322.5,600.738203838054
2322.75,604.0314230388
2323,606.959764113881
2323.25,607.374949833972
2323.5,606.381146376466
2323.75,605.877879084521
2324,606.357905927991
2324.25,607.075849152326
2324.5,607.309734673526
2324.75,606.519106087896
2325,604.31159070575
2325.25,601.515601637378
2325.5,599.676644983236
2325.75,599.466549241821
2326,599.946091133329
2326.25,600.112389101418
2326.5,599.595108552768
2326.75,598.278458852322
2327,596.682484061023
2327.25,596.008880291223
2327.5,596.964344253489
2327.75,598.575490079047
2328,599.609382182573
2328.25,599.610768809463
2328.5,598.597133840098
2328.75,597.012604189784
2329,596.019261443743
2329.25,596.52156045662
2329.5,597.656650811824
2329.75,598.02679720519
2330,597.464626947259
2330.25,596.979288899933
2330.5,597.345126954587
2330.75,598.557951381205
2331,600.426028570236
2331.25,602.264282709795
2331.5,603.13958321321
2331.75,602.968338172669
2332,602.959985356291
2332.25,604.022877138932
2332.5,605.040630331966
2332.75,604.353553187904
2333,602.040300739301
2333.25,599.840951460444
2333.5,598.983808613633
2333.75,598.965313389824
2334,599.017234349425
2334.25,598.9772435559
2334.5,599.042194173672
2334.75,599.349869342071
2335,599.930267647794
2335.25,600.765687894992
2335.5,601.639927998356
2335.75,602.282242906989
2336,602.673274700525
2336.25,603.041484357332
2336.5,603.520127316734
2336.75,603.926006702912
2337,604.046224050994
2337.25,603.985819820016
2337.5,604.043502233834
2337.75,604.382830929704
2338,604.913329517685
2338.25,605.634383387039
2338.5,607.276766479799
2338.75,610.768931779366
2339,610.84728287166
2339.25,610.925633963955
2339.5,611.003985056249
2339.75,611.082336148544
2340,611.160687240838
2340.25,611.239038333132
2340.5,611.317389425427
2340.75,611.395740517721
2341,611.474091610015
2341.25,611.55244270231
2341.5,611.630793794604
2341.75,611.709144886899
2342,611.787495979193
2342.25,611.865847071487
2342.5,611.944198163782
2342.75,612.022549256076
2343,612.10090034837
2343.25,612.179251440665
2343.5,612.257602532959
2343.75,612.335953625254
2344,612.414304717548
2344.25,612.492655809843
2344.5,612.571006902137
2344.75,612.649357994431
2345,612.727709086726
2345.25,612.80606017902
2345.5,612.884411271314
2345.75,612.962762363609
2346,613.041113455903
2346.25,613.119464548198
2346.5,613.197815640492
2346.75,613.276166732786
2347,613.354517825081
2347.25,613.432868917375
2347.5,613.51122000967
2347.75,613.589571101964
2348,613.667922194258
2348.25,613.746273286553
2348.5,613.824624378847
2348.75,613.902975471141
2349,613.981326563436
2349.25,614.05967765573
2349.5,614.138028748025
2349.75,614.216379840319
2350,614.294730932613
2350.25,614.373082024908
2350.5,614.451433117202
2350.75,614.529784209496
2351,614.608135301791
2351.25,614.686486394085
2351.5,614.76483748638
2351.75,614.843188578674
2352,614.921539670969
2352.25,614.999890763263
2352.5,615.078241855557
2352.75,615.156592947852
2353,615.234944040146
2353.25,615.31329513244
2353.5,615.391646224735
2353.75,615.469997317029
2354,615.548348409324
2354.25,615.626699501618
2354.5,615.705050593912
2354.75,615.783401686207
2355,615.861752778501
2355.25,615.940103870796
2355.5,616.01845496309
2355.75,616.096806055384
2356,616.175157147679
2356.25,616.253508239973
2356.5,616.331859332267
2356.75,616.410210424562
2357,616.488561516856
2357.25,616.566912609151
2357.5,616.645263701445
2357.75,616.723614793739
2358,616.801965886034
2358.25,616.880316978328
2358.5,616.958668070622
2358.75,617.037019162917
2359,617.115370255211
2359.25,617.193721347506
2359.5,617.2720724398
2359.75,617.350423532094
2360,617.428774624389
2360.25,617.507125716683
2360.5,617.585476808978
2360.75,617.663827901272
2361,617.742178993566
2361.25,617.820530085861
2361.5,617.898881178155
2361.75,617.97723227045
2362,618.055583362744
2362.25,618.133934455038
2362.5,618.212285547333
2362.75,618.290636639627
2363,618.368987731921
2363.25,618.447338824216
2363.5,618.52568991651
2363.75,618.604041008805
2364,618.682392101099
2364.25,618.760743193393
2364.5,618.839094285688
2364.75,618.917445377982
2365,618.995796470277
2365.25,619.074147562571
2365.5,619.152498654865
2365.75,619.23084974716
2366,619.309200839454
2366.25,619.387551931748
2366.5,619.465903024043
2366.75,619.544254116337
2367,619.622605208632
2367.25,619.700956300926
2367.5,619.77930739322
2367.75,619.857658485515
2368,619.936009577809
2368.25,620.014360670104
2368.5,620.092711762398
2368.75,620.171062854692
2369,620.249413946987
2369.25,620.327765039281
2369.5,620.406116131576
2369.75,620.48446722387
2370,620.562818316164
2370.25,620.641169408459
2370.5,620.719520500753
2370.75,620.797871593047
2371,620.876222685342
2371.25,620.954573777636
2371.5,621.032924869931
2371.75,621.111275962225
2372,621.189627054519
2372.25,621.267978146814
2372.5,621.346329239108
2372.75,621.424680331403
2373,621.503031423697
2373.25,621.581382515991
2373.5,621.659733608286
2373.75,621.73808470058
2374,621.816435792874
2374.25,621.894786885169
2374.5,621.973137977463
2374.75,622.051489069758
2375,622.129840162052
2375.25,622.208191254346
2375.5,622.286542346641
2375.75,622.364893438935
2376,622.44324453123
2376.25,622.521595623524
2376.5,622.599946715818
2376.75,622.678297808113
2377,622.756648900407
2377.25,622.834999992702
2377.5,622.913351084996
2377.75,622.99170217729
2378,623.070053269585
2378.25,623.148404361879
2378.5,623.226755454173
2378.75,623.305106546468
2379,623.383457638762
2379.25,623.461808731057
2379.5,623.540159823351
2379.75,623.618510915645
2380,623.69686200794
2380.25,623.775213100234
2380.5,623.853564192529
2380.75,623.931915284823
2381,624.010266377117
2381.25,624.088617469412
2381.5,624.166968561706
2381.75,624.245319654
2382,624.323670746295
2382.25,624.402021838589
2382.5,624.480372930884
2382.75,624.558724023178
2383,624.637075115472
2383.25,624.715426207767
2383.5,624.793777300061
2383.75,624.872128392356
2384,624.95047948465
2384.25,625.028830576944
2384.5,625.107181669239
2384.75,625.185532761533
2385,625.263883853827
2385.25,625.342234946122
2385.5,625.420586038416
2385.75,625.498937130711
2386,625.577288223005
2386.25,625.655639315299
2386.5,625.733990407594
2386.75,625.812341499888
2387,625.890692592183
2387.25,625.969043684477
2387.5,626.047394776771
2387.75,626.125745869066
2388,626.20409696136
2388.25,626.282448053655
2388.5,626.360799145949
2388.75,626.439150238243
2389,626.517501330538
2389.25,626.595852422832
2389.5,626.674203515126
2389.75,626.752554607421
2390,626.830905699715
2390.25,626.90925679201
2390.5,626.987607884304
2390.75,627.065958976598
2391,627.144310068893
2391.25,627.222661161187
2391.5,627.301012253482
2391.75,627.379363345776
2392,627.45771443807
2392.25,627.536065530365
2392.5,627.614416622659
2392.75,627.692767714953
2393,627.771118807248
2393.25,627.849469899542
2393.5,627.927820991837
2393.75,628.006172084131
2394,628.084523176425
2394.25,628.16287426872
2394.5,628.241225361014
2394.75,628.319576453309
2395,628.397927545603
2395.25,628.476278637897
2395.5,628.554629730192
2395.75,628.632980822486
2396,628.711331914781
2396.25,628.789683007075
2396.5,628.868034099369
2396.75,628.946385191664
2397,629.024736283958
2397.25,629.103087376252
2397.5,629.181438468547
2397.75,629.259789560841
2398,629.338140653136
2398.25,629.41649174543
2398.5,629.494842837724
2398.75,629.573193930019
2399,629.651545022313
2399.25,629.729896114608
2399.5,629.808247206902
2399.75,629.886598299196
2400,629.964949391491
2400.25,630.043300483785
2400.5,630.121651576079
2400.75,630.200002668374
2401,630.278353760668
2401.25,630.356704852963
2401.5,630.435055945257
2401.75,630.513407037551
2402,630.591758129846
2402.25,630.67010922214
2402.5,630.748460314435
2402.75,630.826811406729
2403,630.905162499023
2403.25,630.983513591318
2403.5,631.061864683612
2403.75,631.140215775907
2404,631.218566868201
2404.25,631.296917960495
2404.5,631.37526905279
2404.75,631.453620145084
2405,631.531971237378
2405.25,631.610322329673
2405.5,631.688673421967
2405.75,631.767024514262
2406,631.845375606556
2406.25,631.92372669885
2406.5,632.002077791145
2406.75,632.080428883439
2407,632.158779975734
2407.25,632.237131068028
2407.5,632.315482160322
2407.75,632.393833252617
2408,632.472184344911
2408.25,632.550535437205
2408.5,632.6288865295
2408.75,632.707237621794
2409,632.785588714089
2409.25,632.863939806383
2409.5,632.942290898677
2409.75,633.020641990972
2410,633.098993083266
2410.25,633.177344175561
2410.5,633.255695267855
2410.75,633.334046360149
2411,633.412397452444
2411.25,633.490748544738
2411.5,633.569099637033
2411.75,633.647450729327
2412,633.725801821621
2412.25,633.804152913916
2412.5,633.88250400621
2412.75,633.960855098504
2413,634.039206190799
2413.25,634.117557283093
2413.5,634.195908375388
2413.75,634.274259467682
2414,634.352610559976
2414.25,634.430961652271
2414.5,634.509312744565
2414.75,634.58766383686
2415,634.666014929154
2415.25,634.744366021448
2415.5,634.822717113743
2415.75,634.901068206037
2416,634.979419298331
2416.25,635.057770390626
2416.5,635.13612148292
2416.75,635.214472575215
2417,635.292823667509
2417.25,635.371174759803
2417.5,635.449525852098
2417.75,635.527876944392
2418,635.606228036687
2418.25,635.684579128981
2418.5,635.762930221275
2418.75,635.84128131357
2419,635.919632405864
2419.25,635.997983498158
2419.5,636.076334590453
2419.75,636.154685682747
2420,636.233036775042
2420.25,636.311387867336
2420.5,636.38973895963
2420.75,636.468090051925
2421,636.546441144219
2421.25,636.624792236514
2421.5,636.703143328808
2421.75,636.781494421102
2422,636.859845513397
2422.25,636.938196605691
2422.5,637.016547697986
2422.75,637.09489879028
2423,637.173249882574
2423.25,637.251600974869
2423.5,637.329952067163
2423.75,637.408303159457
2424,637.486654251752
2424.25,637.565005344046
2424.5,637.643356436341
2424.75,637.721707528635
2425,637.800058620929
2425.25,637.878409713224
2425.5,637.956760805518
2425.75,638.035111897813
2426,638.113462990107
2426.25,638.191814082401
2426.5,638.270165174696
2426.75,638.34851626699
2427,638.426867359284
2427.25,638.505218451579
2427.5,638.583569543873
2427.75,638.661920636168
2428,638.740271728462
2428.25,638.818622820756
2428.5,638.896973913051
2428.75,638.975325005345
2429,639.05367609764
2429.25,639.132027189934
2429.5,639.210378282228
2429.75,639.288729374523
2430,639.367080466817
2430.25,639.445431559112
2430.5,639.523782651406
2430.75,639.6021337437
2431,639.680484835995
2431.25,639.758835928289
2431.5,639.837187020583
2431.75,639.915538112878
2432,639.993889205172
2432.25,640.072240297467
2432.5,640.150591389761
2432.75,640.228942482055
2433,640.30729357435
2433.25,640.385644666644
2433.5,640.463995758938
2433.75,640.542346851233
2434,640.620697943527
2434.25,640.699049035822
2434.5,640.777400128116
2434.75,640.85575122041
2435,640.934102312705
2435.25,641.012453404999
2435.5,641.090804497294
2435.75,641.169155589588
2436,641.247506681882
2436.25,641.325857774177
2436.5,641.404208866471
2436.75,641.482559958765
2437,641.56091105106
2437.25,641.639262143354
2437.5,641.717613235649
2437.75,641.795964327943
2438,641.874315420238
2438.25,641.952666512532
2438.5,642.031017604826
2438.75,642.109368697121
2439,642.187719789415
2439.25,642.266070881709
2439.5,642.344421974004
2439.75,642.422773066298
2440,642.501124158593
2440.25,642.579475250887
2440.5,642.657826343181
2440.75,642.736177435476
2441,642.81452852777
2441.25,642.892879620064
2441.5,642.971230712359
2441.75,643.049581804653
2442,643.127932896948
2442.25,643.206283989242
2442.5,643.284635081536
2442.75,643.362986173831
2443,643.441337266125
2443.25,643.51968835842
2443.5,643.598039450714
2443.75,643.676390543008
2444,643.754741635303
2444.25,643.833092727597
2444.5,643.911443819891
2444.75,643.989794912186
2445,644.06814600448
2445.25,644.146497096775
2445.5,644.224848189069
2445.75,644.303199281364
2446,644.381550373658
2446.25,644.459901465952
2446.5,644.538252558247
2446.75,644.616603650541
2447,644.694954742835
2447.25,644.77330583513
2447.5,644.851656927424
2447.75,644.930008019719
2448,645.008359112013
2448.25,645.086710204307
2448.5,645.165061296602
2448.75,645.243412388896
2449,645.32176348119
2449.25,645.400114573485
2449.5,645.478465665779
2449.75,645.556816758074
2450,645.635167850368
2450.25,645.713518942662
2450.5,645.791870034957
2450.75,645.870221127251
2451,645.948572219546
2451.25,646.02692331184
2451.5,646.105274404134
2451.75,646.183625496429
2452,646.261976588723
2452.25,646.340327681017
2452.5,646.418678773312
2452.75,646.497029865606
2453,646.575380957901
2453.25,646.653732050195
2453.5,646.732083142489
2453.75,646.810434234784
2454,646.888785327078
2454.25,646.967136419373
2454.5,647.045487511667
2454.75,647.123838603961
2455,647.202189696256
2455.25,647.28054078855
2455.5,647.358891880845
2455.75,647.437242973139
2456,647.515594065433
2456.25,647.593945157728
2456.5,647.672296250022
2456.75,647.750647342316
2457,647.828998434611
2457.25,647.907349526905
2457.5,647.9857006192
2457.75,648.064051711494
2458,648.142402803788
2458.25,648.220753896083
2458.5,648.299104988377
2458.75,648.377456080672
2459,648.455807172966
2459.25,648.53415826526
2459.5,648.612509357555
2459.75,648.690860449849
2460,648.769211542143
2460.25,648.847562634438
2460.5,648.925913726732
2460.75,649.004264819027
2461,649.082615911321
2461.25,649.160967003615
2461.5,649.23931809591
2461.75,649.317669188204
2462,649.396020280499
2462.25,649.474371372793
2462.5,649.552722465087
2462.75,649.631073557382
2463,649.709424649676
2463.25,649.787775741971
2463.5,649.866126834265
2463.75,649.944477926559
2464,650.022829018854
2464.25,650.101180111148
2464.5,650.179531203442
2464.75,650.257882295737
2465,650.336233388031
2465.25,650.414584480326
2465.5,650.49293557262
2465.75,650.571286664914
2466,650.649637757209
2466.25,650.727988849503
2466.5,650.806339941798
2466.75,650.884691034092
2467,650.963042126386
2467.25,651.041393218681
2467.5,651.119744310975
2467.75,651.198095403269
2468,651.276446495564
2468.25,651.354797587858
2468.5,651.433148680153
2468.75,651.511499772447
2469,651.589850864741
2469.25,651.668201957036
2469.5,651.74655304933
2469.75,651.824904141625
2470,651.903255233919
2470.25,651.981606326213
2470.5,652.059957418508
2470.75,652.138308510802
2471,652.216659603097
2471.25,652.295010695391
2471.5,652.373361787685
2471.75,652.45171287998
2472,652.530063972274
2472.25,652.608415064568
2472.5,652.686766156863
2472.75,652.765117249157
2473,652.843468341452
2473.25,652.921819433746
2473.5,653.00017052604
2473.75,653.078521618335
2474,653.156872710629
2474.25,653.235223802924
2474.5,653.313574895218
2474.75,653.391925987512
2475,653.470277079807
2475.25,653.548628172101
2475.5,653.626979264395
2475.75,653.70533035669
2476,653.783681448984
2476.25,653.862032541279
2476.5,653.940383633573
2476.75,654.018734725867
2477,654.097085818162
2477.25,654.175436910456
2477.5,654.253788002751
2477.75,654.332139095045
2478,654.410490187339
2478.25,654.488841279634
2478.5,654.567192371928
2478.75,654.645543464222
2479,654.723894556517
2479.25,654.802245648811
2479.5,654.880596741106
2479.75,654.9589478334
2480,655.037298925694
2480.25,655.115650017989
2480.5,655.194001110283
2480.75,655.272352202578
2481,655.350703294872
2481.25,655.429054387166
2481.5,655.507405479461
2481.75,655.585756571755
2482,655.66410766405
2482.25,655.742458756344
2482.5,655.820809848638
2482.75,655.899160940933
2483,655.977512033227
2483.25,656.055863125521
2483.5,656.134214217816
2483.75,656.21256531011
2484,656.290916402405
2484.25,656.369267494699
2484.5,656.447618586993
2484.75,656.525969679288
2485,656.604320771582
2485.25,656.682671863877
2485.5,656.761022956171
2485.75,656.839374048465
2486,656.91772514076
2486.25,656.996076233054
2486.5,657.074427325348
2486.75,657.152778417643
2487,657.231129509937
2487.25,657.309480602232
2487.5,657.387831694526
2487.75,657.46618278682
2488,657.544533879115
2488.25,657.622884971409
2488.5,657.701236063704
2488.75,657.779587155998
2489,657.857938248292
2489.25,657.936289340587
2489.5,658.014640432881
2489.75,658.092991525176
2490,658.17134261747
2490.25,658.249693709764
2490.5,658.328044802059
2490.75,658.406395894353
2491,658.484746986647
2491.25,658.563098078942
2491.5,658.641449171236
2491.75,658.719800263531
2492,658.798151355825
2492.25,658.876502448119
2492.5,658.954853540414
2492.75,659.033204632708
2493,659.111555725003
2493.25,659.189906817297
2493.5,659.268257909591
2493.75,659.346609001886
2494,659.42496009418
2494.25,659.503311186474
2494.5,659.581662278769
2494.75,659.660013371063
2495,659.738364463358
2495.25,659.816715555652
2495.5,659.895066647946
2495.75,659.973417740241
2496,660.051768832535
2496.25,660.13011992483
2496.5,660.208471017124
2496.75,660.286822109418
2497,660.365173201713
2497.25,660.443524294007
2497.5,660.521875386302
2497.75,660.600226478596
2498,660.67857757089
2498.25,660.756928663185
2498.5,660.835279755479
2498.75,660.913630847773
2499,660.991981940068
2499.25,661.070333032362
2499.5,661.148684124657
2499.75,661.227035216951
2500,661.305386309245
2500.25,661.38373740154
2500.5,661.462088493834
2500.75,661.540439586129
2501,659.734901083348
2501.25,660.423854720257
2501.5,662.891868134952
2501.75,666.210755393466
2502,669.091114479617
2502.25,670.001802645585
2502.5,668.494991937531
2502.75,668.513840261809
2503,674.995460285708
2503.25,685.16532460012
2503.5,684.970847366104
2503.75,684.776370132088
2504,684.581892898073
2504.25,684.387415664057
2504.5,684.192938430041
2504.75,683.998461196025
2505,683.803983962009
2505.25,683.609506727994
2505.5,683.415029493978
2505.75,683.220552259962
2506,683.026075025946
2506.25,682.83159779193
2506.5,682.637120557914
2506.75,682.442643323899
2507,682.248166089883
2507.25,682.053688855867
2507.5,681.859211621851
2507.75,681.664734387835
2508,681.470257153819
2508.25,681.275779919804
2508.5,681.081302685788
2508.75,680.886825451772
2509,680.692348217756
2509.25,680.49787098374
2509.5,680.303393749724
2509.75,680.108916515709
2510,679.914439281693
2510.25,679.719962047677
2510.5,679.525484813661
2510.75,679.331007579645
2511,679.136530345629
2511.25,678.942053111614
2511.5,678.747575877598
2511.75,678.553098643582
2512,678.358621409566
2512.25,678.16414417555
2512.5,677.969666941535
2512.75,677.775189707519
2513,677.580712473503
2513.25,677.386235239487
2513.5,677.191758005471
2513.75,676.997280771455
2514,676.80280353744
2514.25,676.608326303424
2514.5,676.413849069408
2514.75,676.219371835392
2515,676.024894601376
2515.25,675.83041736736
2515.5,675.635940133345
2515.75,675.441462899329
2516,675.246985665313
2516.25,675.052508431297
2516.5,674.858031197281
2516.75,674.663553963265
2517,674.46907672925
2517.25,674.274599495234
2517.5,674.080122261218
2517.75,673.885645027202
2518,673.691167793186
2518.25,673.49669055917
2518.5,673.302213325155
2518.75,673.107736091139
2519,672.913258857123
2519.25,672.718781623107
2519.5,672.524304389091
2519.75,672.329827155076
2520,672.13534992106
2520.25,671.940872687044
2520.5,671.746395453028
2520.75,671.551918219012
2521,671.357440984996
2521.25,671.162963750981
2521.5,670.968486516965
2521.75,670.774009282949
2522,670.579532048933
2522.25,670.385054814917
2522.5,670.190577580902
2522.75,669.996100346886
2523,669.80162311287
2523.25,669.607145878854
2523.5,669.412668644838
2523.75,669.218191410822
2524,669.023714176806
2524.25,668.829236942791
2524.5,668.634759708775
2524.75,668.440282474759
2525,668.245805240743
2525.25,668.051328006727
2525.5,667.856850772711
2525.75,667.662373538696
2526,667.46789630468
2526.25,667.273419070664
2526.5,667.078941836648
2526.75,666.884464602632
2527,666.689987368617
2527.25,666.495510134601
2527.5,666.301032900585
2527.75,666.106555666569
2528,665.912078432553
2528.25,665.717601198537
2528.5,665.523123964522
2528.75,665.328646730506
2529,665.13416949649
2529.25,664.939692262474
2529.5,664.745215028458
2529.75,664.550737794443
2530,664.356260560427
2530.25,664.161783326411
2530.5,663.967306092395
2530.75,663.772828858379
2531,663.578351624363
2531.25,663.383874390348
2531.5,663.189397156332
2531.75,662.994919922316
2532,662.8004426883
2532.25,662.605965454284
2532.5,662.411488220268
2532.75,662.217010986253
2533,662.022533752237
2533.25,661.828056518221
2533.5,661.633579284205
2533.75,661.439102050189
2534,661.244624816173
2534.25,661.050147582158
2534.5,660.201658918787
2534.75,663.714328237696
2535,668.964823407713
2535.25,672.774611615556
2535.5,673.989652506698
2535.75,673.212177455925
2536,671.1026947122
2536.25,668.321854990274
2536.5,665.53011309735
2536.75,663.317495807561
2537,662.107084825519
2537.25,662.252102408289
2537.5,663.123734762635
2537.75,663.147650465707
2538,661.193208019617
2538.25,659.019111728209
2538.5,659.444609938506
2538.75,663.318299432
2539,667.263834140934
2539.25,667.595392208037
2539.5,664.474148222443
2539.75,661.193814937968
2540,660.544827069919
2540.25,662.167143870654
2540.5,664.66395063399
2540.75,666.965141039781
2541,668.614684888684
2541.25,669.276502086443
2541.5,669.377157759907
2541.75,669.920029694516
2542,671.504112464846
2542.25,672.6659018426
2542.5,671.322877138659
2542.75,667.201332608226
2543,663.533505933681
2543.25,663.733540138107
2543.5,667.387113081894
2543.75,670.830530416669
2544,671.003389807589
2544.25,668.541955914742
2544.5,665.284346904959
2544.75,662.550684110448
2545,660.587354874888
2545.25,659.501954141931
2545.5,659.304217699274
2545.75,659.920843962409
2546,661.143207707334
2546.25,662.093298477428
2546.5,661.693491934763
2546.75,659.846576574397
2547,658.19582326922
2547.25,658.428536104288
2547.5,660.469639358454
2547.75,663.007035490457
2548,664.913554824565
2548.25,665.896636603765
2548.5,665.876286070941
2548.75,665.079254069404
2549,664.185840756149
2549.25,663.827029481268
2549.5,663.705899081642
2549.75,662.958723894438
2550,661.027610555359
2550.25,658.498719329
2550.5,656.214588565636
2550.75,654.834717055641
2551,654.767377004528
2551.25,656.276047603333
2551.5,658.526743260298
2551.75,660.123299181139
2552,660.371097170133
2552.25,660.491846702614
2552.5,661.949710651631
2552.75,664.302591212926
2553,665.157934722705
2553.25,662.577950967006
2553.5,658.08143436812
2553.75,654.537768123085
2554,653.657920724891
2554.25,654.466795838647
2554.5,655.658683230561
2554.75,656.746699883814
2555,657.930780150618
2555.25,659.278563664979
2555.5,660.13813972526
2555.75,659.663242529836
2556,658.120044526545
2556.25,657.584044086529
2556.5,660.050871251956
2556.75,664.746381677187
2557,669.150733358511
2557.25,671.217819936864
2557.5,670.661356665321
2557.75,667.600950538744
2558,663.094012497474
2558.25,659.525471406974
2558.5,659.087410852001
2558.75,660.850123332232
2559,661.999601709311
2559.25,660.653084863334
2559.5,658.171353966637
2559.75,656.569130713423
2560,656.658039973864
2560.25,657.717533594417
2560.5,658.985230794576
2560.75,660.153010897784
2561,661.128104116545
2561.25,661.727756168975
2561.5,661.532920181617
2561.75,660.123673131828
2562,657.913406852813
2562.25,656.140970306289
2562.5,655.938178712031
2562.75,657.565424682484
2563,660.94992671174
2563.25,665.53127652917
2563.5,669.765205851901
2563.75,672.078096335473
2564,672.253641123716
2564.25,671.132220773907
2564.5,669.524712605112
2564.75,667.942566865358
2565,666.797121541686
2565.25,666.079116801331
2565.5,664.910905007794
2565.75,662.383979234984
2566,658.938952038345
2566.25,656.170466337609
2566.5,655.340354719897
2566.75,655.732455779053
2567,655.981913404005
2567.25,655.597898997108
2567.5,655.654885335075
2567.75,657.288635044343
2568,660.410345467295
2568.25,664.11816037054
2568.5,667.559071919712
2568.75,670.110793162682
2569,671.211604789489
2569.25,670.667134837444
2569.5,668.791439471252
2569.75,665.974685499837
2570,663.018998544868
2570.25,660.974837583265
2570.5,660.628054837312
2570.75,661.754860078043
2571,663.890682854941
2571.25,666.432044360952
2571.5,668.583255161844
2571.75,669.636330339516
2572,669.850370961406
2572.25,670.018948938945
2572.5,670.633737009935
2572.75,671.121227545731
2573,670.691300919281
2573.25,669.209247720223
2573.5,667.466441508381
2573.75,666.269947913019
2574,665.833775333082
2574.25,666.006834432656
2574.5,666.564041971465
2574.75,667.018739241066
2575,666.829263318554
2575.25,665.837094082657
2575.5,664.448422000162
2575.75,663.107961173535
2576,662.186236270751
2576.25,662.008103954989
2576.5,662.579560569372
2576.75,662.737311235481
2577,661.088532367721
2577.25,657.948699015432
2577.5,655.970574498304
2577.75,657.63488298404
2578,662.275518336033
2578.25,667.526214387247
2578.5,671.34398663153
2578.75,672.671425683634
2579,670.680668260155
2579.25,666.153119323321
2579.5,661.750402536823
2579.75,659.892268539538
2580,659.990572387534
2580.25,659.919573413726
2580.5,658.386655627218
2580.75,656.550171096947
2581,655.954307649373
2581.25,656.649963899317
2581.5,657.066823624321
2581.75,655.888668055402
2582,653.952511952128
2582.25,652.940814253591
2582.5,653.611188171128
2582.75,654.746617072614
2583,654.961544522247
2583.25,654.115414779398
2583.5,653.014566487373
2583.75,652.274272634469
2584,651.610163029974
2584.25,650.517616487339
2584.5,649.194447532163
2584.75,648.819230648021
2585,650.441388950127
2585.25,653.457246958219
2585.5,656.456435439562
2585.75,658.567105263101
2586,660.22830631547
2586.25,662.033848569529
2586.5,663.862103470267
2586.75,664.961475123132
2587,664.760314201653
2587.25,663.760978861517
2587.5,662.818345713365
2587.75,662.287542449225
2588,661.538663889125
2588.25,659.892563137832
2588.5,657.684864482684
2588.75,656.047239941265
2589,655.787468191352
2589.25,656.102956304935
2589.5,655.734688513219
2589.75,654.236046302304
2590,652.448479740079
2590.25,651.259949998835
2590.5,650.861512528031
2590.75,651.034078137008
2591,651.516586317567
2591.25,651.936619915193
2591.5,651.936760048759
2591.75,652.032904486959
2592,653.639750935515
2592.25,657.659791832324
2592.5,661.823379343042
2592.75,662.758805099263
2593,659.847490946728
2593.25,657.604712562742
2593.5,660.697012855377
2593.75,667.96917466569
2594,673.935984125998
2594.25,674.394100923153
2594.5,671.002888185784
2594.75,666.957393947732
2595,664.096318532169
2595.25,661.864853712093
2595.5,659.516890945915
2595.75,657.057124917261
2596,655.048535338694
2596.25,653.954489973602
2596.5,653.743076100336
2596.75,654.241462878724
2597,655.002083340259
2597.25,655.169182432435
2597.5,653.981034340787
2597.75,651.846771704093
2598,649.806289052636
2598.25,648.520475665382
2598.5,647.549348749423
2598.75,646.290247006403
2599,644.84888215582
2599.25,644.015178445972
2599.5,644.38080935328
2599.75,645.404783106701
2600,646.200850246659
2600.25,646.342217029698
2600.5,646.0846433835
2600.75,645.71583819647
2601,645.329833406913
2601.25,644.924776622131
2601.5,644.416331435708
2601.75,643.527833458002
2602,641.9975346292
2602.25,640.196419349536
2602.5,638.980689054325
2602.75,638.803701085683
2603,638.598367243795
2603.25,637.008754213982
2603.5,634.223047023237
2603.75,632.084070592585
2604,632.058877843479
2604.25,633.299463212232
2604.5,634.245857075827
2604.75,634.120700872222
2605,633.181024534139
2605.25,631.786762606622
2605.5,630.495044007695
2605.75,629.93073832791
2606,630.25473167036
2606.25,630.893517239086
2606.5,631.268925957543
2606.75,631.24042363255
2607,630.861922151107
2607.25,630.312835446519
2607.5,629.994618783084
2607.75,630.282286681731
2608,631.132116795691
2608.25,632.291202947422
2608.5,633.76551124927
2608.75,636.084286795934
2609,639.67805507685
2609.25,643.367377607006
2609.5,645.050481258846
2609.75,643.614311134926
2610,640.430786932857
2610.25,637.206587371506
2610.5,634.927268950659
2610.75,633.996102171144
2611,634.45827085563
2611.25,635.09498819478
2611.5,634.449567305105
2611.75,632.380607150854
2612,630.097187863261
2612.25,628.595446724124
2612.5,627.595241302872
2612.75,626.467176369945
2613,625.283845512628
2613.25,624.960880917116
2613.5,626.118145346876
2613.75,627.626618137502
2614,627.841115487859
2614.25,626.336832329698
2614.5,624.185556985286
2614.75,622.605487392214
2615,623.102649279304
2615.25,627.218823430439
2615.5,634.406521375924
2615.75,641.50253066145
2616,645.681025059557
2616.25,646.720804815466
2616.5,645.249028983032
2616.75,642.291055322993
2617,639.468159718673
2617.25,638.200235247641
2617.5,637.814590413424
2617.75,636.602441987386
2618,634.018770427617
2618.25,632.087339543149
2618.5,632.970063390281
2618.75,636.399713030632
2619,640.50700363136
2619.25,644.025358378411
2619.5,647.405593642
2619.75,651.28887325248
2620,654.644540981995
2620.25,655.050425410226
2620.5,651.096529906251
2620.75,645.929654631961
2621,643.870265935767
2621.25,646.291415260729
2621.5,650.245859956878
2621.75,652.733584770329
2622,653.063731086465
2622.25,651.645666063878
2622.5,649.125332274881
2622.75,646.699918025229
2623,645.574722614649
2623.25,645.706065426353
2623.5,646.000150437597
2623.75,645.581499847441
2624,644.632958743611
2624.25,643.603721593549
2624.5,642.450607012177
2624.75,640.488210913737
2625,637.183938886049
2625.25,633.353538023344
2625.5,630.373168377366
2625.75,628.888512135043
2626,628.170668872038
2626.25,627.469862156564
2626.5,627.21721229721
2626.75,628.464888524389
2627,631.283327265009
2627.25,633.696951608415
2627.5,633.722122694157
2627.75,631.788661851923
2628,629.692439916445
2628.25,628.494737418417
2628.5,627.479054466268
2628.75,625.780983558073
2629,623.848025535097
2629.25,622.990877022536
2629.5,623.880162991587
2629.75,625.505099546655
2630,626.645928427414
2630.25,626.764141712481
2630.5,625.770980843509
2630.75,623.916427934362
2631,622.289479090592
