1964,919.630831631265
1964.25,919.827333968026
1964.5,920.371705137532
1964.75,920.190668773167
1965,918.432875123652
1965.25,915.77878987966
1965.5,913.555220673863
1965.75,913.089931970848
1966,915.022072863422
1966.25,918.177019609406
1966.5,921.085042819134
1966.75,922.317455434872
1967,921.437051853098
1967.25,919.025242168972
1967.5,915.709906898665
1967.75,912.119539756984
1968,908.887140883548
1968.25,906.647720277051
1968.5,906.035717319423
1968.75,907.385505107264
1969,910.241829083478
1969.25,914.021088189883
1969.5,918.134648894305
1969.75,921.887342746398
1970,924.482345949862
1970.25,925.118778821387
1970.5,923.232245056565
1970.75,919.731728790654
1971,916.092677589341
1971.25,913.790021222479
1971.5,913.593552784526
1971.75,914.481906861556
1972,915.153541054405
1972.25,914.35761482288
1972.5,912.018833894201
1972.75,909.242698290429
1973,907.186459504608
1973.25,906.807497744924
1973.5,907.755422852525
1973.75,909.153990347722
1974,910.127816626127
1974.25,910.228219359371
1974.5,909.930976583228
1974.75,909.832788145589
1975,910.492069044084
1975.25,911.821989885215
1975.5,913.199171071787
1975.75,913.983919150768
1976,913.801375685112
1976.25,913.581507135048
1976.5,914.655447394085
1976.75,918.339588252523
1977,924.527377143725
1977.25,930.530010629566
1977.5,933.385832181797
1977.75,930.365517335525
1978,922.122446785318
1978.25,911.866922923096
1978.5,902.872357601855
1978.75,897.845885257234
1979,896.188191080419
1979.25,896.103308033168
1979.5,895.800929867659
1979.75,894.241604180973
1980,891.77728235736
1980.25,888.910826301441
1980.5,886.135855203687
1980.75,883.844759780024
1981,882.367458306995
1981.25,882.032697924024
1981.5,883.010332201497
1981.75,885.039224732848
1982,887.785867843169
1982.25,890.925599823255
1982.5,894.264325390373
1982.75,897.707549128097
1983,901.163282936295
1983.25,904.510713718656
1983.5,907.529025383843
1983.75,909.975729514873
1984,911.625418808453
1984.25,912.772863013634
1984.5,914.315436748694
1984.75,917.184193202532
1985,922.041605931103
1985.25,927.563726825013
1985.5,931.535719875003
1985.75,931.740150769243
1986,927.061971964326
1986.25,919.406481986089
1986.5,911.191621284755
1986.75,904.799476454202
1987,901.218221310615
1987.25,899.625233222211
1987.5,899.076865505635
1987.75,898.751035790644
1988,898.809194742012
1988.25,899.889265320786
1988.5,902.629907204988
1988.75,906.968471542684
1989,911.169063626972
1989.25,913.251551409717
1989.5,911.386204904239
1989.75,906.302516695393
1990,900.870988254032
1990.25,898.028044746859
1990.5,900.020024988064
1990.75,905.54261250867
1991,912.152744183725
1991.25,917.42724998945
1991.5,920.249486098959
1991.75,921.576242615304
1992,922.548438891424
1992.25,924.220289429859
1992.5,926.615633857501
1992.75,929.082745337056
1993,930.958141878713
1993.25,931.660136853175
1993.5,930.966421748657
1993.75,928.753358374958
1994,924.900444367347
1994.25,919.686425270333
1994.5,914.176524289381
1994.75,909.527891526146
1995,906.848298005891
1995.25,906.301623871032
1995.5,907.20353065853
1995.75,908.839503820596
1996,910.50458969074
1996.25,911.54414006856
1996.5,911.319993364337
1996.75,909.201747128949
1997,905.312648924701
1997.25,901.149823465556
1997.5,898.356391981984
1997.75,898.478097430912
1998,901.779590098354
1998.25,907.622234456153
1998.5,915.348470986745
1998.75,924.122132837505
1999,932.475865764848
1999.25,938.802953923154
1999.5,941.533834581115
1999.75,940.714820537933
2000,938.596318921952
2000.25,937.587099346383
2000.5,939.906542660698
2000.75,945.128587538471
2001,950.88294512688
2001.25,954.754363811713
2001.5,954.785428315561
2001.75,951.770226991381
2002,947.5259189565
2002.25,943.871329797284
2002.5,942.113613943234
2002.75,941.775484915621
2003,941.990892250269
2003.25,941.896870055735
2003.5,940.939348656144
2003.75,939.132359170447
2004,936.550971643465
2004.25,933.287795152658
2004.5,929.835018749899
2004.75,927.082301913172
2005,925.936421239723
2005.25,927.168580132844
2005.5,930.416589606553
2005.75,934.753863134167
2006,939.249734181702
2006.25,943.221678508164
2006.5,946.82111997134
2006.75,950.374483982302
2007,954.201396531068
2007.25,958.105299594473
2007.5,961.020209439391
2007.75,961.796617197058
2008,959.347566553182
2008.25,954.091315262505
2008.5,947.989236697735
2008.75,943.072838565444
2009,941.201471271968
2009.25,942.079912836517
2009.5,943.946489367735
2009.75,945.011412216215
2010,943.750665623654
2010.25,940.17472462415
2010.5,934.843575427575
2010.75,928.318025674174
2011,921.326317403381
2011.25,915.095951977374
2011.5,910.947074729857
2011.75,910.169114368378
2012,912.727364415864
2012.25,916.787772830986
2012.5,920.387718161782
2012.75,921.751212404096
2013,920.765086765701
2013.25,918.188909338293
2013.5,914.789971759635
2013.75,911.345216518076
2014,908.663936097248
2014.25,907.562193613676
2014.5,908.830595806066
2014.75,912.265610129614
2015,916.369659446852
2015.25,919.558419136375
2015.5,920.426809695698
2015.75,919.042795070778
2016,916.197418099543
2016.25,912.686666556151
2016.5,909.207143425421
2016.75,906.149061010566
2017,903.843776280311
2017.25,902.610850291131
2017.5,902.394676040402
2017.75,902.695698102081
2018,902.988686756582
2018.25,902.809663381666
2018.5,902.114468321181
2018.75,901.034973649633
2019,899.704041421671
2019.25,898.325839459517
2019.5,897.258481652307
2019.75,896.880136837888
2020,897.550901241398
2020.25,899.372761604422
2020.5,902.255125182121
2020.75,906.102783870586
2021,910.65190363326
2021.25,915.01091714137
2021.5,918.142216058169
2021.75,919.035007708692
2022,917.720492467679
2022.25,915.583187124602
2022.5,914.098025787422
2022.75,914.554528731557
2023,916.481526086045
2023.25,918.434999486647
2023.5,918.960818877534
2023.75,917.110016809734
2024,913.581537303147
2024.25,909.409799870444
2024.5,905.617270428421
2024.75,902.740143807216
2025,900.670158619818
2025.25,899.25467409774
2025.5,898.330065523181
2025.75,897.641595954471
2026,896.889452362245
2026.25,895.774423823397
2026.5,894.300968457155
2026.75,893.213839669162
2027,893.368468782033
2027.25,895.539975943282
2027.5,899.225903421447
2027.75,902.899995493648
2028,905.007223132545
2028.25,904.547580859607
2028.5,902.683209514217
2028.75,901.102675733447
2029,901.463117563976
2029.25,904.115959348358
2029.5,907.666240791774
2029.75,910.5970958743
2030,911.588359222513
2030.25,910.845583600487
2030.5,909.287370008951
2030.75,907.835604772993
2031,907.016692548369
2031.25,906.31413413829
2031.5,905.041531211238
2031.75,902.548274581341
2032,898.972260478682
2032.25,895.221110516697
2032.5,892.234478763761
2032.75,890.777924730004
2033,890.656028469616
2033.25,891.343605104025
2033.5,892.316613312466
2033.75,893.142514377045
2034,893.533620055849
2034.25,893.215062315966
2034.5,892.011258457889
2034.75,890.589337641685
2035,890.041413457999
2035.25,891.459976882032
2035.5,895.199655226875
2035.75,899.901057018337
2036,903.961996281723
2036.25,905.897890864799
2036.5,905.840682325723
2036.75,905.09732584341
2037,905.001251972853
2037.25,906.527140288753
2037.5,909.222686006137
2037.75,912.280831948773
2038,914.898608894052
2038.25,916.450295549533
2038.5,916.551624941208
2038.75,914.835645240922
2039,911.072788751465
2039.25,906.329669513982
2039.5,902.385402950642
2039.75,901.026256950184
2040,903.245164132404
2040.25,907.461580787098
2040.5,911.574063192296
2040.75,913.538129788877
2041,912.852673083509
2041.25,910.701867137462
2041.5,908.355298528986
2041.75,906.922048699642
2042,906.378312617696
2042.25,906.212670724218
2042.5,905.912732533551
2042.75,905.215066313335
2043,904.439728868121
2043.25,903.990261816068
2043.5,904.252253923882
2043.75,905.293146838816
2044,906.907384226968
2044.25,908.880553088051
2044.5,911.019991440726
2044.75,913.236388377401
2045,915.471097392441
2045.25,917.66373408905
2045.5,919.626228321664
2045.75,920.958016884029
2046,921.238440469216
2046.25,920.083377380694
2046.5,917.57923846901
2046.75,914.139259815004
2047,910.183271615451
2047.25,906.166888176846
2047.5,902.709556312015
2047.75,900.477581883997
2048,900.128156079291
2048.25,901.692248720974
2048.5,904.181734891278
2048.75,906.514907486741
2049,907.697018939521
2049.25,907.584782486143
2049.5,906.516931691521
2049.75,904.837714034482
2050,902.942953179348
2050.25,901.387516810204
2050.5,900.756831945557
2050.75,901.610807687736
2051,903.822000622737
2051.25,906.514700326768
2051.5,908.775468018302
2051.75,909.857066664937
2052,910.017711388371
2052.25,909.891772438753
2052.5,910.112288284133
2052.75,911.008670121871
2053,912.283175858099
2053.25,913.560488026325
2053.5,914.473768533478
2053.75,914.789406830353
2054,914.379699655958
2054.25,913.119868700922
2054.5,911.020039827448
2054.75,908.752661726614
2055,907.193111609018
2055.25,907.208463263213
2055.5,908.900867001155
2055.75,911.003710315849
2056,912.108283672063
2056.25,910.946074873463
2056.5,907.967650907175
2056.75,904.776585046256
2057,902.997740632275
2057.25,903.79258363815
2057.5,906.492217889353
2057.75,909.975890923679
2058,913.137235504714
2058.25,915.455384894662
2058.5,917.185617642271
2058.75,918.636678664392
2059,920.096111128792
2059.25,921.66344573098
2059.5,923.339912108157
2059.75,925.125846633969
2060,926.88833004761
2060.25,928.060044301913
2060.5,927.985300415916
2060.75,926.024945777253
2061,922.319982329408
2061.25,918.11232841543
2061.5,914.726986066892
2061.75,913.377805425939
2062,913.958299144813
2062.25,915.496566304392
2062.5,917.005659734198
2062.75,917.676011496065
2063,917.397331123043
2063.25,916.231624487779
2063.5,914.243636281813
2063.75,911.658237928394
2064,908.946110595853
2064.25,906.598803866981
2064.5,905.053034005382
2064.75,904.131535403688
2065,903.271785531566
2065.25,901.905339109689
2065.5,899.67693381998
2065.75,896.958668535592
2066,894.277633866696
2066.25,892.158994628163
2066.5,891.069764350077
2066.75,891.409872710118
2067,893.575525633994
2067.25,897.714623149393
2067.5,902.517765238245
2067.75,906.145584208443
2068,906.775886843687
2068.25,904.002540114111
2068.5,899.83611653537
2068.75,896.523353803403
2069,896.086856113085
2069.25,897.971081540547
2069.5,899.97008962948
2069.75,899.851465541922
2070,896.31149117085
2070.25,890.924301639141
2070.5,885.819797911166
2070.75,883.057952590927
2071,882.977803244641
2071.25,884.132480655404
2071.5,884.992187302363
2071.75,884.468395918379
2072,883.524384422152
2072.25,883.71933805905
2072.5,886.566921237829
2072.75,891.909055747255
2073,897.472369906929
2073.25,900.847653427732
2073.5,900.182718582635
2073.75,896.927677807895
2074,893.744984177912
2074.25,893.282453751545
2074.5,896.479383180046
2074.75,901.100924361472
2075,904.566871710168
2075.25,904.574128953074
2075.5,901.738004161468
2075.75,898.422095825027
2076,897.013303308259
2076.25,898.853254250696
2076.5,901.935026044269
2076.75,903.582541959197
2077,901.235937898295
2077.25,895.185279381191
2077.5,888.672530762139
2077.75,885.076270772629
2078,887.015187390584
2078.25,892.66541478955
2078.5,898.593350834409
2078.75,901.39899798006
2079,899.811388249252
2079.25,895.847232168559
2079.5,891.804616588903
2079.75,889.774914092024
2080,889.930512862259
2080.25,891.402536483027
2080.5,893.312271074207
2080.75,894.945988357374
2081,895.994076157915
2081.25,896.207657126475
2081.5,895.384480769851
2081.75,894.033843302456
2082,893.219973013689
2082.25,894.021793502637
2082.5,897.104286101623
2082.75,901.531133173087
2083,905.978864761961
2083.25,909.142835127104
2083.5,910.318049532992
2083.75,909.509643951072
2084,906.763872762946
2084.25,902.254894899087
2084.5,897.092024987792
2084.75,892.799782455253
2085,890.901676283854
2085.25,892.113525524788
2085.5,895.241834288334
2085.75,898.817280092625
2086,901.443541814258
2086.25,902.751986849082
2086.5,903.133295685769
2086.75,902.99592914947
2087,902.759189617414
2087.25,902.883753884179
2087.5,903.840167069686
2087.75,906.085455939914
2088,909.562678538852
2088.25,913.553839536648
2088.5,917.297423001432
2088.75,920.126311153205
2089,922.108303614526
2089.25,923.655757200156
2089.5,925.182816830736
2089.75,926.918470241749
2090,928.560469669715
2090.25,929.711887970157
2090.5,929.980526606856
2090.75,929.145517949719
2091,927.201589693324
2091.25,924.157197842194
2091.5,920.079153481715
2091.75,915.653408473316
2092,911.938920437605
2092.25,909.999776976592
2092.5,910.530181514407
2092.75,912.746219864654
2093,915.494802873343
2093.25,917.63355472008
2093.5,918.553350013141
2093.75,918.414100623967
2094,917.435579972649
2094.25,915.87407843363
2094.5,914.372888673582
2094.75,913.808254226518
2095,915.059607370695
2095.25,918.505508195972
2095.5,922.663689953151
2095.75,925.619838659047
2096,925.494338417615
2096.25,922.086331303016
2096.5,917.588435638705
2096.75,914.376572831693
2097,914.609597077664
2097.25,917.868986430615
2097.5,922.047404663042
2097.75,925.008177620561
2098,925.171616185203
2098.25,923.153052943807
2098.5,920.108467534878
2098.75,917.187222521025
2099,915.047101943409
2099.25,913.523941049553
2099.5,912.375359957631
2099.75,911.371304117257
2100,910.443923670542
2100.25,909.639764675096
2100.5,909.007769767677
2100.75,908.597983903382
2101,908.465060362054
2101.25,908.664856493628
2101.5,909.250019820385
2101.75,910.101125779983
2102,910.843210969766
2102.25,911.080586061578
2102.5,910.473532076106
2102.75,909.233682421198
2103,907.886282956279
2103.25,906.960132618051
2103.5,906.727312269184
2103.75,906.625700202949
2104,905.924023880668
2104.25,903.928783576395
2104.5,901.108812175833
2104.75,899.286374333414
2105,900.360005154919
2105.25,905.74562462422
2105.5,913.531953543015
2105.75,920.405316361661
2106,923.057959743208
2106.25,920.031361709741
2106.5,913.791495260609
2106.75,907.305471908673
2107,903.417571501222
2107.25,902.464424562055
2107.5,902.439652265417
2107.75,901.247019725511
2108,897.26533572491
2108.25,891.395222627417
2108.5,885.370894058636
2108.75,880.918314924776
2109,879.096519038348
2109.25,879.84084801653
2109.5,882.978646359026
2109.75,888.219138910989
2110,894.322889204747
2110.25,899.593734864972
2110.5,902.340229420427
2110.75,901.910710405588
2111,899.738200421161
2111.25,897.504606948528
2111.5,896.778787248821
2111.75,897.626937992926
2112,899.048095135488
2112.25,900.018579210987
2112.5,899.86821419327
2112.75,899.171310919279
2113,898.775895130598
2113.25,899.503910167565
2113.5,901.379172345723
2113.75,903.498702573041
2114,904.907525331519
2114.25,904.813583805158
2114.5,903.462943330879
2114.75,901.509127736112
2115,899.605317723289
2115.25,898.203533567315
2115.5,897.339482575432
2115.75,896.997257988105
2116,897.158508326649
2116.25,897.77195455642
2116.5,898.76271714898
2116.75,900.055399825829
2117,901.527105805792
2117.25,902.885972884565
2117.5,903.802585750243
2117.75,903.968116516677
2118,903.715496288193
2118.25,904.129680669165
2118.5,906.338439734294
2118.75,911.141194253444
2119,917.084955970118
2119.25,921.771585735862
2119.5,922.806229596091
2119.75,919.260146687881
2120,913.517288444613
2120.25,908.416354263237
2120.5,906.687984257492
2120.75,908.619015664353
2121,912.075351489221
2121.25,914.819409310089
2121.5,914.987533885659
2121.75,912.894903379868
2122,909.643719813712
2122.25,906.335649979771
2122.5,903.791937783214
2122.75,902.23521253797
2123,901.81113946144
2123.25,902.624344258888
2123.5,904.135018442286
2123.75,905.291264969173
2124,905.027055645323
2124.25,902.690154022154
2124.5,899.385717065868
2124.75,896.685365601449
2125,896.136459743645
2125.25,898.07628371147
2125.5,901.09563352646
2125.75,903.649210080855
2126,904.377923396098
2126.25,903.408948983479
2126.5,901.581256785494
2126.75,899.73766221411
2127,898.490405196372
2127.25,897.876238682991
2127.5,897.843614619133
2127.75,898.338861403652
2128,899.270966096916
2128.25,900.517027381214
2128.5,901.953119511109
2128.75,903.400812957514
2129,904.442081502165
2129.25,904.593080758409
2129.5,903.380878568408
2129.75,900.87495007839
2130,897.926530085435
2130.25,895.447652054051
2130.5,894.235620145961
2130.75,894.071534663722
2131,894.205688981159
2131.25,893.885021085473
2131.5,892.796694535397
2131.75,891.712543132765
2132,891.568482549012
2132.25,893.229430106261
2132.5,896.450142486297
2132.75,900.1056378334
2133,903.046806172544
2133.25,904.416671325205
2133.5,904.455225511254
2133.75,903.659894489386
2134,902.527457571598
2134.25,901.530875133314
2134.5,901.112904046339
2134.75,901.714355205766
2135,903.666229680571
2135.25,906.480862609064
2135.5,909.300862786937
2135.75,911.268512677284
2136,911.886356518215
2136.25,911.485043050737
2136.5,910.511136546588
2136.75,909.401059211138
2137,908.401154088574
2137.25,907.588971241743
2137.5,907.036194736821
2137.75,906.698469133298
2138,905.91444479463
2138.25,903.818508335316
2138.5,899.557908710813
2138.75,893.493376613788
2139,888.170546814892
2139.25,886.363655016801
2139.5,890.491786792499
2139.75,898.950740990255
2140,907.589804142805
2140.25,912.220601964053
2140.5,910.521666803106
2140.75,905.315600206344
2141,900.303392701861
2141.25,899.077412509114
2141.5,902.453761076817
2141.75,908.308468617677
2142,914.37614838852
2142.25,918.68761096172
2142.5,920.965812212332
2142.75,921.53364918765
2143,920.715226014396
2143.25,918.915900284019
2143.5,916.71140966452
2143.75,914.698944482371
2144,913.449301099548
2144.25,913.022994087397
2144.5,913.018852281797
2144.75,913.019060291085
2145,912.594006106343
2145.25,911.246751283212
2145.5,908.456509405587
2145.75,903.708661668569
2146,897.405761507306
2146.25,891.829718711821
2146.5,889.492716691836
2146.75,892.671688997114
2147,900.268042915222
2147.25,908.656679619079
2147.5,914.151680047475
2147.75,914.354120647026
2148,911.287602002889
2148.25,907.924938429271
2148.5,907.187595959909
2148.75,909.939100922715
2149,914.333345849749
2149.25,918.339436004283
2149.5,920.145426971294
2149.75,919.740803107642
2150,918.000185380707
2150.25,915.804202299831
2150.5,913.806751909044
2150.75,911.970203807057
2151,910.125555674091
2151.25,908.116068325402
2151.5,906.193215679928
2151.75,905.102207480898
2152,905.617815379466
2152.25,908.312607080069
2152.5,912.222289324001
2152.75,915.676775563485
2153,917.004675443514
2153.25,915.340734955645
2153.5,911.791637007636
2153.75,907.75999371743
2154,904.613608522307
2154.25,902.917863035208
2154.5,902.434703420864
2154.75,902.891064438501
2155,904.024007160927
2155.25,905.629613609452
2155.5,907.525290404777
2155.75,909.528219015537
2156,911.428631842648
2156.25,912.966353763569
2156.5,913.875678923131
2156.75,913.917398207145
2157,913.208152834986
2157.25,912.119124929268
2157.5,911.027015748287
2157.75,910.135848329223
2158,908.898242705986
2158.25,906.562485788816
2158.5,902.392365337632
2158.75,896.618388387152
2159,890.990801606423
2159.25,887.393106493549
2159.5,887.47913051512
2159.75,890.629707887966
2160,894.928064823948
2160.25,898.444459221429
2160.5,900.023118326256
2160.75,900.418583561172
2161,900.6749337866
2161.25,901.765794474646
2161.5,903.485944402544
2161.75,904.654379661471
2162,904.060711319151
2162.25,900.9816378113
2162.5,896.835643097556
2162.75,893.629723161635
2163,893.340819827844
2163.25,896.368356771043
2163.5,900.788766860214
2163.75,904.492281839087
2164,905.671005365494
2164.25,904.891881120598
2164.5,903.845265214641
2164.75,904.225895036633
2165,906.867541246858
2165.25,910.457790266007
2165.5,913.355375573243
2165.75,913.988998114545
2166,912.102145692746
2166.25,908.607728946166
2166.5,904.459428010248
2166.75,900.547385275474
2167,897.406318792608
2167.25,895.447423159892
2167.5,895.07804180663
2167.75,896.342821589479
2168,898.625116807431
2168.25,901.237994229186
2168.5,903.525598804909
2168.75,905.160661040796
2169,906.013342520077
2169.25,905.956595956161
2169.5,905.062652953754
2169.75,904.021965031009
2170,903.644511489855
2170.25,904.70916670028
2170.5,907.130955538613
2170.75,909.869532617967
2171,911.835085259544
2171.25,912.149413018967
2171.5,911.288385483842
2171.75,910.26138578828
2172,910.07669832309
2172.25,911.220423183198
2172.5,913.005817765321
2172.75,914.586233272585
2173,915.150756181799
2173.25,914.524100737915
2173.5,913.077659293215
2173.75,911.20064270564
2174,909.19297903719
2174.25,906.868490292949
2174.5,903.876364511113
2174.75,899.870749317552
2175,895.09837642229
2175.25,890.944466914015
2175.5,888.923333327119
2175.75,890.378080774867
2176,894.536555442172
2176.25,899.200134731337
2176.5,902.143975315659
2176.75,901.910791977075
2177,899.36338646343
2177.25,895.801221063083
2177.5,892.51087288916
2177.75,890.462527473661
2178,890.298432412131
2178.25,892.645639923752
2178.5,897.770767816169
2178.75,904.051524447013
2179,909.248945752627
2179.25,911.156182030077
2179.5,909.443767755154
2179.75,906.652564401537
2180,905.565770159601
2180.25,908.614014037292
2180.5,914.518218720642
2180.75,919.778544465893
2181,920.865590947219
2181.25,915.697679594774
2181.5,906.882489694066
2181.75,897.975459834095
2182,892.479651624217
2182.25,891.693568295496
2182.5,893.950492579458
2182.75,897.374995054411
2183,900.215777518831
2183.25,901.607527149589
2183.5,901.070061728783
2183.75,898.129506923298
2184,893.109392281135
2184.25,888.020450200383
2184.5,885.088105463108
2184.75,886.365266274338
2185,891.54568398427
2185.25,898.614358614999
2185.5,905.518315654141
2185.75,910.653582681774
2186,913.817768866664
2186.25,915.081203379585
2186.5,914.536040848135
2186.75,912.874761132557
2187,911.450488583673
2187.25,911.650271538703
2187.5,914.586544141908
2187.75,919.364304274765
2188,924.197399749375
2188.25,927.297538605095
2188.5,927.641172240852
2188.75,926.139893641552
2189,924.00673016054
2189.25,922.420807531188
2189.5,921.550215962853
2189.75,920.403891530094
2190,917.927071283996
2190.25,913.30571085793
2190.5,907.781253971318
2190.75,903.636925075592
2191,903.163422578102
2191.25,907.413731333538
2191.5,913.629677632072
2191.75,918.321896418117
2192,918.125524879395
2192.25,912.890481273282
2192.5,905.889617569523
2192.75,900.561969884638
2193,899.872273582364
2193.25,903.28057691282
2193.5,908.676387685577
2193.75,913.945179705295
2194,917.685016119558
2194.25,920.083098826353
2194.5,921.541535633046
2194.75,922.448182424781
2195,922.926961773743
2195.25,922.869112164023
2195.5,922.157901130413
2195.75,920.736218229837
2196,918.911218900656
2196.25,917.12759174553
2196.5,915.82960196553
2196.75,915.251221004128
2197,915.119376465836
2197.25,915.086111933557
2197.5,914.799785015249
2197.75,913.827302038074
2198,911.655924141502
2198.25,907.769587765598
2198.5,901.938790410738
2198.75,895.7495597049
2199,891.496771647562
2199.25,891.46745208261
2199.5,896.385439945026
2199.75,903.683673381796
2200,910.378792690186
2200.25,913.722452412771
2200.5,913.797372357467
2200.75,912.56091354286
2201,912.003916774029
2201.25,913.581910663534
2201.5,916.666327007865
2201.75,920.121482032092
2202,922.821322621765
2202.25,924.116948829466
2202.5,924.046321427271
2202.75,922.70072603672
2203,920.212166111491
2203.25,917.174885750668
2203.5,914.476159440333
2203.75,913.007917565173
2204,913.376004513156
2204.25,914.990464826892
2204.5,916.948955924156
2204.75,918.356359377405
2205,918.750707395103
2205.25,918.341211528118
2205.5,917.394795331644
2205.75,916.174991186277
2206,914.905168604209
2206.25,913.782429579372
2206.5,913.003422038483
2206.75,912.659184185169
2207,912.410205347739
2207.25,911.807271367481
2207.5,910.406602287163
2207.75,908.071514545226
2208,905.130732177228
2208.25,901.95180142933
2208.5,898.922702004701
2208.75,896.643936685215
2209,895.842106263721
2209.25,897.245129266747
2209.5,901.045642248214
2209.75,905.817458653116
2210,909.829552290432
2210.25,911.421328657907
2210.5,910.506762230851
2210.75,908.549601354761
2211,907.079066650748
2211.25,907.325315273692
2211.5,908.701573563203
2211.75,909.938628577307
2212,909.771532158448
2212.25,907.715467305255
2212.5,904.867733293353
2212.75,902.517115782886
2213,901.871572507669
2213.25,902.902415195853
2213.5,904.614866092794
2213.75,905.988466978551
2214,906.225590014768
2214.25,905.456749284817
2214.5,904.054076548699
2214.75,902.394085342961
2215,901.068240503115
2215.25,900.976209574695
2215.5,903.041454085976
2215.75,907.970123548151
2216,914.581481485101
2216.25,920.725164160079
2216.5,924.244455806953
2216.75,923.93291825003
2217,921.135994078489
2217.25,917.623060106091
2217.5,915.130134324701
2217.75,914.351399698331
2218,914.759073983266
2218.25,915.755702612045
2218.5,916.752523708178
2218.75,917.230430086787
2219,916.703784329509
2219.25,914.687602485917
2219.5,911.135653540226
2219.75,907.263650343936
2220,904.512801179074
2220.25,904.277738445143
2220.5,906.590122431592
2220.75,909.933682613822
2221,912.70839296746
2221.25,913.534979578343
2221.5,912.492412365908
2221.75,910.251120918073
2222,907.483577824933
2222.25,904.955583451843
2222.5,903.651079218023
2222.75,904.585122801576
2223,908.675001313127
2223.25,915.052791035815
2223.5,921.29023770031
2223.75,924.906548261027
2224,924.098840308465
2224.25,920.435119987585
2224.5,916.529133469582
2224.75,914.985119260896
2225,916.907441651771
2225.25,920.303400416236
2225.5,922.79734907747
2225.75,922.15444245667
2226,918.539802890024
2226.25,914.128499857681
2226.5,911.157630179623
2226.75,911.356660552181
2227,913.499796327619
2227.25,915.294660738525
2227.5,914.457130130421
2227.75,910.114199160556
2228,904.272008587581
2228.25,899.287687394408
2228.5,897.394551072557
2228.75,898.752973517547
2229,901.806803774491
2229.25,904.948157089676
2229.5,906.93459389225
2229.75,908.074385224744
2230,909.087048314389
2230.25,910.678512526982
2230.5,912.878222595839
2230.75,914.740012890271
2231,915.241776095866
2231.25,913.534619567695
2231.5,910.435177492128
2231.75,907.689534443944
2232,907.053753693071
2232.25,909.596630385827
2232.5,914.093551127284
2232.75,918.842097917903
2233,922.165394249124
2233.25,923.211356929435
2233.5,922.111104749331
2233.75,919.05328656555
2234,914.313490936695
2234.25,908.926912208682
2234.5,904.321097144267
2234.75,901.926656075014
2235,902.582866158809
2235.25,905.248801486379
2235.5,908.510685454682
2235.75,910.984310364698
2236,912.07556240101
2236.25,912.04684865753
2236.5,911.203457684021
2236.75,909.898530144619
2237,908.807526020125
2237.25,908.73895798603
2237.5,910.498987623259
2237.75,914.179728247183
2238,918.212805615963
2238.25,920.794347480007
2238.5,920.224969949202
2238.75,916.764574841287
2239,912.413475206646
2239.25,909.232504909819
2239.5,908.929856771577
2239.75,911.066627049454
2240,914.395832369501
2240.25,917.671771179988
2240.5,920.078288093786
2240.75,921.691591060059
2241,922.69902094744
2241.25,923.282750435636
2241.5,923.533013243891
2241.75,923.460963810382
2242,923.075178637988
2242.25,922.411883048309
2242.5,921.673407942218
2242.75,921.123825820198
2243,921.026458233201
2243.25,921.385453688896
2243.5,921.582592052357
2243.75,920.908151137649
2244,918.693294762651
2244.25,915.255115927861
2244.5,911.922627263723
2244.75,910.070926597257
2245,910.850325948198
2245.25,913.802837952969
2245.5,917.769862817255
2245.75,921.591000635646
2246,924.456677581317
2246.25,926.408620774589
2246.5,927.615178624789
2246.75,928.246181404454
2247,928.507830886383
2247.25,928.644019165587
2247.5,928.900384069584
2247.75,929.442727505303
2248,929.795901128733
2248.25,929.17627408882
2248.5,926.798323715581
2248.75,922.349665524098
2249,917.10652218715
2249.25,912.678161535606
2249.5,910.649535914383
2249.75,911.31345573432
2250,913.050345161148
2250.25,914.086255741778
2250.5,912.8282393484
2250.75,909.508292626361
2251,905.415499569298
2251.25,901.851820999688
2251.5,899.699031995802
2251.75,898.395511712065
2252,897.069948424436
2252.25,894.880562431053
2252.5,891.888150037578
2252.75,889.200955795313
2253,887.985932141913
2253.25,889.134928011795
2253.5,891.852307648815
2253.75,894.702943219702
2254,896.266559357621
2254.25,896.29650125713
2254.5,896.49726057009
2254.75,898.757610019932
2255,904.642194342405
2255.25,912.628479139613
2255.5,919.484061542301
2255.75,921.960413504818
2256,918.32482819729
2256.25,911.051799265581
2256.5,903.339814192682
2256.75,898.325073398949
2257,897.162392391796
2257.25,898.661749574837
2257.5,901.497498885618
2257.75,904.45252100832
2258,907.026012067929
2258.25,909.007486928486
2258.5,910.188185050642
2258.75,910.496541308911
2259,910.144329257987
2259.25,909.37836351138
2259.5,908.436439529213
2259.75,907.414675879447
2260,906.296583537243
2260.25,905.062564462596
2260.5,903.816198606004
2260.75,903.230304490753
2261,904.142023193462
2261.25,907.370819081464
2261.5,912.664688507654
2261.75,918.105126424282
2262,921.629601494075
2262.25,921.430939767129
2262.5,918.264388054546
2262.75,914.363961050638
2263,911.981542746569
2263.25,912.635302434154
2263.5,915.081524738573
2263.75,917.426746345634
2264,917.807682733589
2264.25,915.751125424987
2264.5,912.726184509695
2264.75,910.346486536098
2265,910.052249356834
2265.25,911.496439185057
2265.5,913.278981856924
2265.75,913.986340903402
2266,912.720566457158
2266.25,910.30451798577
2266.5,907.919629014053
2266.75,906.724817281926
2267,907.027450752214
2267.25,908.042251800105
2267.5,908.912266467102
2267.75,908.905165303227
2268,908.281540759501
2268.25,907.776781294964
2268.5,908.12849226594
2268.75,909.684391345
2269,911.763342700844
2269.25,913.516476963863
2269.5,914.136087819838
2269.75,913.722364398135
2270,913.262315931088
2270.25,913.779898909357
2270.5,916.035244245718
2270.75,919.139792652653
2271,921.56935795738
2271.25,921.802770793047
2271.5,919.277578692079
2271.75,915.587118345268
2272,912.619034947032
2272.25,912.17363934206
2272.5,914.127840505977
2272.75,916.481367530936
2273,917.155861271183
2273.25,914.519034580762
2273.5,909.655058048766
2273.75,904.670639602329
2274,901.669696814426
2274.25,901.684828409302
2274.5,903.314623807256
2274.75,904.821445233008
2275,904.581312722518
2275.25,902.771497181206
2275.5,901.009195208063
2275.75,900.951858738313
2276,903.691002490123
2276.25,907.809238393733
2276.5,911.194169170211
2276.75,911.769238238486
2277,909.226362314254
2277.25,905.798255387151
2277.5,903.914348439271
2277.75,905.711244230245
2278,910.445574020427
2278.25,915.737885908861
2278.5,919.190448761043
2278.75,919.17760696599
2279,916.380847975008
2279.25,911.910738548072
2279.5,906.870078966156
2279.75,902.095836149631
2280,898.099187883246
2280.25,895.371398619131
2280.5,894.316989687141
2280.75,894.670381366768
2281,895.853910904366
2281.25,897.288497900787
2281.5,898.458540834518
2281.75,898.987559232879
2282,898.517513846982
2282.25,896.758090735785
2282.5,894.361699732603
2282.75,892.671945115557
2283,893.048315513109
2283.25,896.202749950592
2283.5,900.455454846294
2283.75,903.574571988829
2284,903.409452603638
2284.25,900.143840439919
2284.5,896.588895456161
2284.75,895.695848789076
2285,899.759238467368
2285.25,906.782261278616
2285.5,913.044553425437
2285.75,914.84173450707
2286,910.849935415183
2286.25,904.306747457065
2286.5,898.965315088291
2286.75,898.326328021811
2287,902.037408808913
2287.25,906.740935966417
2287.5,908.999687399667
2287.75,906.461622397192
2288,901.07498838121
2288.25,895.853089457839
2288.5,893.764786892332
2288.75,895.663088123249
2289,899.404083136148
2289.25,902.616484474003
2289.5,903.269153756071
2289.75,901.916045137526
2290,900.298209345379
2290.25,900.160113563987
2290.5,902.456525296591
2290.75,906.275254679479
2291,910.434376876788
2291.25,913.791199902627
2291.5,915.840410605496
2291.75,916.594443113631
2292,916.080713515875
2292.25,914.451088936049
2292.5,912.468876954858
2292.75,911.084855396245
2293,911.243171163892
2293.25,913.205642070659
2293.5,915.971762786099
2293.75,918.404399441579
2294,919.428169473696
2294.25,918.80968910729
2294.5,916.924219493253
2294.75,914.160555870432
2295,910.930077486995
2295.25,907.749786641228
2295.5,905.167538562188
2295.75,903.72740944048
2296,903.661121916351
2296.25,904.659480053417
2296.5,906.359424975676
2296.75,908.379157993519
2297,910.126383236003
2297.25,910.876412137859
2297.5,909.902539910587
2297.75,906.907384694811
2298,903.079806295052
2298.25,899.930055115743
2298.5,898.93624940874
2298.75,900.387150902996
2299,903.060226236243
2299.25,905.635261670053
2299.5,906.926143671815
2299.75,906.699018076797
2300,905.13210353087
2300.25,902.405729452842
2300.5,898.814181396005
2300.75,894.914270643
2301,891.299648762353
2301.25,888.536401183397
2301.5,886.737550662564
2301.75,885.645350360177
2302,884.991153791581
2302.25,884.57183155605
2302.5,884.433436390841
2302.75,884.681251935619
2303,885.401367818974
2303.25,886.186606995997
2303.5,886.105904233754
2303.75,884.202869020319
2304,879.958395118967
2304.25,874.967197734313
2304.5,871.461862906186
2304.75,871.626970854093
2305,875.788066483391
2305.25,881.86286418808
2305.5,887.608873424403
2305.75,891.209834786648
2306,893.037142040611
2306.25,894.162123116577
2306.5,895.647300982647
2306.75,898.115708697603
2307,901.564743609994
2307.25,905.943994017733
2307.5,911.065934399965
2307.75,915.68090476256
2308,918.043413198303
2308.25,916.408218048241
2308.5,910.226067282728
2308.75,901.956742503579
2309,894.525796866535
2309.25,890.76500674635
2309.5,891.240678719271
2309.75,894.191619300384
2310,897.750449333498
2310.25,900.290197965472
2310.5,901.400978780613
2310.75,901.057147397902
2311,899.240420589778
2311.25,896.376402125469
2311.5,893.585146549596
2311.75,892.047203515895
2312,892.805176993512
2312.25,895.617255620194
2312.5,899.543015730358
2312.75,903.63569854988
2313,907.185136083346
2313.25,910.068772276431
2313.5,912.253727581732
2313.75,913.733772783679
2314,914.992221238726
2314.25,916.941834073217
2314.5,920.509939118989
2314.75,926.21969161303
2315,932.396629821599
2315.25,936.622953176138
2315.5,936.489397502366
2315.75,931.20845081411
2316,923.468381509324
2316.25,916.406423983688
2316.5,913.063101497664
2316.75,913.861217583029
2317,916.366661546452
2317.25,918.000657974926
2317.5,916.584169273011
2317.75,912.793957510945
2318,908.549205550918
2318.25,905.772844647228
2318.5,905.645853045351
2318.75,907.37892760351
2319,909.859361334048
2319.25,912.002808374456
2319.5,913.334003329721
2319.75,913.963673108468
2320,914.026285949942
2320.25,913.703946979481
2320.5,913.460467217221
2320.75,913.862834519532
2321,915.475715637802
2321.25,918.426924934328
2321.5,921.909677322933
2321.75,924.996716929591
2322,926.803614899001
2322.25,927.2161556253
2322.5,926.787075075574
2322.75,926.091149654849
2323,925.613358165556
2323.25,925.274243338836
2323.5,924.775568597193
2323.75,923.818981495114
2324,922.276233536783
2324.25,920.459712073295
2324.5,918.752215004626
2324.75,917.517042505401
2325,916.547525800671
2325.25,914.990024117424
2325.5,911.955920780704
2325.75,906.948001935942
2326,902.559406877878
2326.25,902.849684316722
2326.5,911.882701525072
2326.75,931.082848783753
2327,954.803702518386
2327.25,976.227260174431
2327.5,988.747696102491
2327.75,990.737416894723
2328,985.602215137382
2328.25,976.971091491985
2328.5,968.366850740494
2328.75,961.440512353805
2329,956.242313208517
2329.25,952.770910792487
2329.5,951.080340374271
2329.75,951.865287368897
2330,956.232284802409
2330.25,965.294663859937
2330.5,979.636760913143
2330.75,996.608318206908
2331,1012.33688545491
2331.25,1022.94773683762
2331.5,1025.59848135731
2331.75,1021.67346854161
2332,1013.63865498234
2332.25,1003.95999776722
2332.5,994.869703528336
2332.75,987.337018136059
2333,981.906576653113
2333.25,979.122697205716
2333.5,979.427202835417
2333.75,982.687640146197
2334,988.571665668845
2334.25,996.746733162382
2334.5,1006.66376942273
2334.75,1016.83330102751
2335,1025.51061546249
2335.25,1030.9509953611
2335.5,1031.84446176124
2335.75,1028.70169879259
2336,1022.50993449075
2336.25,1014.25639852333
2336.5,1005.03955516894
2336.75,996.636548145607
2337,991.080443816125
2337.25,990.404778728438
2337.5,996.179512332753
2337.75,1006.64509197573
2338,1018.58665162734
2338.25,1028.78321690228
2338.5,1034.40438122161
2338.75,1035.12258350204
2339,1031.59772710259
2339.25,1024.49212316081
2339.5,1014.5237006297
2339.75,1002.93675725913
2340,991.265648853221
2340.25,981.047758688341
2340.5,973.712367261817
2340.75,969.287999624999
2341,966.825997685187
2341.25,965.35777358772
2341.5,963.988994420269
2341.75,962.527518820133
2342,961.167905610141
2342.25,960.108741381421
2342.5,959.516794607049
2342.75,959.367506711913
2343,959.565142453653
2343.25,960.013846839199
2343.5,960.592521621854
2343.75,961.086562768485
2344,961.259720442254
2344.25,960.876091422227
2344.5,959.788562246138
2344.75,958.056225096899
2345,955.767373917838
2345.25,953.015303045214
2345.5,950.175717157274
2345.75,948.05221897455
2346,947.484093353593
2346.25,949.23798295994
2346.5,952.597105730679
2346.75,955.458425392947
2347,955.665725552932
2347.25,951.407050713124
2347.5,944.031451520609
2347.75,936.588098438659
2348,932.142527791215
2348.25,932.930954920865
2348.5,936.893623436938
2348.75,940.58394583342
2349,940.561861985207
2349.25,935.220982846208
2349.5,927.20678718589
2349.75,919.765819300915
2350,916.099084512737
2350.25,917.850887388718
2350.5,924.758898126342
2350.75,936.444357933555
2351,952.402935602434
2351.25,971.053656304777
2351.5,990.26802307656
2351.75,1007.91321402313
2352,1022.29850125397
2352.25,1033.53029131282
2352.5,1042.17158049282
2352.75,1048.78536515693
2353,1053.96747912263
2353.25,1058.46065332475
2353.5,1063.04867912107
2353.75,1068.51534977283
2354,1075.47024067812
2354.25,1083.0889729321
2354.5,1089.84235718569
2354.75,1094.19630886336
2355,1094.67847165511
2355.25,1091.32689980783
2355.5,1085.74221084894
2355.75,1079.59718488407
2356,1074.56413570015
2356.25,1071.80236821322
2356.5,1070.9782229397
2356.75,1071.48795116197
2357,1072.72780416239
2357.25,1074.14581470976
2357.5,1075.56393864299
2357.75,1076.96835228223
2358,1078.3459369748
2358.25,1079.67476849589
2358.5,1080.74429247699
2358.75,1081.16273694729
2359,1080.53100761904
2359.25,1078.45207880184
2359.5,1074.97031434977
2359.75,1071.11627825741
2360,1068.05419138103
2360.25,1066.94827457695
2360.5,1068.60393179445
2360.75,1071.78601500904
2361,1074.53902646806
2361.25,1074.90664857992
2361.5,1071.09152157667
2361.75,1063.53255730533
2362,1054.32020259373
2362.25,1045.58353629855
2362.5,1039.43361934245
2362.75,1036.78773479577
2363,1036.64492140515
2363.25,1037.83100975642
2363.5,1039.17269766827
2363.75,1039.84615833708
2364,1039.91072004674
2364.25,1039.5630792718
2364.5,1038.99993248679
2364.75,1038.39463577546
2365,1037.82721489112
2365.25,1037.35437081003
2365.5,1037.0328045085
2365.75,1036.91301931125
2366,1037.00570094483
2366.25,1037.3057888612
2366.5,1037.80818358379
2366.75,1038.48244060054
2367,1039.03309829503
2367.25,1039.0068045689
2367.5,1037.94810593836
2367.75,1035.43812375255
2368,1031.74649634886
2368.25,1027.75591518079
2368.5,1024.37048997059
2368.75,1022.47380373394
2369,1022.13517883207
2369.25,1022.35666551842
2369.5,1022.06802083628
2369.75,1020.20803865569
2370,1016.3887458429
2370.25,1011.34893008665
2370.5,1005.93473319844
2370.75,1000.9897297661
2371,996.934021462597
2371.25,993.296259323367
2371.5,989.492335987332
2371.75,984.940115404477
2372,979.41386120552
2372.25,973.454735293963
2372.5,967.703420454675
2372.75,962.797538137329
2373,959.065749623901
2373.25,956.267176200534
2373.5,954.099568342026
2373.75,952.266531804615
2374,950.682524725034
2374.25,949.52658394775
2374.5,948.994520702645
2374.75,949.250488667194
2375,949.98736404761
2375.25,950.536463055657
2375.5,950.219872113006
2375.75,948.47577295407
2376,945.585637318544
2376.25,942.203215274255
2376.5,938.98389439705
2376.75,936.342188500249
2377,933.744918981542
2377.25,930.425870209188
2377.5,925.625302063903
2377.75,919.369954356231
2378,913.215613334422
2378.25,908.893964389688
2378.5,908.040818049827
2378.75,910.465545695766
2379,914.33955931246
2379.25,917.776232210104
2379.5,919.24905032697
2379.75,919.121758873485
2380,918.37617508279
2380.25,917.991474063863
2380.5,918.537370539554
2380.75,919.761509437502
2381,921.31322867641
2381.25,922.836030964047
2381.5,923.87319139509
2381.75,923.883639699548
2382,922.323676513435
2382.25,919.184994201089
2382.5,917.555525861499
2382.75,921.633697606459
2383,935.59279669641
2383.25,957.207799767991
2383.5,969.582482668813
2383.75,953.772696895168
2384,891.868477383519
2384.25,794.54141323809
2384.5,703.993536708312
2384.75,664.052624436463
2385,710.915610717535
2385.25,815.346998371845
2385.5,914.842055574499
2385.75,964.09031119943
2386,971.739328244394
2386.25,956.829398595106
2386.5,938.143294829212
2386.75,927.060136679715
2387,926.625382127727
2387.25,939.440151268312
2387.5,967.130210128208
2387.75,1000.15034117877
2388,1021.82699059553
2388.25,1015.37128740307
2388.5,967.181970735581
2388.75,881.826062973849
2389,770.297929993756
2389.25,643.5993772501
2389.5,519.134554791438
2389.75,456.647113388407
2390,531.383154779999
2390.25,726.724147921311
2390.5,890.982118142718
2390.75,947.901204264723
2391,947.07491729451
2391.25,946.248630324296
2391.5,945.422343354083
2391.75,944.59605638387
2392,943.769769413656
2392.25,942.943482443443
2392.5,942.11719547323
2392.75,941.290908503016
2393,940.464621532803
2393.25,939.638334562589
2393.5,938.812047592376
2393.75,937.985760622163
2394,937.159473651949
2394.25,936.333186681736
2394.5,935.506899711523
2394.75,934.680612741309
2395,933.854325771096
2395.25,933.028038800882
2395.5,932.201751830669
2395.75,931.375464860456
2396,930.549177890242
2396.25,929.722890920029
2396.5,928.896603949816
2396.75,928.070316979602
2397,927.244030009389
2397.25,926.417743039176
2397.5,925.591456068962
2397.75,924.765169098749
2398,923.938882128535
2398.25,923.112595158322
2398.5,922.286308188109
2398.75,921.460021217895
2399,920.633734247682
2399.25,919.807447277469
2399.5,918.981160307255
2399.75,918.154873337042
2400,917.328586366829
2400.25,916.502299396615
2400.5,915.676012426402
2400.75,914.849725456188
2401,914.023438485975
2401.25,913.197151515762
2401.5,912.370864545548
2401.75,911.544577575335
2402,910.718290605122
2402.25,909.892003634908
2402.5,909.065716664695
2402.75,908.239429694481
2403,907.413142724268
2403.25,906.586855754055
2403.5,905.760568783841
2403.75,904.934281813628
2404,904.107994843415
2404.25,903.281707873201
2404.5,902.455420902988
2404.75,901.629133932774
2405,900.802846962561
2405.25,899.976559992348
2405.5,899.150273022134
2405.75,898.323986051921
2406,897.497699081708
2406.25,896.671412111494
2406.5,895.845125141281
2406.75,895.018838171068
2407,894.192551200854
2407.25,893.366264230641
2407.5,892.539977260427
2407.75,891.713690290214
2408,890.887403320001
2408.25,890.061116349787
2408.5,889.234829379574
2408.75,888.408542409361
2409,887.582255439147
2409.25,886.755968468934
2409.5,885.92968149872
2409.75,885.103394528507
2410,884.277107558294
2410.25,883.45082058808
2410.5,882.624533617867
2410.75,881.798246647654
2411,880.97195967744
2411.25,880.145672707227
2411.5,879.319385737013
2411.75,878.4930987668
2412,877.666811796587
2412.25,876.840524826373
2412.5,876.01423785616
2412.75,875.187950885947
2413,874.361663915733
2413.25,873.53537694552
2413.5,872.709089975307
2413.75,871.882803005093
2414,871.05651603488
2414.25,870.230229064666
2414.5,869.403942094453
2414.75,868.57765512424
2415,867.751368154026
2415.25,866.925081183813
2415.5,866.0987942136
2415.75,865.272507243386
2416,864.446220273173
2416.25,863.61993330296
2416.5,862.793646332746
2416.75,861.967359362533
2417,861.141072392319
2417.25,860.314785422106
2417.5,859.488498451893
2417.75,858.662211481679
2418,857.835924511466
2418.25,857.009637541253
2418.5,856.183350571039
2418.75,855.357063600826
2419,854.530776630612
2419.25,853.704489660399
2419.5,852.878202690186
2419.75,852.051915719972
2420,851.225628749759
2420.25,850.399341779546
2420.5,849.573054809332
2420.75,848.746767839119
2421,847.920480868906
2421.25,847.094193898692
2421.5,846.267906928479
2421.75,845.441619958265
2422,844.615332988052
2422.25,843.789046017839
2422.5,842.962759047625
2422.75,842.136472077412
2423,841.310185107199
2423.25,840.483898136985
2423.5,839.657611166772
2423.75,838.831324196559
2424,838.005037226345
2424.25,837.178750256132
2424.5,836.352463285918
2424.75,828.03507282054
2425,823.687973700668
2425.25,824.261278342718
2425.5,830.64575422831
2425.75,841.307301155757
2426,850.723901911835
2426.25,853.002208995107
2426.5,844.561076583217
2426.75,831.086987539938
2427,820.58804696502
2427.25,820.588698140855
2427.5,831.003196017896
2427.75,845.6905325923
2428,858.378344082963
2428.25,865.352202472258
2428.5,867.101139403807
2428.75,864.5051825095
2429,858.527010558341
2429.25,850.587945096926
2429.5,842.26748891956
2429.75,835.14529474098
2430,830.801061873117
2430.25,830.814544743432
2430.5,836.764609143752
2430.75,848.305447345805
2431,859.094066806443
2431.25,861.622699291906
2431.5,849.666102089356
2431.75,828.545466876483
2432,809.693837655228
2432.25,804.499467883168
2432.5,816.576319437978
2432.75,836.360895085147
2433,853.014981780954
2433.25,859.246869673507
2433.5,858.806077095084
2433.75,857.584654163907
2434,861.054091050509
2434.25,869.962349510906
2434.5,882.086733445427
2434.75,895.161429751487
2435,907.312160004449
2435.25,917.437059213178
2435.5,924.524705027938
2435.75,927.687023780551
2436,927.420319596925
2436.25,925.091064458185
2436.5,922.079234839541
2436.75,919.637548642095
2437,918.465926469446
2437.25,919.114224342533
2437.5,922.120068394804
2437.75,926.945851733925
2438,931.153993493744
2438.25,932.11278609041
2438.5,927.40456490546
2438.75,917.805074840565
2439,906.543602174952
2439.25,896.91227294472
2439.5,891.616352718758
2439.75,889.953455135582
2440,889.994342811144
2440.25,889.819303415341
2440.5,888.42273082048
2440.75,886.378286667379
2441,884.416414792649
2441.25,883.172994682668
2441.5,882.412602566624
2441.75,881.429881092185
2442,879.518172842957
2442.25,876.689095846531
2442.5,874.569672033056
2442.75,875.007501431924
2443,879.594281242402
2443.25,887.058345425745
2443.5,894.332302298285
2443.75,898.324897809043
2444,897.117390712767
2444.25,891.611124768544
2444.5,883.122789794576
2444.75,873.009506049538
2445,863.280093380014
2445.25,856.470085578358
2445.5,855.129799162298
2445.75,860.545512449124
2446,869.846657981316
2446.25,879.309442532192
2446.5,885.446806779944
2446.75,887.744513143324
2447,887.71660084643
2447.25,886.915844921684
2447.5,886.563169904604
2447.75,886.943248538616
2448,888.17682135951
2448.25,890.343593958278
2448.5,892.829563006584
2448.75,894.442759933131
2449,893.973573083933
2449.25,890.619050182667
2449.5,885.136088335638
2449.75,878.65553008561
2450,872.326716833572
2450.25,867.879371183274
2450.5,867.725459332026
2450.75,874.315985944741
2451,888.050687438766
2451.25,899.448368767761
2451.5,896.056439185717
2451.75,866.204710390178
2452,822.761482151774
2452.25,822.859594945708
2452.5,822.957707739642
2452.75,823.055820533576
2453,823.15393332751
2453.25,823.252046121444
2453.5,823.350158915378
2453.75,823.448271709312
2454,823.546384503246
2454.25,823.64449729718
2454.5,823.742610091114
2454.75,823.840722885048
2455,823.938835678982
2455.25,824.036948472916
2455.5,824.13506126685
2455.75,824.233174060784
2456,824.331286854718
2456.25,824.429399648652
2456.5,824.527512442585
2456.75,824.625625236519
2457,824.723738030453
2457.25,824.821850824387
2457.5,824.919963618321
2457.75,825.018076412255
2458,825.116189206189
2458.25,825.214302000123
2458.5,825.312414794057
2458.75,825.410527587991
2459,825.508640381925
2459.25,825.606753175859
2459.5,825.704865969793
2459.75,825.802978763727
2460,825.901091557661
2460.25,825.999204351595
2460.5,826.097317145528
2460.75,826.195429939462
2461,826.293542733396
2461.25,826.39165552733
2461.5,826.489768321264
2461.75,826.587881115198
2462,826.685993909132
2462.25,826.784106703066
2462.5,826.882219497
2462.75,826.980332290934
2463,827.078445084868
2463.25,827.176557878802
2463.5,822.485029822082
2463.75,822.875526162616
2464,827.897062682224
2464.25,834.654471170728
2464.5,840.293960154252
2464.75,843.699304990433
2465,845.684181263689
2465.25,847.162722780041
2465.5,848.848530709539
2465.75,850.872902246761
2466,853.262035019883
2466.25,855.904587328385
2466.5,857.364190508196
2466.75,855.463920119752
2467,848.060031181982
2467.25,836.099287868456
2467.5,825.709883583004
2467.75,823.514799499495
2468,833.954649943387
2468.25,849.672279340026
2468.5,859.342032979067
2468.75,852.546038486783
2469,832.266386203734
2469.25,811.685259325043
2469.5,804.218694027295
2469.75,816.032689707711
2470,835.606785215402
2470.25,848.774304454166
2470.5,844.999152705187
2470.75,830.496745469783
2471,816.310649199001
2471.25,812.98592621288
2471.5,822.148501172688
2471.75,837.72974439084
2472,853.44284482097
2472.25,865.548701729294
2472.5,874.572894363886
2472.75,881.447412408571
2473,887.053819835164
2473.25,892.008119600948
2473.5,896.839205916427
2473.75,902.060604434669
2474,907.517071579104
2474.25,912.139651248645
2474.5,914.793580639975
2474.75,914.582939577272
2475,912.489036501012
2475.25,910.380488914747
2475.5,910.130026780904
2475.75,912.696352212038
2476,916.483994743942
2476.25,919.454775300959
2476.5,919.644179240279
2476.75,916.94168433543
2477,913.184084539403
2477.25,910.300517103722
2477.5,909.812425434338
2477.75,910.240527979423
2478,908.765441350526
2478.25,902.567057115653
2478.5,890.850403221686
2478.75,877.859936807416
2479,868.61081866186
2479.25,867.822303670902
2479.5,874.66775934924
2479.75,883.3956626249
2480,888.084178136186
2480.25,885.070959679384
2480.5,877.864400391007
2480.75,871.392125225035
2481,870.344612028177
2481.25,874.563826903645
2481.5,879.357690058352
2481.75,879.860107916864
2482,873.007700999859
2482.25,862.024142992251
2482.5,851.502853838138
2482.75,845.852168722278
2483,845.699790342281
2483.25,848.139879263667
2483.5,850.132205274751
2483.75,849.362059104875
2484,845.467671460587
2484.25,838.412533041785
2484.5,828.444977770822
2484.75,818.428531535006
2485,812.633174172565
2485.25,815.217263703049
2485.5,825.179675073842
2485.75,834.641713653587
2486,835.255139628643
2486.25,823.185476758623
2486.5,806.598902411218
2486.75,795.633904817748
2487,798.755222912057
2487.25,811.832391296512
2487.5,825.000414841864
2487.75,829.034001310915
2488,824.161634578779
2488.25,817.616816604723
2488.5,816.727488420296
2488.75,823.464624279156
2489,830.781792060676
2489.25,830.767126449805
2489.5,818.895333112242
2489.75,802.705648050222
2490,792.422737775889
2490.25,796.924739197905
2490.5,811.883770733759
2490.75,825.486287881914
2491,826.430091868693
2491.25,814.534225135855
2491.5,799.458327770015
2491.75,791.165241392123
2492,794.482018488109
2492.25,803.83945427851
2492.5,812.4133303479
2492.75,815.395112722253
2493,814.57576947494
2493.25,813.094788593817
2493.5,813.576457108153
2493.75,815.063118158188
2494,815.075933132685
2494.25,811.306926592315
2494.5,804.463094877896
2494.75,797.780718108061
2495,794.552338816473
2495.25,796.509940833758
2495.5,802.819824902959
2495.75,812.407989102453
2496,823.249601599889
2496.25,830.741353857946
2496.5,829.847070062671
2496.75,817.257371735888
2497,799.365882878039
2497.25,785.952805349061
2497.5,786.15268482705
2497.75,798.204923534057
2498,811.313158090523
2498.25,814.670599718038
2498.5,805.820650987222
2498.75,792.183414863988
2499,781.740610255935
2499.25,779.767955177284
2499.5,785.077862788064
2499.75,795.538111525965
2500,808.271263769271
2500.25,817.786156109659
2500.5,818.0189154483
2500.75,804.802391386077
2501,785.428507653132
2501.25,771.470876380689
2501.5,773.629732663467
2501.75,789.220160139636
2502,805.146864579844
2502.25,808.606393100432
2502.5,798.87191191362
2502.75,786.793977063035
2503,783.618419202589
2503.25,794.137220668711
2503.5,811.602723700853
2503.75,828.074540887349
2504,837.486434231055
2504.25,838.612776533145
2504.5,830.998985613958
2504.75,815.060939773686
2505,796.802854295216
2505.25,784.43744720952
2505.5,785.701906982802
2505.75,798.624634268166
2506,812.222485940046
2506.25,815.386921278118
2506.5,805.57008636457
2506.75,791.443171057587
2507,782.431013329099
2507.25,784.179776999391
2507.5,792.127350700325
2507.75,800.004830840229
2508,802.83558419779
2508.25,800.799059425064
2508.5,795.360483909298
2508.75,788.141146146545
2509,781.912275613129
2509.25,779.959162548785
2509.5,785.17537352925
2509.75,795.104426492239
2510,803.434407026311
2510.25,804.057094648826
2510.5,797.471877768655
2510.75,790.766533227505
2511,791.25295380426
2511.25,800.732945910602
2511.5,811.181106186923
2511.75,813.562012510424
2512,803.497235602401
2512.25,789.613118666483
2512.5,782.788475620562
2512.75,791.291000523142
2513,807.681542708322
2513.25,818.675747968731
2513.5,812.74624359228
2513.75,794.620712093371
2514,777.783481212895
2514.25,775.391692909902
2514.5,788.935949559687
2514.75,806.874564206522
2515,817.130980299706
2515.25,815.096129120503
2515.5,806.894699075841
2515.75,799.481224122021
2516,797.589393485351
2516.25,799.388052104697
2516.5,801.838849036705
2516.75,802.873765975955
2517,805.643337976641
2517.25,815.044823941251
2517.5,834.989000021245
2517.75,858.971163473446
2518,874.24114870736
2518.25,868.302442820529
2518.5,840.782980633266
2518.75,806.489656894172
2519,781.188325489419
2519.25,777.113729374326
2519.5,788.428152236143
2519.75,803.527482299066
2520,812.189160670532
2520.25,814.477440220141
2520.5,815.089863317431
2520.75,818.428703066625
2521,823.62501672575
2521.25,825.469231363636
2521.5,818.699645229699
2521.75,803.550258548143
2522,789.312467341139
2522.25,786.12334903529
2522.5,799.697494037211
2522.75,819.215133202378
2523,829.993163492004
2523.25,820.744739282144
2523.5,799.795932947674
2523.75,782.497673136949
2524,783.31509254474
2524.25,800.864586954721
2524.5,820.166859239694
2524.75,826.188815722604
2525,815.992315944523
2525.25,800.829856922982
2525.5,792.755840057509
2525.75,799.324225273231
2526,816.006357528341
2526.25,836.266859029632
2526.5,854.10950563233
2526.75,865.948069995758
2527,868.869439428792
2527.25,860.392235931741
2527.5,844.123629188827
2527.75,828.174969364136
2528,820.754813401976
2528.25,826.048047623539
2528.5,837.812221010123
2528.75,848.137893653071
2529,850.342579901835
2529.25,845.172564882872
2529.5,836.155512475145
2529.75,826.801897540623
2530,820.027765634034
2530.25,818.101943076639
2530.5,823.255490510635
2530.75,835.147407288042
2531,846.6998614066
2531.25,849.74553143712
2531.5,838.165247355576
2531.75,818.540813301517
2532,802.315989636337
2532.25,800.597576233195
2532.5,814.775509930325
2532.75,835.444795520345
2533,852.675866775459
2533.25,860.629787448824
2533.5,861.117931518964
2533.75,856.790917993202
2534,850.150123004634
2534.25,842.806034406251
2534.5,836.039967365962
2534.75,831.130080426421
2535,829.27456984086
2535.25,831.57907450766
2535.5,839.142049234019
2535.75,851.098515139862
2536,860.95152514479
2536.25,861.20062478504
2536.5,845.854532788902
2536.75,821.620824686629
2537,801.565100517776
2537.25,798.640221119889
2537.5,815.533570708629
2537.75,838.630864380294
2538,852.8795686648
2538.25,849.353826064118
2538.5,835.507369433799
2538.75,821.502046904591
2539,816.552932086602
2539.25,821.014836290932
2539.5,830.40370564915
2539.75,840.248158633207
2540,847.870258398926
2540.25,852.621929439821
2540.5,853.96500916899
2540.75,852.099366177493
2541,849.363038940235
2541.25,848.479053736431
2541.5,851.750927003526
2541.75,857.039817251903
2542,859.53449857902
2542.25,854.440910686266
2542.5,841.232166666862
2542.75,826.676113826058
2543,818.254998274682
2543.25,821.755603236633
2543.5,832.877562128554
2543.75,843.605035057921
2544,846.397479470419
2544.25,840.997847950613
2544.5,832.799547588397
2544.75,827.331969074218
2545,827.976963794092
2545.25,833.497923127679
2545.5,842.059289823459
2545.75,851.875296762412
2546,861.428455114544
2546.25,869.291234081176
2546.5,874.130549482133
2546.75,876.511827014967
2547,878.759039379672
2547.25,883.262433393979
2547.5,891.413977690745
2547.75,901.078624652432
2548,909.34277351017
2548.25,913.436542287917
2548.5,913.751881774583
2548.75,913.764744880266
2549,917.079234147776
2549.25,926.460389113339
2549.5,939.567217055222
2549.75,952.137967049553
2550,959.914126550999
2550.25,960.2641738607
2550.5,954.292487692726
2550.75,943.625764151833
2551,929.903165505211
2551.25,915.412071603793
2551.5,903.391089685864
2551.75,897.154703454445
2552,899.742924361663
2552.25,910.308037221496
2552.5,925.117834455732
2552.75,940.371912967433
2553,952.858010730945
2553.25,961.5394272348
2553.5,965.882384670846
2553.75,965.362943171242
2554,960.476515243814
2554.25,953.612336601068
2554.5,947.365702077461
2554.75,944.283399470658
2555,945.052055201845
2555.25,947.956558127763
2555.5,951.12275293752
2555.75,952.766968183974
2556,952.346112357422
2556.25,950.217262189962
2556.5,946.757692596615
2556.75,942.321686582495
2557,937.101315810778
2557.25,931.21886055976
2557.5,924.796327673332
2557.75,917.878367351621
2558,910.227356825681
2558.25,901.541307284015
2558.5,891.53709972815
2558.75,881.085101561347
2559,872.855938966922
2559.25,869.676552153828
2559.5,873.681260253078
2559.75,880.993288592856
2560,884.648095922201
2560.25,877.711940047448
2560.5,858.816151090118
2560.75,836.797907484858
2561,821.587064408174
2561.25,821.695612210978
2561.5,833.173281278868
2561.75,845.601158906507
2562,848.853578797877
2562.25,842.200153863755
2562.5,835.146403077653
2562.75,837.713089251266
2563,854.683397424757
2563.25,873.904323093138
2563.5,879.805898669124
2563.75,860.310188492097
2564,836.593227910016
2564.25,848.246434504162
2564.5,934.85725804514
2564.75,1101.03112815553
2565,1276.62363878905
2565.25,1381.86863141227
2565.5,1342.27927043965
2565.75,1167.74275722065
2566,1162.57879007859
2566.25,1157.41482293653
2566.5,1152.25085579446
2566.75,1147.0868886524
2567,1141.92292151034
2567.25,1136.75895436827
2567.5,1131.59498722621
2567.75,1126.43102008415
2568,1121.26705294208
2568.25,1116.10308580002
2568.5,1110.93911865795
2568.75,1105.77515151589
2569,1100.61118437383
2569.25,1095.44721723176
2569.5,1090.2832500897
2569.75,1085.11928294764
2570,1079.95531580557
2570.25,1074.79134866351
2570.5,1069.62738152145
2570.75,1064.46341437938
2571,1059.29944723732
2571.25,1054.13548009526
2571.5,1048.97151295319
2571.75,1043.80754581113
2572,1038.64357866907
2572.25,1033.479611527
2572.5,1028.31564438494
2572.75,1023.15167724288
2573,1017.98771010081
2573.25,1012.82374295875
2573.5,1007.65977581669
2573.75,1002.49580867462
2574,997.331841532558
2574.25,992.167874390495
2574.5,987.003907248431
2574.75,981.839940106368
2575,976.675972964304
2575.25,971.512005822241
2575.5,966.348038680177
2575.75,961.184071538114
2576,956.02010439605
2576.25,950.856137253987
2576.5,945.692170111923
2576.75,940.52820296986
2577,935.364235827796
2577.25,930.200268685733
2577.5,925.036301543669
2577.75,919.872334401606
2578,914.708367259542
2578.25,909.544400117479
2578.5,904.380432975415
2578.75,899.216465833352
2579,894.052498691289
2579.25,888.888531549225
2579.5,883.724564407162
2579.75,878.560597265098
2580,873.396630123035
2580.25,868.232662980971
2580.5,863.068695838908
2580.75,851.939594170464
2581,841.868539706147
2581.25,840.26934056826
2581.5,846.521055772891
2581.75,854.218414491585
2582,856.867051025783
2582.25,851.964634841959
2582.5,844.439723915726
2582.75,840.03132079465
2583,843.278305421495
2583.25,850.847418598406
2583.5,856.232814748541
2583.75,853.174763758995
2584,841.938028089525
2584.25,829.702728950963
2584.5,823.981777656932
2584.75,829.821203404483
2585,843.866130634186
2585.25,860.974976624052
2585.5,876.238187021415
2585.75,886.713379382967
2586,890.449292258878
2586.25,885.53662563113
2586.5,872.771101894117
2586.75,857.558492341647
2587,845.754257664698
2587.25,842.524298097599
2587.5,846.95407470063
2587.75,854.964589431526
2588,862.47858610058
2588.25,866.769322714528
2588.5,867.007939304958
2588.75,862.507954364182
2589,853.427606624304
2589.25,844.092278335198
2589.5,840.110121687984
2589.75,846.793198902938
2590,862.036996594148
2590.25,875.971953154212
2590.5,878.368119191559
2590.75,864.319396399639
2591,844.083467617533
2591.25,830.599909973484
2591.5,835.81458407176
2591.75,856.721752517034
2592,878.763487695681
2592.25,887.18334900699
2592.5,876.585958855195
2592.75,858.385655239125
2593,845.749608327504
2593.25,850.17551075631
2593.5,867.660915118441
2593.75,885.791965657568
2594,892.230735423597
2594.25,883.095316771321
2594.5,867.011214104846
2594.75,853.612706667013
2595,851.394229896908
2595.25,859.950699705788
2595.5,874.694327673231
2595.75,891.036015453282
2596,905.425555560052
2596.25,915.753877639588
2596.5,920.018022211424
2596.75,916.710830945677
2597,907.601866472019
2597.25,895.790293503487
2597.5,884.381346902518
2597.75,877.402148359712
2598,881.214007109399
2598.25,902.542064737978
2598.5,946.90742248214
2598.75,1002.60539205947
2599,1045.06372060308
2599.25,1049.40107564142
2599.5,998.740187754029
2599.75,914.142747257545
2600,827.899943030108
2600.25,772.304680273005
2600.5,774.94606951183
2600.75,822.697128783109
2601,881.561136031017
2601.25,919.717520079859
2601.5,930.993188149964
2601.75,925.022519941083
2602,911.670934301006
2602.25,899.148159660844
2602.5,890.683991409815
2602.75,888.575763845884
2603,895.052472516955
2603.25,910.26508635828
2603.5,931.959042422992
2603.75,957.745497846491
2604,983.861489184475
2604.25,998.643505746007
2604.5,987.609971992516
2604.75,936.276527750302
2605,846.488329484376
2605.25,778.701991875136
2605.5,806.519340370424
2605.75,828.415049258063
2606,850.310758145702
2606.25,872.20646703334
2606.5,894.102175920979
2606.75,915.997884808618
2607,937.893593696257
2607.25,959.789302583896
2607.5,981.685011471534
2607.75,1003.58072035917
2608,1025.47642924681
2608.25,1047.37213813445
2608.5,1069.26784702209
2608.75,1091.16355590973
2609,1113.05926479737
2609.25,1134.95497368501
2609.5,1156.85068257264
2609.75,1178.74639146028
2610,1200.64210034792
2610.25,1222.53780923556
2610.5,1244.4335181232
2610.75,1266.32922701084
2611,1288.22493589848
2611.25,1310.12064478612
2611.5,1332.01635367376
2611.75,1353.91206256139
2612,1375.80777144903
2612.25,1397.70348033667
2612.5,1419.59918922431
2612.75,1441.49489811195
2613,1463.39060699959
2613.25,1485.28631588723
2613.5,1507.18202477487
2613.75,1529.0777336625
2614,1550.97344255014
2614.25,1617.31583617774
2614.5,1642.49622157147
2614.75,1632.50110779318
2615,1593.31700390462
2615.25,1530.93041896738
2615.5,1451.23472683418
2615.75,1359.17975380832
2616,1259.16674334189
2616.25,1155.59015468876
2616.5,1052.8444471022
2616.75,1048.81313318238
2617,1044.78181926256
2617.25,1040.75050534274
2617.5,1036.71919142291
2617.75,1032.68787750309
2618,1028.65656358327
2618.25,1024.62524966345
2618.5,1020.59393574363
2618.75,1016.5626218238
2619,1012.53130790398
2619.25,1008.49999398416
2619.5,1004.46868006434
2619.75,1000.43736614452
2620,996.406052224693
2620.25,992.374738304871
2620.5,988.343424385049
2620.75,984.312110465227
2621,980.280796545405
2621.25,976.249482625583
2621.5,972.21816870576
2621.75,968.186854785938
2622,964.155540866116
2622.25,960.124226946294
2622.5,956.092913026472
2622.75,952.06159910665
2623,948.030285186828
2623.25,943.998971267006
2623.5,939.967657347184
2623.75,935.936343427362
2624,931.905029507539
2624.25,927.873715587717
2624.5,923.842401667895
2624.75,919.811087748073
2625,915.779773828251
2625.25,911.748459908429
2625.5,907.717145988607
2625.75,903.685832068785
2626,891.431429004653
2626.25,872.121215490715
2626.5,857.200755451578
2626.75,857.715716468847
2627,873.45208459657
2627.25,891.655352128066
2627.5,898.914283570249
2627.75,886.863382178247
2628,865.104678694119
2628.25,847.237844543339
2628.5,846.459120372384
2628.75,863.630663825744
2629,885.298417105489
2629.25,897.207028934937
2629.5,890.444783491776
2629.75,873.597044621197
2630,858.824807355851
2630.25,857.883989052545
2630.5,872.232994551185
2630.75,892.456471984839
2631,908.619026128057
2631.25,913.505701990747
2631.5,909.126626054714
2631.75,899.445476463814
2632,888.40026746283
2632.25,879.05625485092
2632.5,873.41235102112
2632.75,873.402599735189
2633,880.125309859497
2633.25,889.428924753827
2633.5,895.128169331732
2633.75,891.147252814754
2634,877.268308962125
2634.25,861.831800838772
2634.5,853.856647716187
2634.75,860.749741831664
2635,877.193528302904
2635.25,891.833944483375
2635.5,893.460748978351
2635.75,879.640068858941
2636,860.484093465919
2636.25,847.069476825087
2636.5,848.925143522413
2636.75,863.529033890696
2637,882.708544275964
2637.25,898.286731687842
2637.5,903.179890988555
2637.75,891.724658909583
2638,858.352614856362
2638.25,801.789568916216
2638.5,805.003299194692
2638.75,808.217029473168
2639,811.430759751644
2639.25,814.64449003012
2639.5,817.858220308596
2639.75,821.071950587072
2640,824.285680865548
2640.25,827.499411144024
2640.5,830.7131414225
2640.75,833.926871700976
2641,837.140601979452
2641.25,840.354332257928
2641.5,843.568062536404
2641.75,846.78179281488
2642,849.995523093356
2642.25,853.209253371832
2642.5,856.422983650308
2642.75,859.636713928784
2643,862.85044420726
2643.25,866.064174485736
2643.5,869.277904764212
2643.75,872.491635042688
2644,875.705365321164
2644.25,878.91909559964
2644.5,882.132825878116
2644.75,885.346556156592
2645,888.560286435068
2645.25,891.774016713544
2645.5,894.98774699202
2645.75,898.201477270496
2646,901.415207548972
2646.25,904.628937827448
2646.5,907.842668105924
2646.75,911.0563983844
2647,914.270128662876
2647.25,917.483858941352
2647.5,920.697589219828
2647.75,923.911319498304
2648,927.12504977678
2648.25,930.338780055256
2648.5,933.552510333732
2648.75,936.766240612208
2649,939.979970890684
2649.25,943.19370116916
2649.5,946.407431447636
2649.75,949.621161726112
2650,952.834892004588
2650.25,956.048622283064
2650.5,959.26235256154
2650.75,962.476082840016
2651,965.689813118492
2651.25,968.903543396968
2651.5,972.117273675444
2651.75,975.33100395392
2652,978.544734232396
2652.25,981.758464510872
2652.5,984.972194789348
2652.75,988.185925067824
2653,991.3996553463
2653.25,962.134064171935
2653.5,936.016192863435
2653.75,915.579500259115
2654,902.244932740519
2654.25,896.908904055477
2654.5,900.46443245731
2654.75,911.905673672835
2655,923.839989166464
2655.25,927.533389075705
2655.5,914.605673987712
2655.75,886.67100583393
2656,856.493494772913
2656.25,837.423026467857
2656.5,840.7235695435
2656.75,860.452069861319
2657,882.1921407156
2657.25,891.810714389429
2657.5,886.893976570128
2657.75,879.386323771648
2658,882.109374987051
2658.25,883.319857846498
2658.5,884.530340705946
2658.75,885.740823565394
2659,886.951306424842
2659.25,888.16178928429
2659.5,889.372272143737
2659.75,890.582755003185
2660,891.793237862633
2660.25,893.003720722081
2660.5,894.214203581528
2660.75,895.424686440976
2661,896.635169300424
2661.25,897.845652159872
2661.5,899.056135019319
2661.75,900.266617878767
2662,901.477100738215
2662.25,902.687583597663
2662.5,903.898066457111
2662.75,905.108549316558
2663,906.319032176006
2663.25,907.529515035454
2663.5,908.739997894902
2663.75,909.950480754349
2664,911.160963613797
2664.25,912.371446473245
2664.5,913.581929332693
2664.75,914.79241219214
2665,916.002895051588
2665.25,917.213377911036
2665.5,918.423860770484
2665.75,919.634343629932
2666,920.844826489379
2666.25,922.055309348827
2666.5,923.265792208275
2666.75,939.875539427985
2667,950.00696711718
2667.25,940.370157887597
2667.5,916.529338169212
2667.75,890.78585918652
2668,875.447604518218
2668.25,878.081144678206
2668.5,891.292440741563
2668.75,904.743937272492
2669,908.584792854662
2669.25,900.998314120144
2669.5,886.760890613693
2669.75,870.843877704468
2670,858.165447805735
2670.25,853.391864874323
2670.5,861.114882355626
2670.75,885.635239121277
2671,923.271588458836
2671.25,961.571032403946
2671.5,987.631336133849
2671.75,991.051414750762
2672,972.183172995791
2672.25,934.267647238824
2672.5,880.545939031965
2672.75,816.398879591204
2673,755.170180527945
2673.25,712.055506307579
2673.5,713.973903466183
2673.75,715.892300624788
2674,717.810697783392
2674.25,719.729094941996
2674.5,721.647492100601
2674.75,723.565889259205
2675,725.484286417809
2675.25,727.402683576413
2675.5,729.321080735018
2675.75,731.239477893622
2676,733.157875052226
2676.25,735.076272210831
2676.5,736.994669369435
2676.75,738.913066528039
2677,740.831463686644
2677.25,742.749860845248
2677.5,744.668258003852
2677.75,746.586655162457
2678,748.505052321061
2678.25,750.423449479665
2678.5,752.341846638269
2678.75,754.260243796874
2679,756.178640955478
2679.25,758.097038114082
2679.5,760.015435272687
2679.75,761.933832431291
2680,763.852229589895
2680.25,765.770626748499
2680.5,767.689023907104
2680.75,769.607421065708
2681,771.525818224312
2681.25,773.444215382917
2681.5,775.362612541521
2681.75,777.281009700125
2682,779.19940685873
2682.25,781.117804017334
2682.5,783.036201175938
2682.75,784.954598334542
2683,786.872995493147
2683.25,788.791392651751
2683.5,790.709789810355
2683.75,792.62818696896
2684,794.546584127564
2684.25,796.464981286168
2684.5,798.383378444773
2684.75,800.301775603377
2685,802.220172761981
2685.25,804.138569920586
2685.5,806.05696707919
2685.75,807.975364237794
2686,809.893761396398
2686.25,811.812158555003
2686.5,813.730555713607
2686.75,815.648952872211
2687,817.567350030816
2687.25,819.48574718942
2687.5,821.404144348024
2687.75,823.322541506628
2688,825.240938665233
2688.25,827.159335823837
2688.5,829.077732982441
2688.75,830.996130141046
2689,832.91452729965
2689.25,839.476064456934
2689.5,833.331664828967
2689.75,801.628642019806
2690,730.821330993913
2690.25,613.800944877516
2690.5,490.707663381176
2690.75,422.732832030216
2691,456.68111793407
2691.25,573.573154613157
2691.5,725.388048058784
2691.75,844.968692997801
2692,887.585131569994
2692.25,875.893540374406
2692.5,844.042587012675
2692.75,822.796809893615
2693,817.125950981529
2693.25,820.124391731565
2693.5,824.928380313598
2693.75,827.959246435679
2694,829.495576259835
2694.25,830.036022435876
2694.5,829.962560281708
2694.75,829.354286861373
2695,828.241790507252
2695.25,826.720039957523
2695.5,825.321030993621
2695.75,824.758426430951
2696,825.69455292323
2696.25,827.676485366588
2696.5,829.178306923502
2696.75,828.638812665705
2697,825.942883920049
2697.25,824.070204284281
2697.5,826.399538703481
2697.75,835.191652108219
2698,846.641811122417
2698.25,854.897983747722
2698.5,854.474161619285
2698.75,845.58358784265
2699,832.930716201026
2699.25,821.339060151805
2699.5,814.746146694491
2699.75,814.920931021704
2700,823.306712571864
2700.25,840.357596468483
2700.5,860.756347145982
2700.75,877.098522288628
2701,882.47525157046
2701.25,878.214160235845
2701.5,872.406675360347
2701.75,873.344142740231
2702,886.016937971534
2702.25,904.096602104376
2702.5,918.830574735649
2702.75,921.941518611622
2703,913.538783961161
2703.25,900.909742828842
2703.5,891.5734205914
2703.75,891.465497891738
2704,897.180963564265
2704.25,901.901444912721
2704.5,898.901368336917
2704.75,888.568737395767
2705,883.098600455192
2705.25,895.798770597179
2705.5,937.454756585841
2705.75,993.165832555547
2706,1033.03691919642
2706.25,1026.99208744491
2706.5,959.685949046528
2706.75,861.645659362927
2707,772.302339323957
2707.25,731.087109858874
2707.5,764.052800533871
2707.75,837.655698689532
2708,901.763884557701
2708.25,919.706878053117
2708.5,902.551946490613
2708.75,871.943005392244
2709,849.105004072
2709.25,842.275316656464
2709.5,844.513708198029
2709.75,848.019637365685
2710,846.834430877543
2710.25,842.097320275206
2710.5,836.657069714373
2710.75,833.18981383852
2711,831.987505843791
2711.25,831.603424521389
2711.5,830.561677605595
2711.75,828.324882603795
2712,826.032153576314
2712.25,824.996271482076
2712.5,826.270896822827
2712.75,829.72934090958
2713,834.909004626179
2713.25,841.208842364875
2713.5,846.359739634867
2713.75,846.987760131545
2714,839.758834185209
2714.25,825.635121135377
2714.5,812.688365664149
2714.75,809.657743375354
2715,822.503388318238
2715.25,843.751372962234
2715.5,861.87380944094
2715.75,866.580170210999
2716,860.492834760327
2716.25,853.911748008257
2716.5,857.178230665883
2716.75,856.506977381368
2717,855.835724096854
2717.25,855.164470812339
2717.5,854.493217527824
2717.75,853.821964243309
2718,853.150710958795
2718.25,852.47945767428
2718.5,851.808204389765
2718.75,851.136951105251
2719,850.465697820736
2719.25,849.794444536221
2719.5,849.123191251706
2719.75,848.451937967192
2720,847.780684682677
2720.25,847.109431398162
2720.5,846.438178113647
2720.75,845.766924829133
2721,845.095671544618
2721.25,844.424418260103
2721.5,843.753164975588
2721.75,843.081911691074
2722,842.410658406559
2722.25,841.739405122044
2722.5,841.06815183753
2722.75,840.396898553015
2723,839.7256452685
2723.25,839.054391983985
2723.5,838.383138699471
2723.75,837.711885414956
2724,837.040632130441
2724.25,836.369378845926
2724.5,835.698125561412
2724.75,835.026872276897
2725,834.355618992382
2725.25,833.684365707868
2725.5,833.013112423353
2725.75,832.341859138838
2726,831.670605854323
2726.25,830.999352569809
2726.5,830.328099285294
2726.75,829.656846000779
2727,828.985592716264
2727.25,828.31433943175
2727.5,827.643086147235
2727.75,826.97183286272
2728,826.300579578205
2728.25,825.629326293691
2728.5,824.958073009176
2728.75,824.286819724661
2729,823.615566440146
2729.25,822.944313155632
2729.5,822.273059871117
2729.75,821.601806586602
2730,820.930553302088
2730.25,820.259300017573
2730.5,819.588046733058
2730.75,818.916793448543
2731,818.245540164029
2731.25,817.574286879514
2731.5,816.903033594999
2731.75,816.231780310485
2732,863.371602631897
2732.25,920.157162862445
2732.5,951.621514505017
2732.75,926.058147074876
2733,853.788985451375
2733.25,774.315523878382
2733.5,727.727350288427
2733.75,745.634553528983
2734,804.305441311368
2734.25,857.806501812461
2734.5,869.785488091109
2734.75,850.738130669882
2735,825.36975325969
2735.25,817.546625621015
2735.5,831.337557370041
2735.75,850.77442227291
2736,859.053884607663
2736.25,848.166303066923
2736.5,828.477779702007
2736.75,812.658720902226
2737,811.543998124545
2737.25,821.848690352598
2737.5,833.735851414106
2737.75,837.757090871596
2738,832.483906746091
2738.25,823.643503061279
2738.5,817.203402309537
2738.75,816.734732529211
2739,820.39825360063
2739.25,825.612692644151
2739.5,829.939952906866
2739.75,831.662123565328
2740,829.287239699695
2740.25,821.707490861941
2740.5,813.130853504817
2740.75,811.647552593425
2741,825.266400604559
2741.25,850.050247982324
2741.5,862.460136055377
2741.75,837.137764077985
2742,837.573602811095
2742.25,838.009441544205
2742.5,838.445280277314
2742.75,838.881119010424
2743,839.316957743533
2743.25,839.752796476643
2743.5,840.188635209752
2743.75,840.624473942862
2744,841.060312675971
2744.25,841.496151409081
2744.5,841.93199014219
2744.75,842.3678288753
2745,842.803667608409
2745.25,843.239506341519
2745.5,843.675345074629
2745.75,844.111183807738
2746,844.547022540848
2746.25,844.982861273957
2746.5,845.418700007067
2746.75,845.854538740176
2747,846.290377473286
2747.25,846.726216206395
2747.5,847.162054939505
2747.75,847.597893672614
2748,848.033732405724
2748.25,848.469571138833
2748.5,848.905409871943
2748.75,849.341248605053
2749,849.777087338162
2749.25,850.212926071272
2749.5,850.648764804381
2749.75,851.084603537491
2750,851.5204422706
2750.25,851.95628100371
2750.5,852.392119736819
2750.75,852.827958469929
2751,853.263797203038
2751.25,853.699635936148
2751.5,854.135474669257
2751.75,854.571313402367
2752,855.007152135477
2752.25,855.442990868586
2752.5,855.878829601696
2752.75,856.314668334805
2753,856.750507067915
2753.25,857.186345801024
2753.5,857.622184534134
2753.75,858.058023267243
2754,858.493862000353
2754.25,858.929700733462
2754.5,859.365539466572
2754.75,859.801378199681
2755,860.694508509799
2755.25,862.428117412524
2755.5,861.285232346178
2755.75,854.120882951198
2756,843.119310952695
2756.25,833.36483009441
2756.5,829.926281507858
2756.75,834.128838509946
2757,840.775926794939
2757.25,844.0165950375
2757.5,839.983165909343
2757.75,833.489203807782
2758,831.722928434369
2758.25,841.211200259804
2758.5,858.348047136984
2758.75,871.604699686478
2759,869.31838136763
2759.25,848.430469975848
2759.5,822.222621566631
2759.75,805.803221939671
2760,811.844898501416
2760.25,833.195386619036
2760.5,853.049685681541
2760.75,855.397608942715
2761,840.002537593934
2761.25,820.457948094317
2761.5,810.817821885056
2761.75,818.915212120155
2762,835.269628171859
2762.25,847.412538349747
2762.5,845.429760183548
2762.75,834.1609339063
2763,823.731098373012
2763.25,823.900646930023
2763.5,835.328167216697
2763.75,849.248126792652
2764,856.480082103131
2764.25,852.35988081074
2764.5,842.334998719261
2764.75,833.22655102826
2765,831.219431472461
2765.25,837.397426096211
2765.5,850.391942839059
2765.75,868.723003491919
2766,888.044021483517
2766.25,900.715989783468
2766.5,898.918448732624
2766.75,878.557254473009
2767,850.131417584092
2767.25,827.711837128016
2767.5,825.015168990801
2767.75,842.853190863279
2768,865.75842939751
2768.25,877.231324598201
2768.5,867.737886619108
2768.75,847.311590539477
2769,829.396468461036
2769.25,826.505095633311
2769.5,837.820854262835
2769.75,852.568698477133
2770,859.822712967563
2770.25,855.103074988873
2770.5,844.639243080212
2770.75,835.67123190347
2771,834.241017713076
2771.25,839.31973308833
2771.5,847.29351934624
2771.75,854.618297414931
2772,859.21572476046
2772.25,860.356998081544
2772.5,857.365777742509
2772.75,851.028252487104
2773,846.139168830559
2773.25,848.173913143648
2773.5,861.684421021388
2773.75,881.54963565447
2774,896.877771623879
2774.25,896.802698141638
2774.5,878.952726195046
2774.75,855.67135023548
2775,840.767984813508
2775.25,846.402809005552
2775.5,867.472932152293
2775.75,888.582303975445
2776,894.383103638247
2776.25,880.437617072493
2776.5,859.09191477785
2776.75,844.121105357569
2777,847.423586373479
2777.25,864.900057514237
2777.5,884.354654368276
2777.75,893.719677275358
2778,889.087524759137
2778.25,877.596904866163
2778.5,867.171410319958
2778.75,864.666133660977
2779,869.443695145453
2779.25,877.660534404123
2779.5,885.489530760115
2779.75,890.602841790757
2780,892.880455607371
2780.25,892.379336590536
2780.5,889.524484809873
2780.75,887.28742375995
2781,889.716516001948
2781.25,900.828591062388
2781.5,920.475546255991
2781.75,940.481624765394
2782,951.757236548435
2782.25,946.180714874551
2782.5,926.956005152902
2782.75,904.628953822948
2783,889.869356936255
2783.25,891.202715185819
2783.5,903.914978406277
2783.75,918.244284136459
2784,924.49208487511
2784.25,918.579931877065
2784.5,905.927882328936
2784.75,892.872567924343
2785,885.463354796554
2785.25,885.538508590017
2785.5,891.738630466855
2785.75,902.624518177277
2786,916.246931229201
2786.25,928.896293275881
2786.5,936.483528028411
2786.75,935.079493302014
2787,925.684405367819
2787.25,915.042810714299
2787.5,910.223381375894
2787.75,917.452311710333
2788,934.058177431482
2788.25,952.027898656992
2788.5,963.275936867882
2788.75,962.125657309961
2789,951.206521533766
2789.25,934.936919613109
2789.5,917.73251029714
2789.75,903.412851920759
2790,894.459047034544
2790.25,893.169775239411
2790.5,901.596171189586
2790.75,916.44950626089
2791,929.290581215012
2791.25,931.470545885153
2791.5,917.067660072717
2791.75,893.627851810346
2792,872.847132334649
2792.25,866.389787735058
2792.5,879.456508643249
2792.75,903.069274158742
2793,926.368608285115
2793.25,939.561457396479
2793.5,942.383520557093
2793.75,939.583464858366
2794,935.954673686501
2794.25,935.492361221915
2794.5,939.169238823029
2794.75,947.242691013906
2795,959.958071193721
2795.25,976.40336132097
2795.5,993.563661017857
2795.75,1008.20152800531
2796,1017.1397424585
2796.25,1018.97046601598
2796.5,1014.29938700177
2796.75,1003.84150112145
2797,988.355776959267
2797.25,970.366408083845
2797.5,954.723479156791
2797.75,946.435862036427
2798,950.339677629458
2798.25,965.104561862722
2798.5,981.693658071429
2798.75,990.584550589061
2799,983.080246196936
2799.25,961.611573972548
2799.5,936.590256334539
2799.75,918.602171990481
2800,917.133849549331
2800.25,928.904866994491
2800.5,942.404225956893
2800.75,945.984028663057
2801,931.945130547096
2801.25,908.239348837762
2801.5,886.695556287864
2801.75,879.099692332502
2802,890.018978493511
2802.25,908.753824798857
2802.5,922.663027736838
2802.75,920.487294916928
2803,905.071822264999
2803.25,887.509637157873
2803.5,878.997569951245
2803.75,886.773373562996
2804,902.584998918072
2804.25,914.392686150238
2804.5,910.639026318247
2804.75,891.317584779318
2805,868.232586821646
2805.25,853.722553832741
2805.5,857.76208962304
2805.75,874.523752807335
2806,891.701647661525
2806.25,897.237804188554
2806.5,888.360959673073
2806.75,873.755625060933
2807,862.813687430727
2807.25,863.360644211451
2807.5,872.757904610798
2807.75,884.079346985295
2808,890.47265127936
2808.25,888.802776650944
2808.5,880.97296911641
2808.75,869.245113950031
2809,856.690280454921
2809.25,851.850244786316
2809.5,865.532630353956
2809.75,908.229027747569
2810,974.304252048477
2810.25,1034.84511561598
2810.5,1059.1242254665
2810.75,1021.86323685302
2811,937.5171947715
2811.25,838.141218175929
2811.5,840.206729435044
2811.75,842.272240694159
2812,844.337751953274
2812.25,846.403263212389
2812.5,848.468774471504
2812.75,850.534285730619
2813,852.599796989734
2813.25,854.665308248849
2813.5,856.730819507964
2813.75,858.796330767079
2814,860.861842026194
2814.25,862.927353285309
2814.5,864.992864544424
2814.75,867.058375803539
2815,869.123887062654
2815.25,871.189398321769
2815.5,873.254909580884
2815.75,875.320420839999
2816,877.385932099114
2816.25,879.451443358229
2816.5,881.516954617344
2816.75,883.582465876459
2817,885.647977135574
2817.25,887.713488394689
2817.5,889.778999653804
2817.75,891.844510912919
2818,893.910022172034
2818.25,895.975533431149
2818.5,898.041044690264
2818.75,900.106555949379
2819,902.172067208494
2819.25,904.237578467609
2819.5,906.303089726724
2819.75,908.368600985839
2820,910.434112244954
2820.25,912.499623504069
2820.5,914.565134763184
2820.75,916.630646022299
2821,918.696157281414
2821.25,920.761668540529
2821.5,922.827179799644
2821.75,924.892691058759
2822,926.958202317874
2822.25,929.023713576989
2822.5,931.089224836104
2822.75,933.154736095219
2823,935.220247354334
2823.25,937.285758613449
2823.5,939.351269872564
2823.75,941.416781131679
2824,943.482292390794
2824.25,945.547803649909
2824.5,943.330235363612
2824.75,933.346843662743
2825,919.790207680557
2825.25,907.230081772693
2825.5,900.035336415469
2825.75,898.615045141314
2826,899.754008140149
2826.25,900.103411390174
2826.5,897.018880793495
2826.75,891.419246425887
2827,885.347322911174
2827.25,880.82814755453
2827.5,878.701081981848
2827.75,877.911822517456
2828,877.236460213836
2828.25,875.563402609
2828.5,872.626666324275
2828.75,868.545431869264
2829,863.446020849888
2829.25,857.904362645197
2829.5,853.287169829751
2829.75,851.041475231589
2830,852.250028209292
2830.25,855.520681450706
2830.5,858.43172939856
2830.75,858.61650401281
2831,855.703514135957
2831.25,851.76405456696
2831.5,849.018504382657
2831.75,849.031849284795
2832,850.640326497959
2832.25,851.970106024996
2832.5,851.324049072502
2832.75,849.748262954393
2833,850.452631367792
2833.25,856.674590731397
2833.5,863.330380265139
2833.75,845.852373471411
2834,776.888214041495
2834.25,778.15122994136
2834.5,779.414245841226
2834.75,780.677261741091
2835,781.940277640957
2835.25,783.203293540822
2835.5,784.466309440688
2835.75,785.729325340553
2836,786.992341240419
2836.25,788.255357140284
2836.5,789.51837304015
2836.75,790.781388940015
2837,792.044404839881
2837.25,793.307420739746
2837.5,794.570436639612
2837.75,795.833452539478
2838,797.096468439343
2838.25,798.359484339209
2838.5,799.622500239074
2838.75,800.88551613894
2839,802.148532038805
2839.25,803.411547938671
2839.5,804.674563838536
2839.75,805.937579738402
2840,807.200595638267
2840.25,808.463611538133
2840.5,809.726627437998
2840.75,810.989643337864
2841,812.252659237729
2841.25,813.515675137595
2841.5,814.77869103746
2841.75,816.041706937326
2842,817.304722837191
2842.25,818.567738737057
2842.5,819.830754636922
2842.75,821.093770536788
2843,822.356786436653
2843.25,823.619802336519
2843.5,824.882818236384
2843.75,826.14583413625
2844,827.408850036115
2844.25,828.671865935981
2844.5,829.934881835846
2844.75,831.197897735712
2845,832.460913635577
2845.25,833.723929535443
2845.5,834.986945435308
2845.75,836.249961335174
2846,837.512977235039
2846.25,838.775993134905
2846.5,840.03900903477
2846.75,841.302024934636
2847,842.565040834501
2847.25,843.828056734367
2847.5,845.091072634232
2847.75,846.354088534098
2848,847.617104433963
2848.25,848.880120333829
2848.5,850.143136233694
2848.75,851.40615213356
2849,852.669168033425
2849.25,853.932183933291
2849.5,855.195199833156
2849.75,856.458215733022
2850,857.721231632887
2850.25,858.984247532753
2850.5,871.122562267093
2850.75,875.549440291025
2851,869.953889802356
2851.25,861.294594559948
2851.5,856.986516480033
2851.75,861.280903409469
2852,864.705197579265
2852.25,854.066458776994
2852.5,854.111778990822
2852.75,854.157099204651
2853,854.202419418479
2853.25,854.247739632308
2853.5,854.293059846137
2853.75,854.338380059965
2854,854.383700273794
2854.25,854.429020487622
2854.5,854.474340701451
2854.75,854.519660915279
2855,854.564981129108
2855.25,854.610301342937
2855.5,854.655621556765
2855.75,854.700941770594
2856,854.746261984423
2856.25,854.791582198251
2856.5,854.83690241208
2856.75,854.882222625908
2857,854.927542839737
2857.25,854.972863053566
2857.5,855.018183267394
2857.75,855.063503481223
2858,855.108823695051
2858.25,855.15414390888
2858.5,855.199464122708
2858.75,855.244784336537
2859,848.936765295437
2859.25,859.915663327223
2859.5,884.53654840541
2859.75,904.78613708479
2860,902.243455764111
2860.25,869.098988199204
2860.5,823.607118912979
2860.75,787.951416901334
2861,783.045750557549
2861.25,806.066503090341
2861.5,805.663885598369
2861.75,805.261268106397
2862,804.858650614425
2862.25,804.456033122453
2862.5,804.053415630481
2862.75,803.650798138508
2863,803.248180646536
2863.25,802.845563154564
2863.5,802.442945662592
2863.75,802.04032817062
2864,801.637710678648
2864.25,801.235093186676
2864.5,800.832475694704
2864.75,800.429858202732
2865,800.027240710759
2865.25,799.624623218787
2865.5,799.222005726815
2865.75,798.819388234843
2866,798.416770742871
2866.25,798.014153250899
2866.5,797.611535758927
2866.75,797.208918266955
2867,796.806300774983
2867.25,796.40368328301
2867.5,796.001065791038
2867.75,795.598448299066
2868,795.195830807094
2868.25,794.793213315122
2868.5,794.39059582315
2868.75,793.987978331178
2869,793.585360839206
2869.25,793.182743347233
2869.5,792.780125855261
2869.75,792.377508363289
2870,791.974890871317
2870.25,791.572273379345
2870.5,791.169655887373
2870.75,790.767038395401
2871,790.364420903429
2871.25,789.961803411457
2871.5,780.162751462633
2871.75,773.364641554824
2872,768.619092860062
2872.25,765.101346725406
2872.5,762.782994918803
2872.75,761.951323576311
2873,762.729145784836
2873.25,763.899430635147
2873.5,763.594933500291
2873.75,760.250420003474
2874,755.215561911523
2874.25,751.45337043475
2874.5,751.895464927189
2874.75,758.920013802597
2875,774.552841518391
2875.25,800.109343022262
2875.5,828.743672976525
2875.75,848.359664280257
2876,847.469891060538
2876.25,827.948154340267
2876.5,803.710449478112
2876.75,789.091571911464
2877,791.427037054781
2877.25,799.315969908221
2877.5,798.255468395125
2877.75,778.796118553785
2878,753.21094162338
2878.25,739.608411959329
2878.5,753.252290811828
2878.75,787.274791938805
2879,824.438432597235
2879.25,849.174594245505
2879.5,857.739838256606
2879.75,851.341461160664
2880,831.363171708052
2880.25,802.787415559183
2880.5,774.155290869575
2880.75,754.154342657312
2881,748.253988815566
2881.25,753.220782491351
2881.5,764.364576040981
2881.75,776.987509838766
2882,786.369369928112
2882.25,787.786309253459
2882.5,779.080832773815
2882.75,766.763432719109
2883,759.172779324345
2883.25,762.524719542568
2883.5,771.71527833155
2883.75,777.882508817025
2884,774.044347681105
2884.25,764.425118686488
2884.5,757.37937267643
2884.75,760.051157535415
2885,769.23049133621
2885.25,776.475530109659
2885.5,774.38615262567
2885.75,765.672860459744
2886,758.560933469639
2886.25,760.680742726283
2886.5,770.694881553872
2886.75,780.734677953525
2887,783.253987236374
2887.25,778.057667139307
2887.5,770.773757601043
2887.75,767.063381597029
2888,768.997396959552
2888.25,774.632063765763
2888.5,781.808188542141
2888.75,788.207903061446
2889,791.29906932994
2889.25,788.564571905536
2889.5,780.525696595369
2889.75,773.299957946031
2890,773.603543026327
2890.25,784.307740704737
2890.5,797.171038104667
2890.75,801.955999684676
2891,792.356271011662
2891.25,776.983048013844
2891.5,767.985467778604
2891.75,775.221859254285
2892,792.135322347202
2892.25,805.008502998266
2892.5,801.895276494475
2892.75,787.182481201608
2893,773.953846407122
2893.25,774.776173692993
2893.5,789.320239429867
2893.75,804.818138533631
2894,808.310244654317
2894.25,797.382788104309
2894.5,782.419667706614
2894.75,774.553366675892
2895,779.67994099219
2895.25,791.680271723824
2895.5,802.757972751949
2895.75,807.232056129554
2896,805.891994859988
2896.25,800.760125904757
2896.5,794.063085281549
2896.75,789.194374238707
2897,789.961107867766
2897.25,799.470340012544
2897.5,813.130605932889
2897.75,821.587257464864
2898,815.930940442099
2898.25,798.355300977454
2898.5,781.747742352285
2898.75,779.369306745858
2899,795.519293801835
2899.25,816.130178749775
2899.5,824.892273042122
2899.75,812.844986371887
2900,791.713000768213
2900.25,776.833855849007
2900.5,780.918149530216
2900.75,798.385194258631
2901,815.875957018238
2901.25,821.261714661812
2901.5,814.76010638394
2901.75,803.587262814432
2902,794.922903491337
2902.25,792.309892089295
2902.5,795.024671564225
2902.75,802.088806311143
2903,811.082989782497
2903.25,816.766036413947
2903.5,813.569537309749
2903.75,799.181280081305
2904,782.602994573066
2904.25,775.29209860872
2904.5,786.400621682883
2904.75,807.549490865383
2905,822.3050601364
2905.25,816.020289315042
2905.5,793.798245900698
2905.75,772.800851012681
2906,770.001994007669
2906.25,787.969415188435
2906.5,810.325436211471
2906.75,819.578262129827
2907,809.563441030312
2907.25,792.145538827926
2907.5,780.796092653988
2907.75,784.958527653857
2908,800.099702634453
2908.25,818.657130905338
2908.5,833.666598832153
2908.75,841.175667619409
2909,838.177531153027
2909.25,822.314676171402
2909.5,799.438773570765
2909.75,781.031674501163
2910,778.555841832462
2910.25,794.063410014433
2910.5,813.987217872973
2910.75,823.323779953905
2911,814.657792514533
2911.25,797.509249431815
2911.5,783.690386066711
2911.75,782.799419296814
2912,792.747504324894
2912.25,807.603605663491
2912.5,821.648438889599
2912.75,830.872120539588
2913,832.0837822305
2913.25,822.438436872779
2913.5,805.859883535422
2913.75,792.495594905361
2914,792.68233574225
2914.25,809.422505907813
2914.5,830.081793267505
2914.75,840.019121770079
2915,830.122489332862
2915.25,810.189590223403
2915.5,794.057279952271
2915.75,794.21561705954
2916,808.877926573275
2916.25,827.662216644005
2916.5,840.389196848146
2916.75,843.469639122351
2917,839.495403176498
2917.25,831.29838468486
2917.5,822.036991548121
2917.75,815.630257282072
2918,816.105304744111
2918.25,826.095924053785
2918.5,839.518979342961
2918.75,846.927188723128
2919,839.611368647437
2919.25,820.711626205234
2919.5,802.860285018936
2919.75,798.917172133946
2920,813.557535847376
2920.25,833.244013005372
2920.5,841.982421476515
2920.75,829.182951329326
2921,805.295109394164
2921.25,785.88753421208
2921.5,785.219736332187
2921.75,800.831113082029
2922,818.715277830197
2922.25,825.148286072079
2922.5,817.687589890203
2922.75,804.903718858217
2923,795.806598710811
2923.25,795.995857668628
2923.5,803.740466395371
2923.75,816.359227283045
2924,830.595907778891
