2169,43.2090555573262
2169.25,43.1091224938642
2169.5,43.009189430402
2169.75,42.9092563669397
2170,42.8093233034775
2170.25,42.7093902400153
2170.5,42.609457176553
2170.75,42.5095241130908
2171,42.4095910496286
2171.25,42.3096579861663
2171.5,42.2097249227041
2171.75,42.1097918592421
2172,42.0098587957798
2172.25,41.9099257323176
2172.5,41.8099926688554
2172.75,41.7100596053931
2173,41.6101265419309
2173.25,41.5101934784687
2173.5,41.4102604150064
2173.75,41.3103273515442
2174,41.2193548592738
2174.25,41.1294151021579
2174.5,41.0394753450419
2174.75,40.9495355879259
2175,40.8595958308099
2175.25,40.7696560736939
2175.5,40.6797163165779
2175.75,40.5897765594619
2176,40.4998368023459
2176.25,40.4098970452299
2176.5,40.3199572881139
2176.75,40.230017530998
2177,40.140077773882
2177.25,40.050138016766
2177.5,39.96019825965
2177.75,39.870258502534
2178,39.780318745418
2178.25,39.690378988302
2178.5,39.600439231186
2178.75,39.51049947407
2179,39.2572658018038
2179.25,38.9824498772831
2179.5,38.707633952762
2179.75,38.4328180282409
2180,38.1580021037197
2180.25,37.8831861791986
2180.5,37.6083702546774
2180.75,37.3335543301563
2181,37.0587384056352
2181.25,36.783922481114
2181.5,36.5091065565929
2181.75,36.2342906320723
2182,35.9594747075511
2182.25,35.68465878303
2182.5,35.4098428585089
2182.75,35.1350269339877
2183,34.8602110094666
2183.25,34.5853950849455
2183.5,34.3105791604243
2183.75,34.0357632359032
2184,34.1738565008127
2184.25,34.3737226277372
2184.5,34.5735887546616
2184.75,34.7734548815861
2185,34.9733210085105
2185.25,35.173187135435
2185.5,35.3730532623595
2185.75,35.5729193892839
2186,35.7727855162084
2186.25,35.9726516431328
2186.5,36.1725177700569
2186.75,36.3723838969814
2187,36.5722500239059
2187.25,36.7721161508303
2187.5,36.9719822777548
2187.75,37.1718484046793
2188,37.3717145316037
2188.25,37.5715806585282
2188.5,37.7714467854526
2188.75,37.9713129123771
2189,38.1112663755458
2189.25,38.2411793580467
2189.5,38.3710923405476
2189.75,38.5010053230485
2190,38.6309183055494
2190.25,38.7608312880503
2190.5,38.8907442705512
2190.75,39.0206572530521
2191,39.150570235553
2191.25,39.2804832180539
2191.5,39.4103962005546
2191.75,39.5403091830555
2192,39.6702221655564
2192.25,39.8001351480573
2192.5,39.9300481305582
2192.75,40.0599611130591
2193,40.18987409556
2193.25,40.3197870780609
2193.5,40.4497000605618
2193.75,40.5796130430627
2194,40.6716131705606
2194.25,40.7565562745035
2194.5,40.8414993784464
2194.75,40.9264424823893
2195,41.0113855863322
2195.25,41.0963286902751
2195.5,41.181271794218
2195.75,41.2662148981609
2196,41.3511580021038
2196.25,41.4361011060467
2196.5,41.5210442099894
2196.75,41.6059873139323
2197,41.6909304178752
2197.25,41.7758735218181
2197.5,41.860816625761
2197.75,41.9457597297039
2198,42.0307028336468
2198.25,42.1156459375897
2198.5,42.2005890415326
2198.75,42.2855321454755
2199,42.3248736174417
2199.25,42.3548535364804
2199.5,42.3848334555191
2199.75,42.4148133745577
2200,42.4447932935964
2200.25,42.4747732126351
2200.5,42.5047531316738
2200.75,42.5347330507124
2201,42.5647129697511
2201.25,42.5946928887898
2201.5,42.6246728078284
2201.75,42.654652726867
2202,42.6846326459057
2202.25,42.7146125649444
2202.5,42.744592483983
2202.75,42.7745724030217
2203,42.8045523220604
2203.25,42.8345322410991
2203.5,42.8645121601377
2203.75,42.8944920791764
2204,42.9652586619067
2204.25,43.0452051126765
2204.5,43.1251515634463
2204.75,43.2050980142161
2205,43.2850444649858
2205.25,43.3649909157556
2205.5,43.4449373665254
2205.75,43.5248838172952
2206,43.604830268065
2206.25,43.6847767188348
2206.5,43.7647231696044
2206.75,43.8446696203742
2207,43.924616071144
2207.25,44.0045625219138
2207.5,44.0845089726835
2207.75,44.1644554234533
2208,44.2444018742231
2208.25,44.3243483249929
2208.5,44.4042947757627
2208.75,44.4842412265325
2209,44.5441290281452
2209.25,44.5990922130494
2209.5,44.6540553979537
2209.75,44.7090185828579
2210,44.7639817677621
2210.25,44.8189449526663
2210.5,44.8739081375706
2210.75,44.9288713224748
2211,44.983834507379
2211.25,45.0387976922832
2211.5,45.0937608771874
2211.75,45.1487240620916
2212,45.2036872469958
2212.25,45.2586504319001
2212.5,45.3136136168043
2212.75,45.3685768017085
2213,45.4235399866127
2213.25,45.478503171517
2213.5,45.5334663564212
2213.75,45.5884295413253
2214,45.473766614605
2214.25,45.3138737130654
2214.5,45.1539808115258
2214.75,44.9940879099863
2215,44.8341950084467
2215.25,44.6743021069071
2215.5,44.5144092053676
2215.75,44.354516303828
2216,44.1946234022884
2216.25,44.0347305007491
2216.5,43.8748375992096
2216.75,43.71494469767
2217,43.5550517961304
2217.25,43.3951588945909
2217.5,43.2352659930513
2217.75,43.0753730915117
2218,42.9154801899722
2218.25,42.7555872884326
2218.5,42.595694386893
2218.75,42.4358014853537
2219,42.3612214324419
2219.25,42.3112549007108
2219.5,42.2612883689797
2219.75,42.2113218372486
2220,42.1613553055175
2220.25,42.1113887737863
2220.5,42.0614222420552
2220.75,42.0114557103241
2221,41.961489178593
2221.25,41.911522646862
2221.5,41.8615561151309
2221.75,41.8115895833997
2222,41.7616230516686
2222.25,41.7116565199375
2222.5,41.6616899882064
2222.75,41.6117234564753
2223,41.5617569247442
2223.25,41.5117903930131
2223.5,41.4618238612819
2223.75,41.4118573295509
2224,41.3275925158576
2224.25,41.2326561055685
2224.5,41.1377196952794
2224.75,41.0427832849903
2225,40.9478468747011
2225.25,40.852910464412
2225.5,40.7579740541229
2225.75,40.6630376438338
2226,40.5681012335447
2226.25,40.4731648232557
2226.5,40.3782284129666
2226.75,40.2832920026775
2227,40.1883555923884
2227.25,40.0934191820992
2227.5,39.9984827718101
2227.75,39.903546361521
2228,39.8086099512319
2228.25,39.7136735409428
2228.5,39.6187371306536
2228.75,39.5238007203647
2229,39.4588161795174
2229.25,39.4038529946132
2229.5,39.348889809709
2229.75,39.2939266248048
2230,39.2389634399005
2230.25,39.1840002549963
2230.5,39.1290370700921
2230.75,39.0740738851878
2231,39.0191107002836
2231.25,38.9641475153795
2231.5,38.9091843304753
2231.75,38.854221145571
2232,38.7992579606668
2232.25,38.7442947757626
2232.5,38.6893315908584
2232.75,38.6343684059541
2233,38.5794052210499
2233.25,38.5244420361457
2233.5,38.4694788512414
2233.75,38.4145156663373
2234,38.3117508685813
2234.25,38.1918311924266
2234.5,38.0719115162719
2234.75,37.9519918401173
2235,37.8320721639626
2235.25,37.7121524878079
2235.5,37.5922328116532
2235.75,37.4723131354986
2236,37.3523934593439
2236.25,37.2324737831894
2236.5,37.1125541070347
2236.75,36.9926344308801
2237,36.8727147547254
2237.25,36.7527950785707
2237.5,36.632875402416
2237.75,36.5129557262614
2238,36.3930360501067
2238.25,36.273116373952
2238.5,36.1531966977973
2238.75,36.0332770216429
2239,36.010830331814
2239.25,36.0258202913333
2239.5,36.0408102508526
2239.75,36.055800210372
2240,36.0707901698913
2240.25,36.0857801294107
2240.5,36.10077008893
2240.75,36.1157600484493
2241,36.1307500079687
2241.25,36.145739967488
2241.5,36.1607299270073
2241.75,36.1757198865266
2242,36.190709846046
2242.25,36.2056998055653
2242.5,36.2206897650846
2242.75,36.235679724604
2243,36.2506696841233
2243.25,36.2656596436426
2243.5,36.2806496031619
2243.75,36.2956395626813
2244,36.3531476110031
2244.25,36.4280974085997
2244.5,36.5030472061964
2244.75,36.5779970037931
2245,36.6529468013898
2245.25,36.7278965989864
2245.5,36.8028463965831
2245.75,36.8777961941798
2246,36.9527459917763
2246.25,37.027695789373
2246.5,37.1026455869697
2246.75,37.1775953845663
2247,37.252545182163
2247.25,37.3274949797597
2247.5,37.4024447773564
2247.75,37.477394574953
2248,37.5523443725497
2248.25,37.6272941701464
2248.5,37.7022439677429
2248.75,37.7771937653396
2249,37.8208574251745
2249.25,37.8508373442132
2249.5,37.8808172632518
2249.75,37.9107971822905
2250,37.9407771013292
2250.25,37.9707570203679
2250.5,38.0007369394065
2250.75,38.0307168584452
2251,38.0606967774838
2251.25,38.0906766965225
2251.5,38.1206566155611
2251.75,38.1506365345998
2252,38.1806164536385
2252.25,38.2105963726772
2252.5,38.2405762917158
2252.75,38.2705562107545
2253,38.3005361297932
2253.25,38.3305160488318
2253.5,38.3604959678704
2253.75,38.3904758869091
2254,38.4409116118956
2254.25,38.5008714499729
2254.5,38.5608312880502
2254.75,38.6207911261276
2255,38.6807509642049
2255.25,38.7407108022823
2255.5,38.8006706403596
2255.75,38.8606304784369
2256,38.9205903165142
2256.25,38.9805501545915
2256.5,39.0405099926689
2256.75,39.1004698307462
2257,39.1604296688235
2257.25,39.2203895069009
2257.5,39.2803493449782
2257.75,39.3403091830555
2258,39.4002690211329
2258.25,39.4602288592102
2258.5,39.5201886972875
2258.75,39.5801485353648
2259,39.5532068976509
2259.25,39.4832537532273
2259.5,39.4133006088037
2259.75,39.3433474643802
2260,39.2733943199566
2260.25,39.203441175533
2260.5,39.1334880311095
2260.75,39.0635348866859
2261,38.9935817422625
2261.25,38.9236285978389
2261.5,38.8536754534154
2261.75,38.7837223089918
2262,38.7137691645682
2262.25,38.6438160201447
2262.5,38.5738628757211
2262.75,38.5039097312976
2263,38.433956586874
2263.25,38.3640034424504
2263.5,38.294050298027
2263.75,38.2240971536034
2264,38.2327542791572
2264.25,38.2827208108884
2264.5,38.3326873426195
2264.75,38.3826538743506
2265,38.4326204060817
2265.25,38.4825869378128
2265.5,38.5325534695439
2265.75,38.582520001275
2266,38.6324865330061
2266.25,38.6824530647372
2266.5,38.7324195964683
2266.75,38.7823861281994
2267,38.8323526599305
2267.25,38.8823191916617
2267.5,38.9322857233928
2267.75,38.9822522551239
2268,39.032218786855
2268.25,39.0821853185861
2268.5,39.1321518503171
2268.75,39.1821183820483
2269,39.1807490517324
2269.25,39.1507691326937
2269.5,39.120789213655
2269.75,39.0908092946164
2270,39.0608293755777
2270.25,39.030849456539
2270.5,39.0008695375004
2270.75,38.9708896184617
2271,38.9409096994231
2271.25,38.9109297803844
2271.5,38.8809498613457
2271.75,38.8509699423071
2272,38.8209900232684
2272.25,38.7910101042297
2272.5,38.7610301851911
2272.75,38.7310502661524
2273,38.7010703471137
2273.25,38.6710904280751
2273.5,38.6411105090364
2273.75,38.6111305899978
2274,38.5905753354796
2274.25,38.5755853759602
2274.5,38.5605954164409
2274.75,38.5456054569216
2275,38.5306154974022
2275.25,38.5156255378829
2275.5,38.5006355783635
2275.75,38.4856456188442
2276,38.4706556593249
2276.25,38.4556656998056
2276.5,38.4406757402862
2276.75,38.4256857807669
2277,38.4106958212476
2277.25,38.3957058617282
2277.5,38.3807159022089
2277.75,38.3657259426896
2278,38.3507359831702
2278.25,38.3357460236509
2278.5,38.3207560641316
2278.75,38.3057661046122
2279,38.3061492366047
2279.25,38.3161425429509
2279.5,38.3261358492972
2279.75,38.3361291556434
2280,38.3461224619896
2280.25,38.3561157683358
2280.5,38.3661090746821
2280.75,38.3761023810283
2281,38.3860956873745
2281.25,38.3960889937207
2281.5,38.4060823000669
2281.75,38.4160756064132
2282,38.4260689127594
2282.25,38.4360622191056
2282.5,38.4460555254518
2282.75,38.4560488317981
2283,38.4660421381443
2283.25,38.4760354444905
2283.5,38.4860287508367
2283.75,38.4960220571829
2284,38.5511305899978
2284.25,38.6360736939407
2284.5,38.7210167978836
2284.75,38.8059599018265
2285,38.8909030057694
2285.25,38.9758461097123
2285.5,39.0607892136552
2285.75,39.1457323175979
2286,39.2306754215408
2286.25,39.3156185254837
2286.5,39.4005616294266
2286.75,39.4855047333695
2287,39.5704478373124
2287.25,39.6553909412553
2287.5,39.7403340451982
2287.75,39.8252771491411
2288,39.910220253084
2288.25,39.9951633570267
2288.5,40.0801064609696
2288.75,40.1650495649125
2289,40.2176444713607
2289.25,40.2476243903994
2289.5,40.2776043094381
2289.75,40.3075842284767
2290,40.3375641475154
2290.25,40.3675440665541
2290.5,40.3975239855927
2290.75,40.4275039046314
2291,40.45748382367
2291.25,40.4874637427087
2291.5,40.5174436617474
2291.75,40.547423580786
2292,40.5774034998247
2292.25,40.6073834188634
2292.5,40.637363337902
2292.75,40.6673432569407
2293,40.6973231759794
2293.25,40.727303095018
2293.5,40.7572830140567
2293.75,40.7872629330953
2294,40.840233321646
2294.25,40.9101864660696
2294.5,40.9801396104931
2294.75,41.0500927549167
2295,41.1200458993403
2295.25,41.1899990437638
2295.5,41.2599521881874
2295.75,41.3299053326108
2296,41.3998584770344
2296.25,41.4698116214579
2296.5,41.5397647658815
2296.75,41.6097179103051
2297,41.6796710547286
2297.25,41.7496241991522
2297.5,41.8195773435758
2297.75,41.8895304879993
2298,41.9594836324229
2298.25,42.0294367768463
2298.5,42.0993899212699
2298.75,42.1693430656934
2299,42.2140343607561
2299.25,42.2390176266216
2299.5,42.2640008924872
2299.75,42.2889841583527
2300,42.3139674242183
2300.25,42.3389506900839
2300.5,42.3639339559494
2300.75,42.3889172218149
2301,42.4139004876805
2301.25,42.438883753546
2301.5,42.4638670194116
2301.75,42.4888502852772
2302,42.5138335511427
2302.25,42.5388168170083
2302.5,42.5638000828738
2302.75,42.5887833487394
2303,42.6137666146049
2303.25,42.6387498804705
2303.5,42.663733146336
2303.75,42.6887164122016
2304,42.7438389698148
2304.25,42.8237854205846
2304.5,42.9037318713544
2304.75,42.9836783221242
2305,43.063624772894
2305.25,43.1435712236637
2305.5,43.2235176744334
2305.75,43.3034641252032
2306,43.383410575973
2306.25,43.4633570267427
2306.5,43.5433034775125
2306.75,43.6232499282823
2307,43.7031963790521
2307.25,43.7831428298219
2307.5,43.8630892805917
2307.75,43.9430357313614
2308,44.0229821821311
2308.25,44.1029286329009
2308.5,44.1828750836707
2308.75,44.2628215344404
2309,44.3187109935295
2309.25,44.3536875657413
2309.5,44.388664137953
2309.75,44.4236407101648
2310,44.4586172823766
2310.25,44.4935938545884
2310.5,44.5285704268001
2310.75,44.5635469990119
2311,44.5985235712237
2311.25,44.6335001434354
2311.5,44.6684767156472
2311.75,44.703453287859
2312,44.7384298600708
2312.25,44.7734064322826
2312.5,44.8083830044943
2312.75,44.8433595767061
2313,44.8783361489178
2313.25,44.9133127211296
2313.5,44.9482892933414
2313.75,44.9832658655532
2314,45.0260606253785
2314.25,45.0760271571096
2314.5,45.1259936888408
2314.75,45.1759602205719
2315,45.225926752303
2315.25,45.2758932840341
2315.5,45.3258598157651
2315.75,45.3758263474962
2316,45.4257928792274
2316.25,45.4757594109585
2316.5,45.5257259426896
2316.75,45.5756924744207
2317,45.6256590061518
2317.25,45.6756255378829
2317.5,45.7255920696141
2317.75,45.7755586013452
2318,45.8255251330762
2318.25,45.8754916648073
2318.5,45.9254581965384
2318.75,45.9754247282695
2319,45.9796869919995
2319.25,45.9397137666146
2319.5,45.8997405412297
2319.75,45.8597673158448
2320,45.8197940904599
2320.25,45.779820865075
2320.5,45.7398476396902
2320.75,45.6998744143053
2321,45.6599011889204
2321.25,45.6199279635355
2321.5,45.5799547381506
2321.75,45.5399815127657
2322,45.5000082873808
2322.25,45.460035061996
2322.5,45.4200618366111
2322.75,45.3800886112262
2323,45.3401153858414
2323.25,45.3001421604565
2323.5,45.2601689350716
2323.75,45.2201957096867
2324,45.2370828419342
2324.25,45.3120326395308
2324.5,45.3869824371275
2324.75,45.4619322347242
2325,45.5368820323209
2325.25,45.6118318299175
2325.5,45.6867816275141
2325.75,45.7617314251108
2326,45.8366812227074
2326.25,45.9116310203041
2326.5,45.9865808179008
2326.75,46.0615306154974
2327,46.1364804130941
2327.25,46.2114302106908
2327.5,46.2863800082875
2327.75,46.3613298058841
2328,46.4362796034807
2328.25,46.5112294010773
2328.5,46.586179198674
2328.75,46.6611289962707
2329,46.5965741242469
2329.25,46.3817180378031
2329.5,46.1668619513593
2329.75,45.9520058649155
2330,45.7371497784717
2330.25,45.5222936920279
2330.5,45.3074376055845
2330.75,45.0925815191407
2331,44.8777254326969
2331.25,44.6628693462531
2331.5,44.4480132598093
2331.75,44.2331571733655
2332,44.0183010869217
2332.25,43.8034450004779
2332.5,43.5885889140341
2332.75,43.3737328275903
2333,43.1588767411469
2333.25,42.9440206547031
2333.5,42.7291645682593
2333.75,42.5143084818155
2334,42.4420896949607
2334.25,42.5320294520767
2334.5,42.6219692091927
2334.75,42.7119089663087
2335,42.8018487234247
2335.25,42.8917884805405
2335.5,42.9817282376566
2335.75,43.0716679947726
2336,43.1616077518886
2336.25,43.2515475090046
2336.5,43.3414872661206
2336.75,43.4314270232366
2337,43.5213667803526
2337.25,43.6113065374686
2337.5,43.7012462945846
2337.75,43.7911860517005
2338,43.8811258088165
2338.25,43.9710655659325
2338.5,44.0610053230485
2338.75,44.1509450801645
2339,44.1977286201511
2339.25,44.192731966978
2339.5,44.1877353138049
2339.75,44.1827386606317
2340,44.1777420074586
2340.25,44.1727453542855
2340.5,44.1677487011124
2340.75,44.1627520479393
2341,44.1577553947662
2341.25,44.1527587415931
2341.5,44.14776208842
2341.75,44.1427654352469
2342,44.1377687820738
2342.25,44.1327721289006
2342.5,44.1277754757275
2342.75,44.1227788225544
2343,44.1177821693813
2343.25,44.1127855162082
2343.5,44.1077888630351
2343.75,44.102792209862
2344,44.0625244637108
2344.25,43.9775813597679
2344.5,43.892638255825
2344.75,43.8076951518821
2345,43.7227520479392
2345.25,43.6378089439965
2345.5,43.5528658400536
2345.75,43.4679227361107
2346,43.3829796321678
2346.25,43.2980365282249
2346.5,43.213093424282
2346.75,43.1281503203391
2347,43.0432072163962
2347.25,42.9582641124533
2347.5,42.8733210085104
2347.75,42.7883779045677
2348,42.7034348006248
2348.25,42.6184916966819
2348.5,42.533548592739
2348.75,42.4486054887961
2349,42.4
2349.25,42.4
2349.5,42.4
2349.75,42.4
2350,42.4
2350.25,42.4
2350.5,42.4
2350.75,42.4
2351,42.4
2351.25,42.4
2351.5,42.4
2351.75,42.4
2352,42.4
2352.25,42.4
2352.5,42.4
2352.75,42.4
2353,42.4
2353.25,42.4
2353.5,42.4
2353.75,42.4
2354,42.38136486788
2354.25,42.336394989322
2354.5,42.291425110764
2354.75,42.246455232206
2355,42.201485353648
2355.25,42.1565154750901
2355.5,42.1115455965321
2355.75,42.0665757179741
2356,42.0216058394161
2356.25,41.976635960858
2356.5,41.9316660823
2356.75,41.886696203742
2357,41.841726325184
2357.25,41.796756446626
2357.5,41.751786568068
2357.75,41.7068166895101
2358,41.6618468109521
2358.25,41.6168769323941
2358.5,41.5719070538361
2358.75,41.5269371752781
2359,41.4539164249513
2359.25,41.3389934019698
2359.5,41.2240703789882
2359.75,41.1091473560066
2360,40.9942243330251
2360.25,40.8793013100437
2360.5,40.7643782870621
2360.75,40.6494552640806
2361,40.534532241099
2361.25,40.4196092181175
2361.5,40.3046861951359
2361.75,40.1897631721543
2362,40.0748401491728
2362.25,39.9599171261912
2362.5,39.8449941032096
2362.75,39.7300710802283
2363,39.6151480572467
2363.25,39.5002250342651
2363.5,39.3853020112836
2363.75,39.270378988302
2364,39.1883798170401
2364.25,39.1583998980014
2364.5,39.1284199789628
2364.75,39.0984400599241
2365,39.0684601408855
2365.25,39.0384802218468
2365.5,39.0085003028082
2365.75,38.9785203837695
2366,38.9485404647308
2366.25,38.9185605456921
2366.5,38.8885806266535
2366.75,38.8586007076148
2367,38.8286207885761
2367.25,38.7986408695375
2367.5,38.7686609504989
2367.75,38.7386810314602
2368,38.7087011124215
2368.25,38.6787211933828
2368.5,38.6487412743442
2368.75,38.6187613553055
2369,38.5794326331559
2369.25,38.5244694482516
2369.5,38.4695062633474
2369.75,38.4145430784432
2370,38.3595798935391
2370.25,38.3046167086348
2370.5,38.2496535237306
2370.75,38.1946903388264
2371,38.1397271539222
2371.25,38.0847639690179
2371.5,38.0298007841137
2371.75,37.9748375992095
2372,37.9198744143052
2372.25,37.864911229401
2372.5,37.8099480444969
2372.75,37.7549848595927
2373,37.7000216746884
2373.25,37.6450584897842
2373.5,37.59009530488
2373.75,37.5351321199757
2374,37.5216338890129
2374.25,37.5815937270902
2374.5,37.6415535651676
2374.75,37.7015134032449
2375,37.7614732413221
2375.25,37.8214330793995
2375.5,37.8813929174768
2375.75,37.9413527555541
2376,38.0013125936315
2376.25,38.0612724317088
2376.5,38.1212322697862
2376.75,38.1811921078635
2377,38.2411519459408
2377.25,38.3011117840182
2377.5,38.3610716220954
2377.75,38.4210314601727
2378,38.4809912982501
2378.25,38.5409511363274
2378.5,38.6009109744048
2378.75,38.6608708124821
2379,38.7017358875466
2379.25,38.7067325407197
2379.5,38.7117291938928
2379.75,38.716725847066
2380,38.7217225002391
2380.25,38.7267191534122
2380.5,38.7317158065853
2380.75,38.7367124597584
2381,38.7417091129315
2381.25,38.7467057661046
2381.5,38.7517024192777
2381.75,38.7566990724508
2382,38.761695725624
2382.25,38.7666923787971
2382.5,38.7716890319702
2382.75,38.7766856851433
2383,38.7816823383164
2383.25,38.7866789914895
2383.5,38.7916756446626
2383.75,38.7966722978357
2384,38.789986293947
2384.25,38.7600063749083
2384.5,38.7300264558697
2384.75,38.700046536831
2385,38.6700666177924
2385.25,38.6400866987537
2385.5,38.610106779715
2385.75,38.5801268606764
2386,38.5501469416377
2386.25,38.520167022599
2386.5,38.4901871035604
2386.75,38.4602071845217
2387,38.430227265483
2387.25,38.4002473464444
2387.5,38.3702674274057
2387.75,38.3402875083671
2388,38.3103075893284
2388.25,38.2803276702897
2388.5,38.2503477512511
2388.75,38.2203678322124
2389,38.2272342460078
2389.25,38.3121773499507
2389.5,38.3971204538936
2389.75,38.4820635578365
2390,38.5670066617792
2390.25,38.6519497657221
2390.5,38.736892869665
2390.75,38.8218359736079
2391,38.9067790775508
2391.25,38.9917221814937
2391.5,39.0766652854366
2391.75,39.1616083893795
2392,39.2465514933224
2392.25,39.3314945972653
2392.5,39.416437701208
2392.75,39.5013808051509
2393,39.5863239090938
2393.25,39.6712670130367
2393.5,39.7562101169796
2393.75,39.8411532209225
2394,39.8554827399355
2394.25,39.7105797979153
2394.5,39.565676855895
2394.75,39.4207739138751
2395,39.2758709718548
2395.25,39.1309680298346
2395.5,38.9860650878144
2395.75,38.8411621457941
2396,38.6962592037739
2396.25,38.5513562617537
2396.5,38.4064533197334
2396.75,38.2615503777132
2397,38.1166474356929
2397.25,37.971744493673
2397.5,37.8268415516527
2397.75,37.6819386096325
2398,37.5370356676123
2398.25,37.392132725592
2398.5,37.2472297835718
2398.75,37.1023268415516
2399,37.0587256558189
2399.25,37.2585917827433
2399.5,37.4584579096678
2399.75,37.6583240365919
2400,37.8581901635163
2400.25,38.0580562904408
2400.5,38.2579224173653
2400.75,38.4577885442897
2401,38.6576546712142
2401.25,38.8575207981387
2401.5,39.0573869250631
2401.75,39.2572530519876
2402,39.457119178912
2402.25,39.6569853058361
2402.5,39.8568514327606
2402.75,40.0567175596851
2403,40.2565836866095
2403.25,40.456449813534
2403.5,40.6563159404584
2403.75,40.8561820673829
2404,40.9607662639848
2404.25,40.8208599751377
2404.5,40.6809536862906
2404.75,40.5410473974437
2405,40.4011411085966
2405.25,40.2612348197495
2405.5,40.1213285309024
2405.75,39.9814222420552
2406,39.8415159532081
2406.25,39.701609664361
2406.5,39.5617033755139
2406.75,39.4217970866667
2407,39.2818907978196
2407.25,39.1419845089727
2407.5,39.0020782201256
2407.75,38.8621719312785
2408,38.7222656424314
2408.25,38.5823593535843
2408.5,38.4424530647371
2408.75,38.30254677589
2409,38.2160112198388
2409.25,38.2759710579161
2409.5,38.3359308959934
2409.75,38.3958907340707
2410,38.455850572148
2410.25,38.5158104102253
2410.5,38.5757702483027
2410.75,38.63573008638
2411,38.6956899244574
2411.25,38.7556497625347
2411.5,38.815609600612
2411.75,38.8755694386894
2412,38.9355292767667
2412.25,38.9954891148439
2412.5,39.0554489529213
2412.75,39.1154087909986
2413,39.175368629076
2413.25,39.2353284671533
2413.5,39.2952883052306
2413.75,39.355248143308
2414,39.4076039906927
2414.25,39.4375839097313
2414.5,39.46756382877
2414.75,39.4975437478086
2415,39.5275236668473
2415.25,39.557503585886
2415.5,39.5874835049246
2415.75,39.6174634239633
2416,39.647443343002
2416.25,39.6774232620406
2416.5,39.7074031810793
2416.75,39.737383100118
2417,39.7673630191566
2417.25,39.7973429381953
2417.5,39.8273228572339
2417.75,39.8573027762726
2418,39.8872826953113
2418.25,39.9172626143499
2418.5,39.9472425333886
2418.75,39.9772224524273
2419,40.0300098811081
2419.25,40.1549262104359
2419.5,40.2798425397636
2419.75,40.4047588690912
2420,40.529675198419
2420.25,40.6545915277468
2420.5,40.7795078570746
2420.75,40.9044241864024
2421,41.0293405157302
2421.25,41.1542568450579
2421.5,41.2791731743857
2421.75,41.4040895037135
2422,41.5290058330413
2422.25,41.6539221623689
2422.5,41.7788384916967
2422.75,41.9037548210244
2423,42.0286711503522
2423.25,42.15358747968
2423.5,42.2785038090078
2423.75,42.4034201383356
2424,42.4886654129346
2424.25,42.4386988812035
2424.5,42.3887323494725
2424.75,42.3387658177414
2425,42.2887992860103
2425.25,42.2388327542792
2425.5,42.188866222548
2425.75,42.1388996908169
2426,42.0889331590858
2426.25,42.0389666273547
2426.5,41.9890000956236
2426.75,41.9390335638925
2427,41.8890670321614
2427.25,41.8391005004303
2427.5,41.7891339686992
2427.75,41.7391674369681
2428,41.689200905237
2428.25,41.6392343735059
2428.5,41.5892678417747
2428.75,41.5393013100436
2429,41.5031995665062
2429.25,41.5181895260256
2429.5,41.5331794855449
2429.75,41.5481694450642
2430,41.5631594045836
2430.25,41.5781493641029
2430.5,41.5931393236222
2430.75,41.6081292831416
2431,41.6231192426609
2431.25,41.6381092021802
2431.5,41.6530991616996
2431.75,41.6680891212189
2432,41.6830790807382
2432.25,41.6980690402575
2432.5,41.7130589997769
2432.75,41.7280489592962
2433,41.7430389188155
2433.25,41.7580288783349
2433.5,41.7730188378542
2433.75,41.7880087973736
2434,41.8089962706786
2434.25,41.8539661492367
2434.5,41.8989360277946
2434.75,41.9439059063526
2435,41.9888757849106
2435.25,42.0338456634686
2435.5,42.0788155420266
2435.75,42.1237854205846
2436,42.1687552991426
2436.25,42.2137251777006
2436.5,42.2586950562586
2436.75,42.3036649348166
2437,42.3486348133745
2437.25,42.3936046919325
2437.5,42.4385745704905
2437.75,42.4835444490486
2438,42.5285143276066
2438.25,42.5734842061646
2438.5,42.6184540847226
2438.75,42.6634239632806
2439,42.6860102636024
2439.25,42.6110604660057
2439.5,42.5361106684092
2439.75,42.4611608708125
2440,42.3862110732158
2440.25,42.3112612756192
2440.5,42.2363114780225
2440.75,42.1613616804258
2441,42.0864118828291
2441.25,42.0114620852325
2441.5,41.9365122876358
2441.75,41.8615624900391
2442,41.7866126924426
2442.25,41.7116628948459
2442.5,41.6367130972492
2442.75,41.5617632996526
2443,41.4868135020559
2443.25,41.4118637044592
2443.5,41.3369139068625
2443.75,41.2619641092659
2444,41.2034628502216
2444.25,41.223449462914
2444.5,41.2434360756064
2444.75,41.2634226882989
2445,41.2834093009913
2445.25,41.3033959136837
2445.5,41.3233825263762
2445.75,41.3433691390686
2446,41.3633557517611
2446.25,41.3833423644535
2446.5,41.403328977146
2446.75,41.4233155898384
2447,41.4433022025308
2447.25,41.4632888152233
2447.5,41.4832754279157
2447.75,41.5032620406082
2448,41.5232486533006
2448.25,41.5432352659931
2448.5,41.5632218786855
2448.75,41.583208491378
2449,41.5952073438944
2449.25,41.5652274248557
2449.5,41.5352475058171
2449.75,41.5052675867784
2450,41.4752876677398
2450.25,41.4453077487011
2450.5,41.4153278296624
2450.75,41.3853479106238
2451,41.3553679915851
2451.25,41.3253880725464
2451.5,41.2954081535078
2451.75,41.2654282344691
2452,41.2354483154305
2452.25,41.2054683963918
2452.5,41.1754884773531
2452.75,41.1455085583145
2453,41.1155286392758
2453.25,41.0855487202371
2453.5,41.0555688011985
2453.75,41.0255888821598
2454,40.9992681605202
2454.25,40.9942715073471
2454.5,40.989274854174
2454.75,40.9842782010009
2455,40.9792815478277
2455.25,40.9742848946546
2455.5,40.9692882414815
2455.75,40.9642915883084
2456,40.9592949351353
2456.25,40.9542982819622
2456.5,40.9493016287891
2456.75,40.944304975616
2457,40.9393083224429
2457.25,40.9343116692698
2457.5,40.9293150160966
2457.75,40.9243183629235
2458,40.9193217097504
2458.25,40.9143250565773
2458.5,40.9093284034042
2458.75,40.9043317502311
2459,40.9146278647246
2459.25,41.0245542345328
2459.5,41.1344806043413
2459.75,41.2444069741497
2460,41.3543333439582
2460.25,41.4642597137666
2460.5,41.5741860835751
2460.75,41.6841124533835
2461,41.794038823192
2461.25,41.9039651930005
2461.5,42.0138915628089
2461.75,42.1238179326172
2462,42.2337443024256
2462.25,42.3436706722341
2462.5,42.4535970420425
2462.75,42.563523411851
2463,42.6734497816594
2463.25,42.7833761514679
2463.5,42.8933025212763
2463.75,43.0032288910848
2464,43.1209288241484
2464.25,43.2958116852069
2464.5,43.4706945462659
2464.75,43.6455774073248
2465,43.8204602683837
2465.25,43.9953431294426
2465.5,44.1702259905015
2465.75,44.3451088515604
2466,44.5199917126193
2466.25,44.6948745736782
2466.5,44.8697574347371
2466.75,45.0446402957957
2467,45.2195231568546
2467.25,45.3944060179135
2467.5,45.5692888789724
2467.75,45.7441717400313
2468,45.9190546010902
2468.25,46.0939374621491
2468.5,46.268820323208
2468.75,46.4437031842669
2469,46.577696745609
2469.25,46.3678373123387
2469.5,46.157977879068
2469.75,45.9481184457974
2470,45.7382590125267
2470.25,45.528399579256
2470.5,45.3185401459853
2470.75,45.1086807127146
2471,44.8988212794439
2471.25,44.6889618461732
2471.5,44.4791024129026
2471.75,44.2692429796323
2472,44.0593835463616
2472.25,43.8495241130909
2472.5,43.6396646798202
2472.75,43.4298052465495
2473,43.2199458132788
2473.25,43.0100863800081
2473.5,42.8002269467375
2473.75,42.5903675134668
2474,42.3860772001401
2474.25,42.236177604947
2474.5,42.0862780097536
2474.75,41.9363784145603
2475,41.7864788193669
2475.25,41.6365792241736
2475.5,41.4866796289803
2475.75,41.3367800337869
2476,41.1868804385936
2476.25,41.0369808434002
2476.5,40.8870812482069
2476.75,40.7371816530138
2477,40.5872820578204
2477.25,40.4373824626271
2477.5,40.2874828674338
2477.75,40.1375832722404
2478,39.9876836770471
2478.25,39.8377840818537
2478.5,39.6878844866604
2478.75,39.537984891467
2479,39.3920568641825
2479.25,39.2921238007204
2479.5,39.1921907372582
2479.75,39.0922576737959
2480,38.9923246103337
2480.25,38.8923915468715
2480.5,38.7924584834092
2480.75,38.692525419947
2481,38.5925923564848
2481.25,38.4926592930225
2481.5,38.3927262295603
2481.75,38.2927931660983
2482,38.192860102636
2482.25,38.0929270391738
2482.5,37.9929939757116
2482.75,37.8930609122493
2483,37.7931278487871
2483.25,37.6931947853249
2483.5,37.5932617218627
2483.75,37.4933286584004
2484,37.3986791189876
2484.25,37.3786925062952
2484.5,37.3587058936028
2484.75,37.3387192809103
2485,37.3187326682179
2485.25,37.2987460555254
2485.5,37.278759442833
2485.75,37.2587728301406
2486,37.2387862174481
2486.25,37.2187996047557
2486.5,37.1988129920632
2486.75,37.1788263793708
2487,37.1588397666784
2487.25,37.1388531539859
2487.5,37.1188665412935
2487.75,37.098879928601
2488,37.0788933159086
2488.25,37.0589067032161
2488.5,37.0389200905237
2488.75,37.0189334778312
2489,37.0071086603129
2489.25,37.142018295987
2489.5,37.276927931661
2489.75,37.411837567335
2490,37.546747203009
2490.25,37.681656838683
2490.5,37.816566474357
2490.75,37.951476110031
2491,38.086385745705
2491.25,38.2212953813791
2491.5,38.3562050170528
2491.75,38.4911146527268
2492,38.6260242884008
2492.25,38.7609339240749
2492.5,38.8958435597489
2492.75,39.0307531954229
2493,39.1656628310969
2493.25,39.3005724667709
2493.5,39.4354821024449
2493.75,39.5703917381189
2494,39.698821916935
2494.25,39.6688419978963
2494.5,39.6388620788576
2494.75,39.608882159819
2495,39.5789022407803
2495.25,39.5489223217416
2495.5,39.5189424027029
2495.75,39.4889624836643
2496,39.4589825646256
2496.25,39.4290026455869
2496.5,39.3990227265483
2496.75,39.3690428075097
2497,39.339062888471
2497.25,39.3090829694323
2497.5,39.2791030503936
2497.75,39.249123131355
2498,39.2191432123163
2498.25,39.1891632932776
2498.5,39.159183374239
2498.75,39.1292034552003
2499,39.1014235170369
2499.25,39.1563867019411
2499.5,39.2113498868454
2499.75,39.2663130717496
2500,39.3212762566538
2500.25,39.3762394415581
2500.5,39.4312026264623
2500.75,39.4861658113665
2501,39.5411289962707
2501.25,39.596092181175
2501.5,39.6510553660791
2501.75,39.7060185509833
2502,39.7609817358875
2502.25,39.8159449207918
2502.5,39.870908105696
2502.75,39.9258712906002
2503,39.9808344755045
2503.25,40.0357976604087
2503.5,40.0907608453129
2503.75,40.1457240302171
2504,40.2008746374271
2504.25,40.2708277818506
2504.5,40.3407809262742
2504.75,40.4107340706978
2505,40.4806872151213
2505.25,40.5506403595449
2505.5,40.6205935039684
2505.75,40.690546648392
2506,40.7604997928156
2506.25,40.8304529372391
2506.5,40.9004060816626
2506.75,40.9703592260861
2507,41.0403123705097
2507.25,41.1102655149332
2507.5,41.1802186593568
2507.75,41.2501718037804
2508,41.3201249482039
2508.25,41.3900780926275
2508.5,41.460031237051
2508.75,41.5299843814746
2509,41.599937525898
2509.25,41.6
2509.5,41.6
2509.75,41.6
2510,41.6
2510.25,41.6
2510.5,41.6
2510.75,41.6
2511,41.6
2511.25,41.6
2511.5,41.6
2511.75,41.6
2512,41.6
2512.25,41.6
2512.5,41.6
2512.75,41.6
2513,41.6
2513.25,41.6
2513.5,41.6
2513.75,41.6
2514,41.6
2514.25,41.6246262709974
2514.5,41.6496095368629
2514.75,41.6745928027285
2515,41.699576068594
2515.25,41.7245593344596
2515.5,41.7495426003251
2515.75,41.7745258661907
2516,41.7995091320563
2516.25,41.8244923979218
2516.5,41.8494756637873
2516.75,41.8744589296529
2517,41.8994421955184
2517.25,41.924425461384
2517.5,41.9494087272496
2517.75,41.9743919931151
2518,41.9993752589807
2518.25,42.0243585248462
2518.5,42.0493417907118
2518.75,42.0743250565773
2519,42.0993083224429
2519.25,42.1145749529851
2519.5,42.1295649125044
2519.75,42.1445548720237
2520,42.1595448315431
2520.25,42.1745347910624
2520.5,42.1895247505817
2520.75,42.2045147101011
2521,42.2195046696204
2521.25,42.2344946291397
2521.5,42.249484588659
2521.75,42.2644745481784
2522,42.2794645076977
2522.25,42.294454467217
2522.5,42.3094444267364
2522.75,42.3244343862557
2523,42.339424345775
2523.25,42.3544143052944
2523.5,42.3694042648137
2523.75,42.384394224333
2524,42.3993841838524
2524.25,42.4383310489912
2524.5,42.4783042743761
2524.75,42.5182774997609
2525,42.5582507251458
2525.25,42.5982239505307
2525.5,42.6381971759156
2525.75,42.6781704013005
2526,42.7181436266854
2526.25,42.7581168520702
2526.5,42.7980900774551
2526.75,42.83806330284
2527,42.8780365282249
2527.25,42.9180097536098
2527.5,42.9579829789947
2527.75,42.9979562043796
2528,43.0379294297645
2528.25,43.0779026551494
2528.5,43.1178758805343
2528.75,43.1578491059191
2529,43.197822331304
2529.25,43.2519688904472
2529.5,43.3069320753514
2529.75,43.3618952602557
2530,43.4168584451599
2530.25,43.4718216300641
2530.5,43.5267848149683
2530.75,43.5817479998726
2531,43.6367111847768
2531.25,43.6916743696809
2531.5,43.7466375545851
2531.75,43.8016007394894
2532,43.8565639243936
2532.25,43.9115271092978
2532.5,43.966490294202
2532.75,44.0214534791063
2533,44.0764166640105
2533.25,44.1313798489147
2533.5,44.186343033819
2533.75,44.2413062187231
2534,44.2962694036273
2534.25,44.2347948873235
2534.5,44.1648417428999
2534.75,44.0948885984764
2535,44.0249354540528
2535.25,43.9549823096292
2535.5,43.8850291652057
2535.75,43.8150760207821
2536,43.7451228763586
2536.25,43.6751697319351
2536.5,43.6052165875116
2536.75,43.535263443088
2537,43.4653102986644
2537.25,43.3953571542409
2537.5,43.3254040098173
2537.75,43.2554508653938
2538,43.1854977209702
2538.25,43.1155445765466
2538.5,43.0455914321231
2538.75,42.9756382876996
2539,42.9056851432761
2539.25,42.8540942848947
2539.5,42.8041277531635
2539.75,42.7541612214324
2540,42.7041946897013
2540.25,42.6542281579702
2540.5,42.6042616262391
2540.75,42.554295094508
2541,42.5043285627768
2541.25,42.4543620310458
2541.5,42.4043954993147
2541.75,42.3544289675836
2542,42.3044624358525
2542.25,42.2544959041214
2542.5,42.2045293723902
2542.75,42.1545628406591
2543,42.104596308928
2543.25,42.0546297771969
2543.5,42.0046632454658
2543.75,41.9546967137348
2544,41.9047301820036
2544.25,41.954283619673
2544.5,42.0142434577503
2544.75,42.0742032958276
2545,42.134163133905
2545.25,42.1941229719823
2545.5,42.2540828100597
2545.75,42.314042648137
2546,42.3740024862142
2546.25,42.4339623242916
2546.5,42.4939221623689
2546.75,42.5538820004462
2547,42.6138418385236
2547.25,42.6738016766009
2547.5,42.7337615146783
2547.75,42.7937213527556
2548,42.8536811908329
2548.25,42.9136410289103
2548.5,42.9736008669875
2548.75,43.0335607050649
2549,43.0935205431422
2549.25,43.0420629203455
2549.5,42.9771064290951
2549.75,42.9121499378446
2550,42.8471934465942
2550.25,42.7822369553437
2550.5,42.7172804640933
2550.75,42.6523239728428
2551,42.5873674815925
2551.25,42.522410990342
2551.5,42.4574544990916
2551.75,42.3924980078411
2552,42.3275415165907
2552.25,42.2625850253402
2552.5,42.1976285340898
2552.75,42.1326720428393
2553,42.0677155515889
2553.25,42.0027590603384
2553.5,41.9378025690881
2553.75,41.8728460778376
2554,41.8078895865872
2554.25,41.7780511905141
2554.5,41.7530679246486
2554.75,41.728084658783
2555,41.7031013929175
2555.25,41.6781181270519
2555.5,41.6531348611863
2555.75,41.6281515953208
2556,41.6031683294553
2556.25,41.5781850635897
2556.5,41.5532017977242
2556.75,41.5282185318586
2557,41.503235265993
2557.25,41.4782520001275
2557.5,41.4532687342619
2557.75,41.4282854683964
2558,41.4033022025308
2558.25,41.3783189366653
2558.5,41.3533356707997
2558.75,41.3283524049342
2559,41.3033691390686
2559.25,41.2308347942498
2559.5,41.15088834348
2559.75,41.0709418927103
2560,40.9909954419405
2560.25,40.9110489911707
2560.5,40.8311025404009
2560.75,40.7511560896311
2561,40.6712096388615
2561.25,40.5912631880917
2561.5,40.5113167373219
2561.75,40.4313702865521
2562,40.3514238357823
2562.25,40.2714773850126
2562.5,40.1915309342428
2562.75,40.111584483473
2563,40.0316380327032
2563.25,39.9516915819334
2563.5,39.8717451311638
2563.75,39.791798680394
2564,39.7118522296242
2564.25,39.721279444108
2564.5,39.7462627099736
2564.75,39.7712459758391
2565,39.7962292417047
2565.25,39.8212125075702
2565.5,39.8461957734358
2565.75,39.8711790393013
2566,39.8961623051669
2566.25,39.9211455710324
2566.5,39.946128836898
2566.75,39.9711121027635
2567,39.9960953686291
2567.25,40.0210786344946
2567.5,40.0460619003602
2567.75,40.0710451662258
2568,40.0960284320913
2568.25,40.1210116979569
2568.5,40.1459949638224
2568.75,40.1709782296879
2569,40.1959614955535
2569.25,40.267023236541
2569.5,40.3469696873108
2569.75,40.4269161380806
2570,40.5068625888503
2570.25,40.5868090396201
2570.5,40.6667554903899
2570.75,40.7467019411597
2571,40.8266483919293
2571.25,40.9065948426991
2571.5,40.9865412934689
2571.75,41.0664877442387
2572,41.1464341950085
2572.25,41.2263806457783
2572.5,41.306327096548
2572.75,41.3862735473178
2573,41.4662199980876
2573.25,41.5461664488574
2573.5,41.626112899627
2573.75,41.7060593503968
2574,41.7860058011666
2574.25,41.8453421732063
2574.5,41.9003053581105
2574.75,41.9552685430147
2575,42.0102317279189
2575.25,42.0651949128232
2575.5,42.1201580977274
2575.75,42.1751212826315
2576,42.2300844675358
2576.25,42.28504765244
2576.5,42.3400108373442
2576.75,42.3949740222484
2577,42.4499372071527
2577.25,42.5049003920569
2577.5,42.5598635769611
2577.75,42.6148267618654
2578,42.6697899467696
2578.25,42.7247531316737
2578.5,42.7797163165779
2578.75,42.8346795014822
2579,42.8896426863864
2579.25,42.8675593663341
2579.5,42.8275861409492
2579.75,42.7876129155643
2580,42.7476396901794
2580.25,42.7076664647945
2580.5,42.6676932394096
2580.75,42.6277200140248
2581,42.5877467886399
2581.25,42.547773563255
2581.5,42.5078003378701
2581.75,42.4678271124852
2582,42.4278538871004
2582.25,42.3878806617155
2582.5,42.3479074363306
2582.75,42.3079342109457
2583,42.2679609855608
2583.25,42.227987760176
2583.5,42.1880145347911
2583.75,42.1480413094062
2584,42.1080680840213
2584.25,41.9883320052274
2584.5,41.8484257163803
2584.75,41.7085194275331
2585,41.568613138686
2585.25,41.4287068498389
2585.5,41.2888005609918
2585.75,41.1488942721449
2586,41.0089879832978
2586.25,40.8690816944506
2586.5,40.7291754056035
2586.75,40.5892691167564
2587,40.4493628279093
2587.25,40.3094565390622
2587.5,40.169550250215
2587.75,40.0296439613679
2588,39.8897376725208
2588.25,39.7498313836739
2588.5,39.6099250948268
2588.75,39.4700188059797
2589,39.3301125171325
2589.25,39.3823453287859
2589.5,39.4872750454213
2589.75,39.5922047620566
2590,39.697134478692
2590.25,39.8020641953273
2590.5,39.9069939119626
2590.75,40.0119236285978
2591,40.1168533452331
2591.25,40.2217830618685
2591.5,40.3267127785038
2591.75,40.4316424951392
2592,40.5365722117745
2592.25,40.6415019284099
2592.5,40.7464316450452
2592.75,40.8513613616805
2593,40.9562910783159
2593.25,41.061220794951
2593.5,41.1661505115864
2593.75,41.2710802282217
2594,41.3760099448571
2594.25,41.4732311223027
2594.5,41.5681675325918
2594.75,41.6631039428809
2595,41.75804035317
2595.25,41.8529767634591
2595.5,41.9479131737482
2595.75,42.0428495840372
2596,42.1377859943263
2596.25,42.2327224046154
2596.5,42.3276588149046
2596.75,42.4225952251937
2597,42.5175316354828
2597.25,42.6124680457719
2597.5,42.707404456061
2597.75,42.8023408663502
2598,42.8972772766393
2598.25,42.9922136869282
2598.5,43.0871500972173
2598.75,43.1820865075065
2599,43.2770229177956
2599.25,43.3643846619705
2599.5,43.4493277659134
2599.75,43.5342708698563
2600,43.6192139737992
2600.25,43.7041570777421
2600.5,43.789100181685
2600.75,43.8740432856277
2601,43.9589863895706
2601.25,44.0439294935135
2601.5,44.1288725974564
2601.75,44.2138157013993
2602,44.2987588053422
2602.25,44.3837019092851
2602.5,44.468645013228
2602.75,44.5535881171709
2603,44.6385312211138
2603.25,44.7234743250566
2603.5,44.8084174289994
2603.75,44.8933605329423
2604,44.9783036368852
2604.25,44.9776776208842
2604.5,44.9476977018455
2604.75,44.9177177828068
2605,44.8877378637682
2605.25,44.8577579447295
2605.5,44.8277780256909
2605.75,44.7977981066522
2606,44.7678181876136
2606.25,44.7378382685749
2606.5,44.7078583495362
2606.75,44.6778784304976
2607,44.6478985114589
2607.25,44.6179185924202
2607.5,44.5879386733815
2607.75,44.5579587543429
2608,44.5279788353043
2608.25,44.4979989162656
2608.5,44.4680189972269
2608.75,44.4380390781882
2609,44.4080591591496
2609.25,44.4328811398336
2609.5,44.4778510183916
2609.75,44.5228208969496
2610,44.5677907755076
2610.25,44.6127606540656
2610.5,44.6577305326236
2610.75,44.7027004111816
2611,44.7476702897396
2611.25,44.7926401682976
2611.5,44.8376100468556
2611.75,44.8825799254136
2612,44.9275498039716
2612.25,44.9725196825296
2612.5,45.0174895610876
2612.75,45.0624594396456
2613,45.1074293182035
2613.25,45.1523991967615
2613.5,45.1973690753195
2613.75,45.2423389538775
2614,45.2873088324355
2614.25,45.3932496095369
2614.5,45.5231625920378
2614.75,45.6530755745387
2615,45.7829885570396
2615.25,45.9129015395405
2615.5,46.0428145220412
2615.75,46.1727275045421
2616,46.302640487043
2616.25,46.4325534695439
2616.5,46.5624664520448
2616.75,46.6923794345457
2617,46.8222924170466
2617.25,46.9522053995475
2617.5,47.0821183820484
2617.75,47.2120313645493
2618,47.34194434705
2618.25,47.4718573295509
2618.5,47.6017703120518
2618.75,47.7316832945527
2619,47.8615962770536
2619.25,47.8472061964109
2619.5,47.7722563988142
2619.75,47.6973066012175
2620,47.6223568036209
2620.25,47.5474070060242
2620.5,47.4724572084277
2620.75,47.397507410831
2621,47.3225576132343
2621.25,47.2476078156376
2621.5,47.172658018041
2621.75,47.0977082204443
2622,47.0227584228476
2622.25,46.9478086252509
2622.5,46.8728588276543
2622.75,46.7979090300576
2623,46.7229592324611
2623.25,46.6480094348644
2623.5,46.5730596372677
2623.75,46.498109839671
2624,46.4231600420744
2624.25,46.4345265036815
2624.5,46.4844930354126
2624.75,46.5344595671438
2625,46.5844260988749
2625.25,46.634392630606
2625.5,46.684359162337
2625.75,46.7343256940681
2626,46.7842922257993
2626.25,46.8342587575304
2626.5,46.8842252892615
2626.75,46.9341918209926
2627,46.9841583527237
2627.25,47.0341248844548
2627.5,47.0840914161859
2627.75,47.1340579479171
2628,47.1840244796481
2628.25,47.2339910113792
2628.5,47.2839575431103
2628.75,47.3339240748414
2629,47.3838906065726
2629.25,47.4203142829822
2629.5,47.4502942020209
2629.75,47.4802741210595
2630,47.5102540400982
2630.25,47.5402339591369
2630.5,47.5702138781755
2630.75,47.6001937972142
2631,47.6301737162528
2631.25,47.6601536352915
2631.5,47.6901335543302
2631.75,47.7201134733688
2632,47.7500933924075
2632.25,47.7800733114462
2632.5,47.8100532304848
2632.75,47.8400331495235
2633,47.8700130685621
2633.25,47.8999929876008
2633.5,47.9299729066395
2633.75,47.9599528256781
2634,47.9899327447168
2634.25,47.8805240174671
2634.5,47.7006445032351
2634.75,47.5207649890031
2635,47.3408854747711
2635.25,47.1610059605394
2635.5,46.9811264463074
2635.75,46.8012469320754
2636,46.6213674178434
2636.25,46.4414879036113
2636.5,46.2616083893793
2636.75,46.0817288751473
2637,45.9018493609153
2637.25,45.7219698466833
2637.5,45.5420903324513
2637.75,45.3622108182196
2638,45.1823313039876
2638.25,45.0024517897555
2638.5,44.8225722755235
2638.75,44.6426927612915
2639,44.4628132470595
2639.25,44.3187039811302
2639.5,44.1937876518024
2639.75,44.0688713224746
2640,43.9439549931468
2640.25,43.8190386638193
2640.5,43.6941223344915
2640.75,43.5692060051637
2641,43.4442896758359
2641.25,43.3193733465081
2641.5,43.1944570171803
2641.75,43.0695406878525
2642,42.9446243585247
2642.25,42.819708029197
2642.5,42.6947916998692
2642.75,42.5698753705416
2643,42.4449590412138
2643.25,42.320042711886
2643.5,42.1951263825582
2643.75,42.0702100532304
2644,41.9452937239027
2644.25,41.8203773945749
2644.5,41.6954610652471
2644.75,41.5705447359193
2645,41.4456284065915
2645.25,41.3207120772639
2645.5,41.1957957479362
2645.75,41.0708794186084
2646,40.9459630892806
2646.25,40.8210467599528
2646.5,40.696130430625
2646.75,40.5712141012972
2647,40.4462977719694
2647.25,40.3213814426416
2647.5,40.1964651133138
2647.75,40.0715487839863
2648,39.9466324546585
2648.25,39.8217161253307
2648.5,39.6967997960029
2648.75,39.5718834666751
2649,39.4469671373473
2649.25,39.4311796767922
2649.5,39.4811462085233
2649.75,39.5311127402544
2650,39.5810792719855
2650.25,39.6310458037166
2650.5,39.6810123354477
2650.75,39.7309788671788
2651,39.7809453989099
2651.25,39.830911930641
2651.5,39.8808784623721
2651.75,39.9308449941032
2652,39.9808115258344
2652.25,40.0307780575655
2652.5,40.0807445892966
2652.75,40.1307111210276
2653,40.1806776527587
2653.25,40.2306441844898
2653.5,40.280610716221
2653.75,40.3305772479521
2654,40.3805437796832
2654.25,40.4854288719601
2654.5,40.6253351608072
2654.75,40.7652414496543
2655,40.9051477385014
2655.25,41.0450540273483
2655.5,41.1849603161954
2655.75,41.3248666050426
2656,41.4647728938897
2656.25,41.6046791827368
2656.5,41.7445854715839
2656.75,41.884491760431
2657,42.0243980492782
2657.25,42.1643043381253
2657.5,42.3042106269724
2657.75,42.4441169158193
2658,42.5840232046664
2658.25,42.7239294935135
2658.5,42.8638357823607
2658.75,43.0037420712078
2659,43.1436483600549
2659.25,43.2268568514328
2659.5,43.2718267299908
2659.75,43.3167966085488
2660,43.3617664871068
2660.25,43.4067363656647
2660.5,43.4517062442227
2660.75,43.4966761227807
2661,43.5416460013387
2661.25,43.5866158798967
2661.5,43.6315857584547
2661.75,43.6765556370128
2662,43.7215255155708
2662.25,43.7664953941288
2662.5,43.8114652726868
2662.75,43.8564351512447
2663,43.9014050298027
2663.25,43.9463749083607
2663.5,43.9913447869187
2663.75,44.0363146654767
2664,44.0812845440347
2664.25,44.0299882064194
2664.5,43.9100685302648
2664.75,43.7901488541101
2665,43.6702291779554
2665.25,43.550309501801
2665.5,43.4303898256463
2665.75,43.3104701494916
2666,43.1905504733369
2666.25,43.0706307971822
2666.5,42.9507111210276
2666.75,42.8307914448729
2667,42.7108717687182
2667.25,42.5909520925635
2667.5,42.4710324164091
2667.75,42.3511127402544
2668,42.2311930640997
2668.25,42.111273387945
2668.5,41.9913537117904
2668.75,41.8714340356357
2669,41.751514359481
2669.25,41.657246677079
2669.5,41.5822968794823
2669.75,41.5073470818856
2670,41.4323972842891
2670.25,41.3574474866924
2670.5,41.2824976890957
2670.75,41.2075478914991
2671,41.1325980939024
2671.25,41.0576482963057
2671.5,40.982698498709
2671.75,40.9077487011124
2672,40.8327989035157
2672.25,40.757849105919
2672.5,40.6828993083225
2672.75,40.6079495107258
2673,40.5329997131291
2673.25,40.4580499155325
2673.5,40.3831001179358
2673.75,40.3081503203391
2674,40.2332005227424
2674.25,40.180517005068
2674.5,40.1455404328562
2674.75,40.1105638606445
2675,40.0755872884327
2675.25,40.040610716221
2675.5,40.0056341440092
2675.75,39.9706575717974
2676,39.9356809995856
2676.25,39.9007044273738
2676.5,39.8657278551621
2676.75,39.8307512829503
2677,39.7957747107385
2677.25,39.7607981385267
2677.5,39.725821566315
2677.75,39.6908449941032
2678,39.6558684218914
2678.25,39.6208918496797
2678.5,39.5859152774679
2678.75,39.5509387052561
2679,39.5159621330443
2679.25,39.5842068020274
2679.5,39.7391030503938
2679.75,39.8939992987603
2680,40.0488955471264
2680.25,40.2037917954929
2680.5,40.3586880438594
2680.75,40.5135842922258
2681,40.6684805405923
2681.25,40.8233767889587
2681.5,40.9782730373252
2681.75,41.1331692856917
2682,41.2880655340581
2682.25,41.4429617824246
2682.5,41.5978580307907
2682.75,41.7527542791572
2683,41.9076505275237
2683.25,42.0625467758901
2683.5,42.2174430242566
2683.75,42.372339272623
2684,42.5272355209895
2684.25,42.7006776527589
2684.5,42.8905504733372
2684.75,43.0804232939154
2685,43.2702961144933
2685.25,43.4601689350715
2685.5,43.6500417556498
2685.75,43.839914576228
2686,44.0297873968062
2686.25,44.2196602173845
2686.5,44.4095330379627
2686.75,44.599405858541
2687,44.7892786791192
2687.25,44.9791514996974
2687.5,45.1690243202753
2687.75,45.3588971408536
2688,45.5487699614318
2688.25,45.73864278201
2688.5,45.9285156025883
2688.75,46.1183884231665
2689,46.3082612437448
2689.25,46.3767577216077
2689.5,46.3317878430497
2689.75,46.2868179644917
2690,46.2418480859338
2690.25,46.1968782073758
2690.5,46.1519083288178
2690.75,46.1069384502598
2691,46.0619685717018
2691.25,46.0169986931438
2691.5,45.9720288145858
2691.75,45.9270589360277
2692,45.8820890574697
2692.25,45.8371191789117
2692.5,45.7921493003538
2692.75,45.7471794217958
2693,45.7022095432378
2693.25,45.6572396646798
2693.5,45.6122697861218
2693.75,45.5672999075638
2694,45.5223300290058
2694.25,45.4849067669652
2694.5,45.4549268479265
2694.75,45.4249469288879
2695,45.3949670098492
2695.25,45.3649870908106
2695.5,45.3350071717719
2695.75,45.3050272527332
2696,45.2750473336946
2696.25,45.2450674146559
2696.5,45.2150874956172
2696.75,45.1851075765786
2697,45.1551276575399
2697.25,45.1251477385013
2697.5,45.0951678194626
2697.75,45.0651879004239
2698,45.0352079813853
2698.25,45.0052280623466
2698.5,44.9752481433079
2698.75,44.9452682242693
2699,44.9152883052306
2699.25,44.8167475217542
2699.5,44.6468613138684
2699.75,44.4769751059829
2700,44.3070888980971
2700.25,44.1372026902113
2700.5,43.9673164823256
2700.75,43.7974302744398
2701,43.627544066554
2701.25,43.4576578586682
2701.5,43.2877716507824
2701.75,43.1178854428966
2702,42.9479992350108
2702.25,42.7781130271253
2702.5,42.6082268192395
2702.75,42.4383406113537
2703,42.2684544034679
2703.25,42.0985681955821
2703.5,41.9286819876963
2703.75,41.7587957798106
2704,41.5889095719248
2704.25,41.3547183884229
2704.5,41.0499225448631
2704.75,40.7451267013038
2705,40.440330857744
2705.25,40.1355350141842
2705.5,39.8307391706244
2705.75,39.5259433270646
2706,39.2211474835048
2706.25,38.916351639945
2706.5,38.6115557963852
2706.75,38.3067599528254
2707,38.0019641092656
2707.25,37.6971682657063
2707.5,37.3923724221465
2707.75,37.0875765785867
2708,36.7827807350269
2708.25,36.4779848914671
2708.5,36.1731890479073
2708.75,35.8683932043475
2709,35.5635973607877
2709.25,35.379167436968
2709.5,35.33419755841
2709.75,35.2892276798521
2710,35.2442578012941
2710.25,35.1992879227361
2710.5,35.1543180441781
2710.75,35.1093481656201
2711,35.0643782870621
2711.25,35.0194084085041
2711.5,34.9744385299461
2711.75,34.9294686513881
2712,34.8844987728301
2712.25,34.8395288942722
2712.5,34.7945590157142
2712.75,34.7495891371562
2713,34.7046192585982
2713.25,34.6596493800401
2713.5,34.6146795014821
2713.75,34.5697096229241
2714,34.5247397443661
2714.25,34.5494514391357
2714.5,34.6593778089441
2714.75,34.7693041787524
2715,34.8792305485608
2715.25,34.9891569183693
2715.5,35.0990832881778
2715.75,35.2090096579862
2716,35.3189360277947
2716.25,35.4288623976031
2716.5,35.5387887674116
2716.75,35.64871513722
2717,35.7586415070285
2717.25,35.8685678768367
2717.5,35.9784942466452
2717.75,36.0884206164536
2718,36.1983469862621
2718.25,36.3082733560706
2718.5,36.418199725879
2718.75,36.5281260956875
2719,36.6380524654959
2719.25,36.7785108214071
2719.5,36.9583903356392
2719.75,37.1382698498709
2720,37.3181493641029
2720.25,37.4980288783349
2720.5,37.6779083925669
2720.75,37.8577879067989
2721,38.0376674210309
2721.25,38.2175469352629
2721.5,38.397426449495
2721.75,38.577305963727
2722,38.757185477959
2722.25,38.9370649921907
2722.5,39.1169445064227
2722.75,39.2968240206547
2723,39.4767035348867
2723.25,39.6565830491187
2723.5,39.8364625633508
2723.75,40.0163420775828
2724,40.1962215918148
2724.25,40.2809747234883
2724.5,40.2360048449303
2724.75,40.1910349663724
2725,40.1460650878144
2725.25,40.1010952092564
2725.5,40.0561253306984
2725.75,40.0111554521404
2726,39.9661855735824
2726.25,39.9212156950243
2726.5,39.8762458164663
2726.75,39.8312759379083
2727,39.7863060593504
2727.25,39.7413361807924
2727.5,39.6963663022344
2727.75,39.6513964236764
2728,39.6064265451184
2728.25,39.5614566665604
2728.5,39.5164867880024
2728.75,39.4715169094444
2729,39.4265470308864
2729.25,39.3631543046568
2729.5,39.2732145475409
2729.75,39.1832747904249
2730,39.0933350333089
2730.25,39.0033952761929
2730.5,38.9134555190769
2730.75,38.8235157619609
2731,38.7335760048449
2731.25,38.6436362477289
2731.5,38.5536964906129
2731.75,38.4637567334969
2732,38.373816976381
2732.25,38.283877219265
2732.5,38.193937462149
2732.75,38.103997705033
2733,38.014057947917
2733.25,37.924118190801
2733.5,37.834178433685
2733.75,37.7442386765689
2734,37.6542989194529
2734.25,37.6376208841999
2734.5,37.7325572944889
2734.75,37.827493704778
2735,37.9224301150671
2735.25,38.0173665253562
2735.5,38.1123029356453
2735.75,38.2072393459345
2736,38.3021757562236
2736.25,38.3971121665127
2736.5,38.4920485768018
2736.75,38.5869849870909
2737,38.6819213973799
2737.25,38.776857807669
2737.5,38.8717942179581
2737.75,38.9667306282472
2738,39.0616670385363
2738.25,39.1566034488255
2738.5,39.2515398591146
2738.75,39.3464762694037
2739,39.4414126796928
2739.25,39.4387804800304
2739.5,39.2788875784911
2739.75,39.1189946769516
2740,38.959101775412
2740.25,38.7992088738724
2740.5,38.6393159723328
2740.75,38.4794230707933
2741,38.3195301692537
2741.25,38.1596372677141
2741.5,37.9997443661746
2741.75,37.839851464635
2742,37.6799585630957
2742.25,37.5200656615561
2742.5,37.3601727600166
2742.75,37.200279858477
2743,37.0403869569374
2743.25,36.8804940553979
2743.5,36.7206011538583
2743.75,36.5607082523187
2744,36.4008153507792
2744.25,36.4200012749821
2744.5,36.7447837312337
2744.75,37.069566187486
2745,37.3943486437382
2745.25,37.7191310999905
2745.5,38.0439135562428
2745.75,38.368696012495
2746,38.6934784687473
2746.25,39.0182609249995
2746.5,39.3430433812518
2746.75,39.667825837504
2747,39.9926082937557
2747.25,40.3173907500079
2747.5,40.6421732062602
2747.75,40.9669556625124
2748,41.2917381187647
2748.25,41.6165205750169
2748.5,41.9413030312692
2748.75,42.2660854875214
2749,42.5908679437737
2749.25,42.8213508430817
2749.5,42.8813106811589
2749.75,42.9412705192363
2750,43.0012303573136
2750.25,43.0611901953909
2750.5,43.1211500334683
2750.75,43.1811098715456
2751,43.241069709623
2751.25,43.3010295477003
2751.5,43.3609893857776
2751.75,43.420949223855
2752,43.4809090619322
2752.25,43.5408689000096
2752.5,43.6008287380869
2752.75,43.6607885761642
2753,43.7207484142416
2753.25,43.7807082523189
2753.5,43.8406680903963
2753.75,43.9006279284736
2754,43.9605877665509
2754.25,44.0650674146562
2754.5,44.2549402352341
2754.75,44.4448130558123
2755,44.6346858763905
2755.25,44.8245586969688
2755.5,45.014431517547
2755.75,45.2043043381253
2756,45.3941771587035
2756.25,45.5840499792817
2756.5,45.77392279986
2756.75,45.9637956204379
2757,46.1536684410161
2757.25,46.3435412615943
2757.5,46.5334140821726
2757.75,46.7232869027508
2758,46.9131597233291
2758.25,47.1030325439073
2758.5,47.2929053644855
2758.75,47.4827781850638
2759,47.672651005642
2759.25,47.7588659038027
2759.5,47.6339495744749
2759.75,47.5090332451471
2760,47.3841169158193
2760.25,47.2592005864915
2760.5,47.1342842571637
2760.75,47.009367927836
2761,46.8844515985082
2761.25,46.7595352691804
2761.5,46.6346189398526
2761.75,46.509702610525
2762,46.3847862811972
2762.25,46.2598699518694
2762.5,46.1349536225417
2762.75,46.0100372932139
2763,45.8851209638861
2763.25,45.7602046345583
2763.5,45.6352883052305
2763.75,45.5103719759027
2764,45.3854556465749
2764.25,45.2652745991777
2764.5,45.1553482293692
2764.75,45.0454218595608
2765,44.9354954897523
2765.25,44.8255691199439
2765.5,44.7156427501354
2765.75,44.605716380327
2766,44.4957900105185
2766.25,44.38586364071
2766.5,44.2759372709016
2766.75,44.1660109010933
2767,44.0560845312849
2767.25,43.9461581614764
2767.5,43.836231791668
2767.75,43.7263054218595
2768,43.6163790520511
2768.25,43.5064526822426
2768.5,43.3965263124342
2768.75,43.2865999426257
2769,43.1766735728173
2769.25,43.0894195645938
2769.5,43.054442992382
2769.75,43.0194664201702
2770,42.9844898479584
2770.25,42.9495132757466
2770.5,42.9145367035349
2770.75,42.8795601313231
2771,42.8445835591113
2771.25,42.8096069868995
2771.5,42.7746304146877
2771.75,42.739653842476
2772,42.7046772702642
2772.25,42.6697006980525
2772.5,42.6347241258407
2772.75,42.5997475536289
2773,42.5647709814171
2773.25,42.5297944092053
2773.5,42.4948178369936
2773.75,42.4598412647818
2774,42.42486469257
2774.25,42.3841099034202
2774.5,42.3291467185159
2774.75,42.2741835336117
2775,42.2192203487075
2775.25,42.1642571638032
2775.5,42.109293978899
2775.75,42.0543307939948
2776,41.9993676090906
2776.25,41.9444044241863
2776.5,41.8894412392821
2776.75,41.834478054378
2777,41.7795148694738
2777.25,41.7245516845695
2777.5,41.6695884996653
2777.75,41.6146253147611
2778,41.5596621298568
2778.25,41.5046989449526
2778.5,41.4497357600484
2778.75,41.3947725751442
2779,41.3398093902399
2779.25,41.3234195008446
2779.5,41.4083626047875
2779.75,41.4933057087304
2780,41.5782488126733
2780.25,41.6631919166162
2780.5,41.7481350205591
2780.75,41.833078124502
2781,41.9180212284449
2781.25,42.0029643323878
2781.5,42.0879074363307
2781.75,42.1728505402735
2782,42.2577936442163
2782.25,42.3427367481592
2782.5,42.4276798521021
2782.75,42.512622956045
2783,42.5975660599879
2783.25,42.6825091639308
2783.5,42.7674522678737
2783.75,42.8523953718166
2784,42.9373384757595
2784.25,43.031456347815
2784.5,43.1513760239696
2784.75,43.2712957001243
2785,43.391215376279
2785.25,43.5111350524337
2785.5,43.6310547285884
2785.75,43.750974404743
2786,43.8708940808977
2786.25,43.9908137570524
2786.5,44.1107334332068
2786.75,44.2306531093615
2787,44.3505727855162
2787.25,44.4704924616709
2787.5,44.5904121378256
2787.75,44.7103318139802
2788,44.8302514901349
2788.25,44.9501711662896
2788.5,45.0700908424443
2788.75,45.1900105185989
2789,45.3099301947534
2789.25,45.3838313199248
2789.5,45.3188748286743
2789.75,45.2539183374239
2790,45.1889618461734
2790.25,45.124005354923
2790.5,45.0590488636725
2790.75,44.9940923724221
2791,44.9291358811716
2791.25,44.8641793899212
2791.5,44.7992228986709
2791.75,44.7342664074204
2792,44.66930991617
2792.25,44.6043534249195
2792.5,44.5393969336691
2792.75,44.4744404424186
2793,44.4094839511682
2793.25,44.3445274599177
2793.5,44.2795709686673
2793.75,44.2146144774168
2794,44.1496579861665
2794.25,44.0917623434163
2794.5,44.0567857712045
2794.75,44.0218091989928
2795,43.986832626781
2795.25,43.9518560545692
2795.5,43.9168794823574
2795.75,43.8819029101456
2796,43.8469263379339
2796.25,43.8119497657221
2796.5,43.7769731935104
2796.75,43.7419966212986
2797,43.7070200490868
2797.25,43.672043476875
2797.5,43.6370669046632
2797.75,43.6020903324515
2798,43.5671137602397
2798.25,43.5321371880279
2798.5,43.4971606158161
2798.75,43.4621840436043
2799,43.4272074713926
2799.25,43.3877914129984
2799.5,43.3328282280942
2799.75,43.27786504319
2800,43.2229018582858
2800.25,43.1679386733815
2800.5,43.1129754884773
2800.75,43.0580123035731
2801,43.0030491186689
2801.25,42.9480859337646
2801.5,42.8931227488605
2801.75,42.8381595639563
2802,42.7831963790521
2802.25,42.7282331941478
2802.5,42.6732700092436
2802.75,42.6183068243394
2803,42.5633436394351
2803.25,42.5083804545309
2803.5,42.4534172696267
2803.75,42.3984540847225
2804,42.3434908998183
2804.25,42.3020858700156
2804.5,42.3120791763618
2804.75,42.3220724827081
2805,42.3320657890543
2805.25,42.3420590954005
2805.5,42.3520524017467
2805.75,42.362045708093
2806,42.3720390144392
2806.25,42.3820323207854
2806.5,42.3920256271316
2806.75,42.4020189334778
2807,42.4120122398241
2807.25,42.4220055461703
2807.5,42.4319988525165
2807.75,42.4419921588627
2808,42.4519854652089
2808.25,42.4619787715552
2808.5,42.4719720779014
2808.75,42.4819653842476
2809,42.4919586905938
2809.25,42.4882880183597
2809.5,42.4283281802824
2809.75,42.3683683422051
2810,42.3084085041277
2810.25,42.2484486660504
2810.5,42.1884888279731
2810.75,42.1285289898957
2811,42.0685691518184
2811.25,42.008609313741
2811.5,41.9486494756638
2811.75,41.8886896375865
2812,41.8287297995091
2812.25,41.7687699614318
2812.5,41.7088101233544
2812.75,41.6488502852771
2813,41.5888904471998
2813.25,41.5289306091224
2813.5,41.4689707710451
2813.75,41.4090109329678
2814,41.3490510948905
2814.25,41.2936365664744
2814.5,41.2586599942626
2814.75,41.2236834220508
2815,41.188706849839
2815.25,41.1537302776272
2815.5,41.1187537054155
2815.75,41.0837771332037
2816,41.0488005609919
2816.25,41.0138239887802
2816.5,40.9788474165684
2816.75,40.9438708443566
2817,40.9088942721448
2817.25,40.8739176999331
2817.5,40.8389411277213
2817.75,40.8039645555095
2818,40.7689879832977
2818.25,40.7340114110859
2818.5,40.6990348388741
2818.75,40.6640582666624
2819,40.6290816944507
2819.25,40.6050527523667
2819.5,40.6350326714054
2819.75,40.665012590444
2820,40.6949925094827
2820.25,40.7249724285214
2820.5,40.75495234756
2820.75,40.7849322665987
2821,40.8149121856374
2821.25,40.844892104676
2821.5,40.8748720237147
2821.75,40.9048519427533
2822,40.934831861792
2822.25,40.9648117808307
2822.5,40.9947916998693
2822.75,41.024771618908
2823,41.0547515379467
2823.25,41.0847314569853
2823.5,41.114711376024
2823.75,41.1446912950626
2824,41.1746712141013
2824.25,41.1945736780034
2824.5,41.1595971057916
2824.75,41.1246205335798
2825,41.089643961368
2825.25,41.0546673891563
2825.5,41.0196908169445
2825.75,40.9847142447327
2826,40.9497376725209
2826.25,40.9147611003092
2826.5,40.8797845280974
2826.75,40.8448079558856
2827,40.8098313836739
2827.25,40.7748548114621
2827.5,40.7398782392503
2827.75,40.7049016670385
2828,40.6699250948267
2828.25,40.6349485226149
2828.5,40.5999719504032
2828.75,40.5649953781915
2829,40.5300188059797
2829.25,40.4879597105792
2829.5,40.4030166066363
2829.75,40.3180735026934
2830,40.2331303987505
2830.25,40.1481872948076
2830.5,40.0632441908647
2830.75,39.9783010869218
2831,39.8933579829789
2831.25,39.8084148790361
2831.5,39.7234717750932
2831.75,39.6385286711504
2832,39.5535855672075
2832.25,39.4686424632646
2832.5,39.3836993593217
2832.75,39.2987562553788
2833,39.2138131514359
2833.25,39.128870047493
2833.5,39.0439269435501
2833.75,38.9589838396073
2834,38.8740407356644
2834.25,38.8012826315622
2834.5,38.8112759379084
2834.75,38.8212692442546
2835,38.8312625506008
2835.25,38.8412558569471
2835.5,38.8512491632933
2835.75,38.8612424696395
2836,38.8712357759857
2836.25,38.8812290823319
2836.5,38.8912223886782
2836.75,38.9012156950244
2837,38.9112090013706
2837.25,38.9212023077168
2837.5,38.9311956140631
2837.75,38.9411889204093
2838,38.9511822267555
2838.25,38.9611755331017
2838.5,38.9711688394479
2838.75,38.9811621457942
2839,38.9911554521404
2839.25,39.0068925509196
2839.5,39.0668523889969
2839.75,39.1268122270743
2840,39.1867720651516
2840.25,39.2467319032289
2840.5,39.3066917413063
2840.75,39.3666515793836
2841,39.426611417461
2841.25,39.4865712555382
2841.5,39.5465310936155
2841.75,39.6064909316929
2842,39.6664507697702
2842.25,39.7264106078475
2842.5,39.7863704459249
2842.75,39.8463302840022
2843,39.9062901220796
2843.25,39.9662499601569
2843.5,40.0262097982342
2843.75,40.0861696363115
2844,40.1461294743888
2844.25,40.2065967551717
2844.5,40.2715532464221
2844.75,40.3365097376726
2845,40.401466228923
2845.25,40.4664227201735
2845.5,40.5313792114239
2845.75,40.5963357026744
2846,40.6612921939247
2846.25,40.7262486851751
2846.5,40.7912051764256
2846.75,40.856161667676
2847,40.9211181589265
2847.25,40.9860746501769
2847.5,41.0510311414274
2847.75,41.1159876326778
2848,41.1809441239283
2848.25,41.2459006151787
2848.5,41.3108571064291
2848.75,41.3758135976795
2849,41.44077008893
2849.25,41.5114531603608
2849.5,41.6413661428617
2849.75,41.7712791253626
2850,41.9011921078635
2850.25,42.0311050903644
2850.5,42.1610180728653
2850.75,42.2909310553662
2851,42.4208440378669
2851.25,42.5507570203678
2851.5,42.6806700028687
2851.75,42.8105829853696
2852,42.9404959678705
2852.25,43.0704089503714
2852.5,43.2003219328723
2852.75,43.3302349153732
2853,43.4601478978741
2853.25,43.590060880375
2853.5,43.7199738628757
2853.75,43.8498868453766
2854,43.9797998278775
2854.25,44.0977585822204
2854.5,44.0677786631817
2854.75,44.037798744143
2855,44.0078188251044
2855.25,43.9778389060657
2855.5,43.947858987027
2855.75,43.9178790679884
2856,43.8878991489497
2856.25,43.8579192299111
2856.5,43.8279393108724
2856.75,43.7979593918337
2857,43.7679794727951
2857.25,43.7379995537564
2857.5,43.7080196347177
2857.75,43.6780397156791
2858,43.6480597966404
2858.25,43.6180798776017
2858.5,43.5880999585631
2858.75,43.5581200395244
2859,43.5281401204858
2859.25,43.4941739712491
2859.5,43.39923756096
2859.75,43.3043011506709
2860,43.2093647403818
2860.25,43.1144283300927
2860.5,43.0194919198035
2860.75,42.9245555095144
2861,42.8296190992255
2861.25,42.7346826889364
2861.5,42.6397462786472
2861.75,42.5448098683581
2862,42.449873458069
2862.25,42.3549370477799
2862.5,42.2600006374908
2862.75,42.1650642272016
2863,42.0701278169125
2863.25,41.9751914066234
2863.5,41.8802549963345
2863.75,41.7853185860453
2864,41.6903821757562
2864.25,41.5923297102604
2864.5,41.4324368087208
2864.75,41.2725439071812
2865,41.1126510056417
2865.25,40.9527581041021
2865.5,40.7928652025625
2865.75,40.632972301023
2866,40.4730793994837
2866.25,40.3131864979441
2866.5,40.1532935964045
2866.75,39.993400694865
2867,39.8335077933254
2867.25,39.6736148917858
2867.5,39.5137219902463
2867.75,39.3538290887067
2868,39.1939361871671
2868.25,39.0340432856276
2868.5,38.8741503840883
2868.75,38.7142574825487
2869,38.5543645810091
2869.25,38.4017276001658
2869.5,38.4516941318969
2869.75,38.501660663628
2870,38.5516271953591
2870.25,38.6015937270902
2870.5,38.6515602588213
2870.75,38.7015267905525
2871,38.7514933222835
2871.25,38.8014598540146
2871.5,38.8514263857457
2871.75,38.9013929174768
2872,38.9513594492079
2872.25,39.0013259809391
2872.5,39.0512925126702
2872.75,39.1012590444013
2873,39.1512255761324
2873.25,39.2011921078635
2873.5,39.2511586395945
2873.75,39.3011251713257
2874,39.3510917030568
2874.25,39.4046562330667
2874.5,39.6245089726836
2874.75,39.8443617123005
2875,40.0642144519174
2875.25,40.2840671915343
2875.5,40.5039199311512
2875.75,40.7237726707682
2876,40.9436254103847
2876.25,41.1634781500016
2876.5,41.3833308896185
2876.75,41.6031836292354
2877,41.8230363688523
2877.25,42.0428891084692
2877.5,42.2627418480861
2877.75,42.482594587703
2878,42.7024473273199
2878.25,42.9223000669364
2878.5,43.1421528065533
2878.75,43.3620055461703
2879,43.5818582857872
2879.25,43.799844452236
2879.5,43.7798578395435
2879.75,43.7598712268511
2880,43.7398846141587
2880.25,43.7198980014662
2880.5,43.6999113887738
2880.75,43.6799247760814
2881,43.6599381633889
2881.25,43.6399515506965
2881.5,43.619964938004
2881.75,43.5999783253116
2882,43.5799917126191
2882.25,43.5600050999267
2882.5,43.5400184872342
2882.75,43.5200318745418
2883,43.5000452618493
2883.25,43.4800586491569
2883.5,43.4600720364645
2883.75,43.440085423772
2884,43.4200988110796
2884.25,43.4001121983871
2884.5,43.4198744143053
2884.75,43.4398610269977
2885,43.4598476396902
2885.25,43.4798342523826
2885.5,43.4998208650751
2885.75,43.5198074777675
2886,43.5397940904599
2886.25,43.5597807031524
2886.5,43.5797673158448
2886.75,43.5997539285373
2887,43.6197405412297
2887.25,43.6397271539222
2887.5,43.6597137666146
2887.75,43.6797003793071
2888,43.6996869919995
2888.25,43.7196736046919
2888.5,43.7396602173844
2888.75,43.7596468300768
2889,43.7796334427693
2889.25,43.7996200554617
2889.5,43.8196066681542
2889.75,43.8395932808466
2890,43.859579893539
2890.25,43.8795665062315
2890.5,43.8995531189239
2890.75,43.9195397316163
2891,43.9395263443088
2891.25,43.9595129570012
2891.5,43.9794995696937
2891.75,43.9994861823861
2892,44.0194727950786
2892.25,44.039459407771
2892.5,44.0594460204635
2892.75,44.0794326331559
2893,44.0994192458484
2893.25,44.1194058585408
2893.5,44.1393924712332
2893.75,44.1593790839257
2894,44.1793656966181
2894.25,44.1993523093106
2894.5,44.316033532018
2894.75,44.4359532081727
2895,44.5558728843274
2895.25,44.6757925604821
2895.5,44.7957122366368
2895.75,44.9156319127912
2896,45.0355515889459
2896.25,45.1554712651006
2896.5,45.2753909412552
2896.75,45.3953106174099
2897,45.5152302935646
2897.25,45.6351499697193
2897.5,45.755069645874
2897.75,45.8749893220286
2898,45.9949089981833
2898.25,46.1148286743378
2898.5,46.2347483504924
2898.75,46.3546680266471
2899,46.4745877028018
2899.25,46.5945073789565
2899.5,46.461733975074
2899.75,46.3168310330538
2900,46.1719280910336
2900.25,46.0270251490133
2900.5,45.8821222069931
2900.75,45.7372192649731
2901,45.5923163229529
2901.25,45.4474133809326
2901.5,45.3025104389124
2901.75,45.1576074968922
2902,45.0127045548719
2902.25,44.8678016128517
2902.5,44.7228986708315
2902.75,44.5779957288112
2903,44.433092786791
2903.25,44.288189844771
2903.5,44.1432869027508
2903.75,43.9983839607306
2904,43.8534810187103
2904.25,43.7085780766901
2904.5,43.7235042871259
2904.75,43.7484875529914
2905,43.773470818857
2905.25,43.7984540847226
2905.5,43.8234373505881
2905.75,43.8484206164536
2906,43.8734038823192
2906.25,43.8983871481848
2906.5,43.9233704140503
2906.75,43.9483536799159
2907,43.9733369457814
2907.25,43.998320211647
2907.5,44.0233034775125
2907.75,44.0482867433781
2908,44.0732700092436
2908.25,44.0982532751092
2908.5,44.1232365409747
2908.75,44.1482198068403
2909,44.1732030727058
2909.25,44.1981863385714
2909.5,44.0702502151531
2909.75,43.9303439263059
2910,43.7904376374588
2910.25,43.6505313486117
2910.5,43.5106250597648
2910.75,43.3707187709177
2911,43.2308124820706
2911.25,43.0909061932235
2911.5,42.9509999043763
2911.75,42.8110936155292
2912,42.6711873266821
2912.25,42.531281037835
2912.5,42.3913747489878
2912.75,42.2514684601407
2913,42.1115621712938
2913.25,41.9716558824467
2913.5,41.8317495935996
2913.75,41.6918433047525
2914,41.5519370159054
2914.25,41.4120307270582
2914.5,41.3908660313008
2914.75,41.3808727249546
2915,41.3708794186083
2915.25,41.3608861122621
2915.5,41.3508928059159
2915.75,41.3408994995697
2916,41.3309061932235
2916.25,41.3209128868773
2916.5,41.310919580531
2916.75,41.3009262741848
2917,41.2909329678386
2917.25,41.2809396614924
2917.5,41.2709463551461
2917.75,41.2609530487999
2918,41.2509597424537
2918.25,41.2409664361075
2918.5,41.2309731297613
2918.75,41.220979823415
2919,41.2109865170688
2919.25,41.2009932107226
2919.5,41.1324992828228
2919.75,41.0575494852261
2920,40.9825996876294
2920.25,40.9076498900327
2920.5,40.8327000924362
2920.75,40.7577502948395
2921,40.6828004972429
2921.25,40.6078506996462
2921.5,40.5329009020495
2921.75,40.4579511044528
2922,40.3830013068562
2922.25,40.3080515092595
2922.5,40.2331017116628
2922.75,40.1581519140661
2923,40.0832021164696
2923.25,40.0082523188729
2923.5,39.9333025212763
2923.75,39.8583527236796
2924,39.7834029260829
2924.25,39.7084531284862
2924.5,39.7354648901922
2924.75,39.7754381155771
2925,39.815411340962
2925.25,39.8553845663469
2925.5,39.8953577917317
2925.75,39.9353310171166
2926,39.9753042425015
2926.25,40.0152774678864
2926.5,40.0552506932713
2926.75,40.0952239186562
2927,40.1351971440411
2927.25,40.175170369426
2927.5,40.2151435948109
2927.75,40.2551168201958
2928,40.2950900455806
2928.25,40.3350632709655
2928.5,40.3750364963504
2928.75,40.4150097217353
2929,40.4549829471202
2929.25,40.494956172505
2929.5,40.5480279220987
2929.75,40.6029911070029
2930,40.6579542919071
2930.25,40.7129174768113
2930.5,40.7678806617155
2930.75,40.8228438466197
2931,40.8778070315239
2931.25,40.9327702164282
2931.5,40.9877334013324
2931.75,41.0426965862366
2932,41.0976597711408
2932.25,41.1526229560451
2932.5,41.2075861409493
2932.75,41.2625493258535
2933,41.3175125107576
2933.25,41.3724756956619
2933.5,41.4274388805661
2933.75,41.4824020654703
2934,41.5373652503745
2934.25,41.5923284352788
2934.5,41.4882198068402
2934.75,41.3583068243393
2935,41.2283938418384
2935.25,41.0984808593375
2935.5,40.9685678768368
2935.75,40.8386548943359
2936,40.708741911835
2936.25,40.5788289293341
2936.5,40.4489159468332
2936.75,40.3190029643323
2937,40.1890899818314
2937.25,40.0591769993305
2937.5,39.9292640168296
2937.75,39.7993510343289
2938,39.669438051828
2938.25,39.5395250693271
2938.5,39.4096120868262
2938.75,39.2796991043253
2939,39.1497861218244
2939.25,39.0198731393235
2939.5,38.9195862684473
2939.75,38.8246498581582
2940,38.7297134478691
2940.25,38.6347770375801
2940.5,38.539840627291
2940.75,38.4449042170019
2941,38.3499678067128
2941.25,38.2550313964236
2941.5,38.1600949861345
2941.75,38.0651585758454
2942,37.9702221655563
2942.25,37.8752857552672
2942.5,37.780349344978
2942.75,37.6854129346891
2943,37.5904765244
2943.25,37.4955401141109
2943.5,37.4006037038217
2943.75,37.3056672935326
2944,37.2107308832435
2944.25,37.1157944729544
2944.5,37.0708424441398
2944.75,37.0358658719281
2945,37.0008892997163
2945.25,36.9659127275046
2945.5,36.9309361552928
2945.75,36.895959583081
2946,36.8609830108692
2946.25,36.8260064386574
2946.5,36.7910298664457
2946.75,36.7560532942339
2947,36.7210767220221
2947.25,36.6861001498103
2947.5,36.6511235775985
2947.75,36.6161470053868
2948,36.581170433175
2948.25,36.5461938609633
2948.5,36.5112172887515
2948.75,36.4762407165397
2949,36.4412641443279
2949.25,36.4062875721161
2949.5,36.4368858572658
2949.75,36.4818557358238
2950,36.5268256143818
2950.25,36.5717954929398
2950.5,36.6167653714978
2950.75,36.6617352500558
2951,36.7067051286138
2951.25,36.7516750071718
2951.5,36.7966448857298
2951.75,36.8416147642878
2952,36.8865846428458
2952.25,36.9315545214038
2952.5,36.9765243999618
2952.75,37.0214942785197
2953,37.0664641570777
2953.25,37.1114340356357
2953.5,37.1564039141937
2953.75,37.2013737927517
2954,37.2463436713097
2954.25,37.2913135498678
2954.5,37.2032441908646
2954.75,37.08332451471
2955,36.9634048385553
2955.25,36.8434851624008
2955.5,36.7235654862462
2955.75,36.6036458100915
2956,36.4837261339368
2956.25,36.3638064577821
2956.5,36.2438867816274
2956.75,36.1239671054728
2957,36.0040474293181
2957.25,35.8841277531634
2957.5,35.7642080770087
2957.75,35.6442884008543
2958,35.5243687246996
2958.25,35.4044490485449
2958.5,35.2845293723902
2958.75,35.1646096962356
2959,35.0446900200809
2959.25,34.9247703439262
2959.5,34.9396455550952
2959.75,34.9896120868263
2960,35.0395786185574
2960.25,35.0895451502885
2960.5,35.1395116820196
2960.75,35.1894782137507
2961,35.2394447454818
2961.25,35.2894112772129
2961.5,35.339377808944
2961.75,35.3893443406751
2962,35.4393108724063
2962.25,35.4892774041374
2962.5,35.5392439358685
2962.75,35.5892104675995
2963,35.6391769993306
2963.25,35.6891435310617
2963.5,35.7391100627929
2963.75,35.789076594524
2964,35.8390431262551
2964.25,35.8890096579862
2964.5,35.9896452363498
2964.75,36.1045682593314
2965,36.219491282313
2965.25,36.3344143052943
2965.5,36.4493373282759
2965.75,36.5642603512575
2966,36.679183374239
2966.25,36.7941063972206
2966.5,36.9090294202022
2966.75,37.0239524431837
2967,37.1388754661653
2967.25,37.2537984891469
2967.5,37.3687215121282
2967.75,37.4836445351098
2968,37.5985675580913
2968.25,37.7134905810729
2968.5,37.8284136040545
2968.75,37.943336627036
2969,38.0582596500176
2969.25,38.1731826729992
2969.5,38.2421375067734
2969.75,38.2971006916776
2970,38.3520638765818
2970.25,38.407027061486
2970.5,38.4619902463902
2970.75,38.5169534312944
2971,38.5719166161987
2971.25,38.6268798011029
2971.5,38.6818429860071
2971.75,38.7368061709113
2972,38.7917693558156
2972.25,38.8467325407198
2972.5,38.9016957256239
2972.75,38.9566589105281
2973,39.0116220954324
2973.25,39.0665852803366
2973.5,39.1215484652408
2973.75,39.1765116501451
2974,39.2314748350493
2974.25,39.2864380199535
2974.5,39.3564561884424
2974.75,39.431405986039
2975,39.5063557836356
2975.25,39.5813055812323
2975.5,39.6562553788289
2975.75,39.7312051764256
2976,39.8061549740223
2976.25,39.8811047716189
2976.5,39.9560545692156
2976.75,40.0310043668123
2977,40.105954164409
2977.25,40.1809039620056
2977.5,40.2558537596022
2977.75,40.3308035571988
2978,40.4057533547955
2978.25,40.4807031523922
2978.5,40.5556529499889
2978.75,40.6306027475855
2979,40.7055525451822
2979.25,40.7805023427789
2979.5,40.7926063812833
2979.75,40.782613074937
2980,40.7726197685908
2980.25,40.7626264622446
2980.5,40.7526331558984
2980.75,40.7426398495522
2981,40.7326465432059
2981.25,40.7226532368597
2981.5,40.7126599305135
2981.75,40.7026666241673
2982,40.692673317821
2982.25,40.6826800114748
2982.5,40.6726867051286
2982.75,40.6626933987824
2983,40.6527000924362
2983.25,40.6427067860899
2983.5,40.6327134797437
2983.75,40.6227201733975
2984,40.6127268670513
2984.25,40.6027335607051
2984.5,40.6508182194882
2984.75,40.7207713639117
2985,40.7907245083352
2985.25,40.8606776527587
2985.5,40.9306307971823
2985.75,41.0005839416059
2986,41.0705370860294
2986.25,41.140490230453
2986.5,41.2104433748765
2986.75,41.2803965193001
2987,41.3503496637237
2987.25,41.4203028081472
2987.5,41.4902559525707
2987.75,41.5602090969942
2988,41.6301622414178
2988.25,41.7001153858413
2988.5,41.7700685302649
2988.75,41.8400216746885
2989,41.909974819112
2989.25,41.9799279635356
2989.5,42.0605699168075
2989.75,42.1455130207504
2990,42.2304561246932
2990.25,42.3153992286361
2990.5,42.400342332579
2990.75,42.4852854365219
2991,42.5702285404648
2991.25,42.6551716444077
2991.5,42.7401147483506
2991.75,42.8250578522935
2992,42.9100009562364
2992.25,42.9949440601793
2992.5,43.079887164122
2992.75,43.1648302680649
2993,43.2497733720078
2993.25,43.3347164759507
2993.5,43.4196595798936
2993.75,43.5046026838365
2994,43.5895457877794
2994.25,43.6744888917223
2994.5,43.6440640040799
2994.75,43.5641175533101
2995,43.4841711025404
2995.25,43.4042246517706
2995.5,43.3242782010009
2995.75,43.2443317502311
2996,43.1643852994613
2996.25,43.0844388486915
2996.5,43.0044923979217
2996.75,42.9245459471519
2997,42.8445994963821
2997.25,42.7646530456125
2997.5,42.6847065948427
2997.75,42.6047601440729
2998,42.5248136933032
2998.25,42.4448672425334
2998.5,42.3649207917636
2998.75,42.2849743409938
2999,42.205027890224
2999.25,42.1250814394542
2999.5,42.1822975169733
2999.75,42.3022171931278
3000,42.4221368692825
3000.25,42.5420565454372
3000.5,42.6619762215918
3000.75,42.7818958977465
3001,42.9018155739012
3001.25,43.0217352500559
3001.5,43.1416549262105
3001.75,43.2615746023652
3002,43.3814942785199
3002.25,43.5014139546744
3002.5,43.621333630829
3002.75,43.7412533069837
3003,43.8611729831384
3003.25,43.9810926592931
3003.5,44.1010123354477
3003.75,44.2209320116024
3004,44.3408516877571
3004.25,44.4607713639118
3004.5,44.4697408599751
3004.75,44.4247709814172
3005,44.3798011028592
3005.25,44.3348312243012
3005.5,44.2898613457431
3005.75,44.2448914671851
3006,44.1999215886271
3006.25,44.1549517100691
3006.5,44.1099818315111
3006.75,44.0650119529531
3007,44.0200420743951
3007.25,43.9750721958372
3007.5,43.9301023172792
3007.75,43.8851324387212
3008,43.8401625601632
3008.25,43.7951926816052
3008.5,43.7502228030472
3008.75,43.7052529244892
3009,43.6602830459312
3009.25,43.6153131673732
3009.5,43.5637529085519
3009.75,43.5087897236477
3010,43.4538265387435
3010.25,43.3988633538393
3010.5,43.3439001689351
3010.75,43.2889369840308
3011,43.2339737991266
3011.25,43.1790106142224
3011.5,43.1240474293182
3011.75,43.0690842444139
3012,43.0141210595097
3012.25,42.9591578746056
3012.5,42.9041946897013
3012.75,42.8492315047971
3013,42.7942683198929
3013.25,42.7393051349887
3013.5,42.6843419500844
3013.75,42.6293787651802
3014,42.574415580276
3014.25,42.5194523953718
3014.5,42.4677174640614
3014.75,42.4177509323304
3015,42.3677844005992
3015.25,42.3178178688681
3015.5,42.267851337137
3015.75,42.2178848054059
3016,42.1679182736748
3016.25,42.1179517419437
3016.5,42.0679852102126
3016.75,42.0180186784814
3017,41.9680521467503
3017.25,41.9180856150193
3017.5,41.8681190832882
3017.75,41.8181525515571
3018,41.768186019826
3018.25,41.7182194880948
3018.5,41.6682529563637
3018.75,41.6182864246326
3019,41.5683198929015
3019.25,41.5183533611704
3019.5,41.4399349759346
3019.75,41.3449985656456
3020,41.2500621553565
3020.25,41.1551257450674
3020.5,41.0601893347783
3020.75,40.9652529244892
3021,40.8703165142
3021.25,40.7753801039109
3021.5,40.6804436936218
3021.75,40.5855072833327
3022,40.4905708730436
3022.25,40.3956344627546
3022.5,40.3006980524655
3022.75,40.2057616421764
3023,40.1108252318873
3023.25,40.0158888215981
3023.5,39.920952411309
3023.75,39.8260160010199
3024,39.7310795907308
3024.25,39.6361431804417
3024.5,39.5226404870428
3024.75,39.3977241577153
3025,39.2728078283875
3025.25,39.1478914990597
3025.5,39.0229751697319
3025.75,38.8980588404041
3026,38.7731425110763
3026.25,38.6482261817485
3026.5,38.5233098524207
3026.75,38.398393523093
3027,38.2734771937654
3027.25,38.1485608644376
3027.5,38.0236445351098
3027.75,37.898728205782
3028,37.7738118764542
3028.25,37.6488955471265
3028.5,37.5239792177987
3028.75,37.3990628884709
3029,37.2741465591431
3029.25,37.1492302298153
3029.5,37.1272469958244
3029.75,37.1722168743824
3030,37.2171867529404
3030.25,37.2621566314984
3030.5,37.3071265100564
3030.75,37.3520963886144
3031,37.3970662671724
3031.25,37.4420361457304
3031.5,37.4870060242884
3031.75,37.5319759028465
3032,37.5769457814044
3032.25,37.6219156599624
3032.5,37.6668855385204
3032.75,37.7118554170784
3033,37.7568252956364
3033.25,37.8017951741944
3033.5,37.8467650527524
3033.75,37.8917349313104
3034,37.9367048098684
3034.25,37.9816746884264
3034.5,38.0148025372135
3034.75,38.0397858030791
3035,38.0647690689446
3035.25,38.0897523348102
3035.5,38.1147356006758
3035.75,38.1397188665413
3036,38.1647021324069
3036.25,38.1896853982724
3036.5,38.214668664138
3036.75,38.2396519300035
3037,38.264635195869
3037.25,38.2896184617346
3037.5,38.3146017276002
3037.75,38.3395849934657
3038,38.3645682593313
3038.25,38.3895515251968
3038.5,38.4145347910624
3038.75,38.439518056928
3039,38.4645013227935
3039.25,38.4894845886591
3039.5,38.5231485672393
3039.75,38.5631217926242
3040,38.6030950180091
3040.25,38.643068243394
3040.5,38.6830414687789
3040.75,38.7230146941638
3041,38.7629879195487
3041.25,38.8029611449336
3041.5,38.8429343703185
3041.75,38.8829075957034
3042,38.9228808210882
3042.25,38.9628540464731
3042.5,39.002827271858
3042.75,39.0428004972429
3043,39.0827737226277
3043.25,39.1227469480126
3043.5,39.1627201733975
3043.75,39.2026933987824
3044,39.2426666241673
3044.25,39.2826398495522
3044.5,39.3254397093042
3044.75,39.3704095878622
3045,39.4153794664202
3045.25,39.4603493449782
3045.5,39.5053192235362
3045.75,39.5502891020942
3046,39.5952589806522
3046.25,39.6402288592102
3046.5,39.6851987377682
3046.75,39.7301686163262
3047,39.7751384948841
3047.25,39.8201083734421
3047.5,39.8650782520001
3047.75,39.9100481305581
3048,39.9550180091161
3048.25,39.9999878876741
3048.5,40.0449577662322
3048.75,40.0899276447902
3049,40.1348975233482
3049.25,40.1798674019062
3049.5,40.1586045325599
3049.75,40.0836547349632
3050,40.0087049373665
3050.25,39.9337551397699
3050.5,39.8588053421732
3050.75,39.7838555445765
3051,39.7089057469798
3051.25,39.6339559493832
3051.5,39.5590061517865
3051.75,39.4840563541898
3052,39.4091065565933
3052.25,39.3341567589966
3052.5,39.2592069613999
3052.75,39.1842571638033
3053,39.1093073662066
3053.25,39.0343575686099
3053.5,38.9594077710132
3053.75,38.8844579734166
3054,38.8095081758199
3054.25,38.7345583782232
3054.5,38.7403914193733
3054.75,38.81534121697
3055,38.8902910145667
3055.25,38.9652408121634
3055.5,39.04019060976
3055.75,39.1151404073567
3056,39.1900902049534
3056.25,39.26504000255
3056.5,39.3399898001467
3056.75,39.4149395977433
3057,39.4898893953399
3057.25,39.5648391929366
3057.5,39.6397889905333
3057.75,39.7147387881299
3058,39.7896885857266
3058.25,39.8646383833233
3058.5,39.93958818092
3058.75,40.0145379785166
3059,40.0894877761133
3059.25,40.1644375737098
3059.5,40.1711159277086
3059.75,40.1161527428043
3060,40.0611895579001
3060.25,40.0062263729959
3060.5,39.9512631880916
3060.75,39.8963000031874
3061,39.8413368182832
3061.25,39.786373633379
3061.5,39.7314104484747
3061.75,39.6764472635706
3062,39.6214840786664
3062.25,39.5665208937622
3062.5,39.5115577088579
3062.75,39.4565945239537
3063,39.4016313390495
3063.25,39.3466681541452
3063.5,39.291704969241
3063.75,39.2367417843368
3064,39.1817785994326
3064.25,39.1268154145284
3064.5,39.1153533292959
3064.75,39.1453332483346
3065,39.1753131673732
3065.25,39.2052930864119
3065.5,39.2352730054506
3065.75,39.2652529244892
3066,39.2952328435279
3066.25,39.3252127625666
3066.5,39.3551926816052
3066.75,39.3851726006439
3067,39.4151525196825
3067.25,39.4451324387212
3067.5,39.4751123577599
3067.75,39.5050922767985
3068,39.5350721958372
3068.25,39.5650521148759
3068.5,39.5950320339145
3068.75,39.6250119529532
3069,39.6549918719919
3069.25,39.6849717910305
3069.5,39.6476690147579
3069.75,39.5427392981226
3070,39.4378095814873
3070.25,39.3328798648519
3070.5,39.2279501482166
3070.75,39.1230204315812
3071,39.0180907149459
3071.25,38.9131609983105
3071.5,38.8082312816752
3071.75,38.70330156504
3072,38.5983718484047
3072.25,38.4934421317694
3072.5,38.388512415134
3072.75,38.2835826984987
3073,38.1786529818633
3073.25,38.073723265228
3073.5,37.9687935485926
3073.75,37.8638638319573
3074,37.758934115322
3074.25,37.6540043986868
3074.5,37.5320995760686
3074.75,37.3921932872215
3075,37.2522869983744
3075.25,37.1123807095272
3075.5,36.9724744206801
3075.75,36.832568131833
3076,36.6926618429859
3076.25,36.5527555541387
3076.5,36.4128492652916
3076.75,36.2729429764448
3077,36.1330366875976
3077.25,35.9931303987505
3077.5,35.8532241099034
3077.75,35.7133178210563
3078,35.5734115322091
3078.25,35.433505243362
3078.5,35.2935989545149
3078.75,35.1536926656678
3079,35.0137863768206
3079.25,34.8738800879738
3079.5,34.7976419213974
3079.75,34.7926452682243
3080,34.7876486150512
3080.25,34.782651961878
3080.5,34.7776553087049
3080.75,34.7726586555318
3081,34.7676620023587
3081.25,34.7626653491856
3081.5,34.7576686960125
3081.75,34.7526720428394
3082,34.7476753896663
3082.25,34.7426787364932
3082.5,34.7376820833201
3082.75,34.7326854301469
3083,34.7276887769738
3083.25,34.7226921238007
3083.5,34.7176954706276
3083.75,34.7126988174545
3084,34.7077021642814
3084.25,34.7027055111083
3084.5,34.741240557167
3084.75,34.831180314283
3085,34.921120071399
3085.25,35.011059828515
3085.5,35.100999585631
3085.75,35.190939342747
3086,35.280879099863
3086.25,35.370818856979
3086.5,35.460758614095
3086.75,35.5506983712109
3087,35.6406381283269
3087.25,35.7305778854429
3087.5,35.8205176425589
3087.75,35.9104573996749
3088,36.0003971567909
3088.25,36.0903369139069
3088.5,36.180276671023
3088.75,36.270216428139
3089,36.3601561852548
3089.25,36.4500959423708
3089.5,36.4377222452427
3089.75,36.2978159563956
3090,36.1579096675485
3090.25,36.0180033787014
3090.5,35.8780970898542
3090.75,35.7381908010071
3091,35.59828451216
3091.25,35.4583782233129
3091.5,35.318471934466
3091.75,35.1785656456189
3092,35.0386593567718
3092.25,34.8987530679246
3092.5,34.7588467790775
3092.75,34.6189404902304
3093,34.4790342013833
3093.25,34.3391279125361
3093.5,34.199221623689
3093.75,34.0593153348419
3094,33.919409045995
3094.25,33.7795027571479
3094.5,33.7107863449463
3094.75,33.7357696108119
3095,33.7607528766774
3095.25,33.785736142543
3095.5,33.8107194084085
3095.75,33.8357026742741
3096,33.8606859401396
3096.25,33.8856692060052
3096.5,33.9106524718707
3096.75,33.9356357377363
3097,33.9606190036018
3097.25,33.9856022694674
3097.5,34.0105855353329
3097.75,34.0355688011985
3098,34.0605520670641
3098.25,34.0855353329296
3098.5,34.1105185987952
3098.75,34.1355018646607
3099,34.1604851305262
3099.25,34.1854683963918
3099.5,34.1414706913588
3099.75,34.0015644025117
3100,33.8616581136646
3100.25,33.7217518248174
3100.5,33.5818455359703
3100.75,33.4419392471232
3101,33.3020329582761
3101.25,33.1621266694289
3101.5,33.0222203805821
3101.75,32.882314091735
3102,32.7424078028878
3102.25,32.6025015140407
3102.5,32.4625952251936
3102.75,32.3226889363465
3103,32.1827826474993
3103.25,32.0428763586522
3103.5,31.9029700698051
3103.75,31.763063780958
3104,31.6231574921111
3104.25,31.483251203264
3104.5,31.4
3104.75,31.4
3105,31.4
3105.25,31.4
3105.5,31.4
3105.75,31.4
3106,31.4
3106.25,31.4
3106.5,31.4
3106.75,31.4
3107,31.4
3107.25,31.4
3107.5,31.4
3107.75,31.4
3108,31.4
3108.25,31.4
3108.5,31.4
3108.75,31.4
3109,31.4
3109.25,31.4
3109.5,31.4293468906385
3109.75,31.5042966882351
3110,31.5792464858318
3110.25,31.6541962834285
3110.5,31.7291460810251
3110.75,31.8040958786218
3111,31.8790456762185
3111.25,31.9539954738152
3111.5,32.0289452714117
3111.75,32.1038950690084
3112,32.178844866605
3112.25,32.2537946642017
3112.5,32.3287444617984
3112.75,32.4036942593951
3113,32.4786440569917
3113.25,32.5535938545884
3113.5,32.6285436521851
3113.75,32.7034934497818
3114,32.7784432473783
3114.25,32.853393044975
3114.5,32.9491275937909
3114.75,33.0790405762918
3115,33.2089535587927
3115.25,33.3388665412936
3115.5,33.4687795237945
3115.75,33.5986925062954
3116,33.7286054887963
3116.25,33.8585184712972
3116.5,33.9884314537978
3116.75,34.1183444362987
3117,34.2482574187996
3117.25,34.3781704013005
3117.5,34.5080833838014
3117.75,34.6379963663023
3118,34.7679093488032
3118.25,34.8978223313041
3118.5,35.027735313805
3118.75,35.1576482963057
3119,35.2875612788066
3119.25,35.4174742613075
3119.5,35.5145806904026
3119.75,35.5545539157875
3120,35.5945271411724
3120.25,35.6345003665573
3120.5,35.6744735919422
3120.75,35.714446817327
3121,35.7544200427119
3121.25,35.7943932680968
3121.5,35.8343664934816
3121.75,35.8743397188665
3122,35.9143129442514
3122.25,35.9542861696363
3122.5,35.9942593950212
3122.75,36.0342326204061
3123,36.074205845791
3123.25,36.1141790711759
3123.5,36.1541522965608
3123.75,36.1941255219456
3124,36.2340987473305
3124.25,36.2740719727154
3124.5,36.3193121473879
3124.75,36.3742753322921
3125,36.4292385171963
3125.25,36.4842017021006
3125.5,36.5391648870048
3125.75,36.594128071909
3126,36.6490912568133
3126.25,36.7040544417174
3126.5,36.7590176266216
3126.75,36.8139808115258
3127,36.8689439964301
3127.25,36.9239071813343
3127.5,36.9788703662385
3127.75,37.0338335511427
3128,37.088796736047
3128.25,37.1437599209512
3128.5,37.1987231058554
3128.75,37.2536862907595
3129,37.3086494756638
