2169,1118.94012179482
2169.25,1117.66919151678
2169.5,1111.25426486947
2169.75,1101.73197555398
2170,1091.13898203143
2170.25,1081.47186589545
2170.5,1073.76996486855
2170.75,1068.09523904372
2171,1064.46554434778
2171.25,1062.89820987331
2171.5,1063.16747817469
2171.75,1064.41936093271
2172,1065.69973529683
2172.25,1066.0544784165
2172.5,1064.72437441611
2172.75,1062.01642625637
2173,1058.60038220795
2173.25,1055.14629249299
2173.5,1052.30853460205
2173.75,1050.53463989581
2174,1050.12596890207
2174.25,1051.38080491365
2174.5,1054.58204893233
2174.75,1059.46920594669
2175,1065.1059417195
2175.25,1070.5136554105
2175.5,1074.71551728356
2175.75,1077.08868181502
2176,1077.78978765641
2176.25,1077.07936450602
2176.5,1075.21794206214
2176.75,1072.52279533341
2177,1069.60998006591
2177.25,1067.19353789001
2177.5,1065.98756773564
2177.75,1066.63580458309
2178,1068.76559394535
2178.25,1071.24010247862
2178.5,1072.90386477794
2178.75,1072.61604622266
2179,1070.04369467061
2179.25,1066.06742193143
2179.5,1061.66784180864
2179.75,1057.82554492278
2180,1055.34158840167
2180.25,1054.4045868754
2180.5,1055.07267468869
2180.75,1057.40398618626
2181,1061.34688736312
2181.25,1066.09189690958
2181.5,1070.50969286435
2181.75,1073.46982391762
2182,1073.94288679678
2182.25,1072.47622337119
2182.5,1070.86495903392
2182.75,1070.93834357813
2183,1074.50752661682
2183.25,1081.9082141406
2183.5,1090.93170355589
2183.75,1099.11728874594
2184,1104.00426359805
2184.25,1103.87566255625
2184.5,1099.97381597659
2184.75,1094.27698221738
2185,1088.7634196369
2185.25,1085.31547382126
2185.5,1084.29703146854
2185.75,1084.85893134921
2186,1086.11814884943
2186.25,1087.19333800276
2186.5,1087.43261516584
2186.75,1086.6446705792
2187,1084.69325556981
2187.25,1081.44212146463
2187.5,1076.948278589
2187.75,1072.34591877076
2188,1069.14231309639
2188.25,1068.84509562358
2188.5,1072.83909031948
2188.75,1080.40193851424
2189,1089.03919242019
2189.25,1096.20124366846
2189.5,1099.35827536348
2189.75,1097.69415492108
2190,1093.40604409405
2190.25,1088.99706523207
2190.5,1086.9703406848
2190.75,1089.29240404053
2191,1094.94269440484
2191.25,1101.86730567756
2191.5,1108.01133649885
2191.75,1111.39730652557
2192,1111.51633604837
2192.25,1109.17321198478
2192.5,1105.21903468061
2192.75,1100.5048032731
2193,1095.75715124779
2193.25,1091.33624799701
2193.5,1087.53509711741
2193.75,1084.64670220561
2194,1082.93619066231
2194.25,1082.37988940628
2194.5,1082.78328450201
2194.75,1083.94963586966
2195,1085.68085808852
2195.25,1087.71308244293
2195.5,1089.68824672581
2195.75,1091.241030806
2196,1092.00611739051
2196.25,1091.85970715777
2196.5,1091.57898839137
2196.75,1092.1512075903
2197,1094.56361125356
2197.25,1099.68354741632
2197.5,1106.92597759489
2197.75,1114.74025873263
2198,1121.55832015757
2198.25,1125.82055759879
2198.5,1126.80285378902
2198.75,1125.31089898916
2199,1122.31385017482
2199.25,1118.78086432157
2199.5,1115.57837028872
2199.75,1112.74052767763
2200,1109.89783884881
2200.25,1106.67814532381
2200.5,1102.71633184236
2200.75,1098.19301879351
2201,1094.21433847704
2201.25,1091.97612997657
2201.5,1092.6742323757
2201.75,1097.07618872761
2202,1103.51640090594
2202.25,1109.47117555811
2202.5,1112.41585037578
2202.75,1109.94121073972
2203,1102.14841056918
2203.25,1091.57100261325
2203.5,1080.84238850183
2203.75,1072.59582715667
2204,1068.81610806544
2204.25,1069.34704700602
2204.5,1073.59123190184
2204.75,1080.95125067629
2205,1090.71947527829
2205.25,1101.29735912678
2205.5,1110.65507757986
2205.75,1116.75998455764
2206,1117.63885278733
2206.25,1113.15864780479
2206.5,1105.33583711687
2206.75,1096.30863734893
2207,1088.21526512628
2207.25,1082.83629183022
2207.5,1080.38051917209
2207.75,1080.62509388575
2208,1083.34715057336
2208.25,1088.26372227707
2208.5,1094.24970032845
2208.75,1099.55973626241
2209,1102.43406586791
2209.25,1101.12629456026
2209.5,1095.1474221686
2209.75,1086.27732428574
2210,1076.53391034294
2210.25,1067.93508977145
2210.5,1062.18798555209
2210.75,1059.15124082042
2211,1058.00282164845
2211.25,1057.91963096369
2211.5,1058.1310257552
2211.75,1058.64754940128
2212,1060.07922660947
2212.25,1063.05139477161
2212.5,1068.16888727776
2212.75,1075.07348999081
2213,1082.05046336224
2213.25,1087.28296159711
2213.5,1088.95486141322
2213.75,1086.07943552001
2214,1080.09540869739
2214.25,1072.88252469102
2214.5,1066.32052724653
2214.75,1062.07937578712
2215,1060.00063566568
2215.25,1058.98338580814
2215.5,1057.91888436801
2215.75,1055.74131552356
2216,1052.4214823753
2216.25,1048.99497082776
2216.5,1046.54592685546
2216.75,1046.15109382326
2217,1048.08845863636
2217.25,1051.13429816812
2217.5,1053.8990780975
2217.75,1054.99348854944
2218,1053.62006804434
2218.25,1050.85748281828
2218.5,1048.15528168627
2218.75,1046.96301346331
2219,1048.44191643547
2219.25,1051.97937190875
2219.5,1056.28864962801
2219.75,1060.08171624237
2220,1062.17738544173
2220.25,1062.62054634694
2220.5,1062.23956276085
2220.75,1061.87552170964
2221,1062.35717396522
2221.25,1064.10077826093
2221.5,1067.02261860892
2221.75,1071.00894307177
2222,1075.9449350705
2222.25,1081.41372175673
2222.5,1086.28247098207
2222.75,1089.3146086539
2223,1089.27356067959
2223.25,1085.27016918794
2223.5,1078.42137985964
2223.75,1070.56261460927
2224,1063.53021050091
2224.25,1059.10246243644
2224.5,1057.85539005101
2224.75,1059.23213925211
2225,1062.63170947737
2225.25,1067.45173432463
2225.5,1072.96364163024
2225.75,1078.21236827809
2226,1082.21925187314
2226.25,1084.00563133927
2226.5,1082.99704299668
2226.75,1080.16443127723
2227,1076.8480284509
2227.25,1074.38806678766
2227.5,1073.99649565574
2227.75,1075.4597753682
2228,1077.67500566263
2228.25,1079.52576772361
2228.5,1079.91276315472
2228.75,1078.47281759802
2229,1075.84196156505
2229.25,1072.72750698512
2229.5,1069.83671614673
2229.75,1067.64344867357
2230,1065.84920000135
2230.25,1063.99591917651
2230.5,1061.62555524551
2230.75,1058.36349506842
2231,1054.48533144401
2231.25,1050.57174698587
2231.5,1047.20518176929
2231.75,1044.96883646867
2232,1044.46052820387
2232.25,1046.29125093121
2232.5,1051.07247031367
2232.75,1059.38785526579
2233,1070.39480795725
2233.25,1081.16873286883
2233.5,1088.62018049064
2233.75,1089.66241182168
2234,1082.90761808623
2234.25,1071.56776316956
2234.5,1059.62567791947
2234.75,1051.06419318377
2235,1049.3173306101
2235.25,1053.37939083828
2235.5,1060.0940562687
2235.75,1066.29090271646
2236,1068.94938400236
2236.25,1067.55779625251
2236.5,1063.68165963726
2236.75,1058.94908306332
2237,1054.98135903884
2237.25,1052.87407027358
2237.5,1052.8326317505
2237.75,1054.97635089442
2238,1059.42438605855
2238.25,1065.88150492717
2238.5,1072.73319913024
2238.75,1078.10300105643
2239,1080.1144430944
2239.25,1077.29505310393
2239.5,1070.79706930333
2239.75,1062.8213453349
2240,1055.57148588602
2240.25,1051.17196467829
2240.5,1050.09335930688
2240.75,1051.23969016392
2241,1053.45333057968
2241.25,1055.58406542102
2241.5,1057.01578580561
2241.75,1058.01621735673
2242,1058.93605457462
2242.25,1060.12593043216
2242.5,1061.82421379741
2242.75,1063.92481822026
2243,1066.25581433618
2243.25,1068.64527278063
2243.5,1070.91733961045
2243.75,1072.87133432411
2244,1074.29689681153
2244.25,1074.98364498144
2244.5,1074.74289374885
2244.75,1073.74755552722
2245,1072.46909666115
2245.25,1071.38792653907
2245.5,1070.98085314854
2245.75,1071.37538906137
2246,1072.06281427302
2246.25,1072.46686799485
2246.5,1072.0112894382
2246.75,1070.3965407415
2247,1068.46507581538
2247.25,1067.35389800743
2247.5,1068.20001098691
2247.75,1071.97781601798
2248,1077.9931819468
2248.25,1084.57221528042
2248.5,1090.02853570741
2248.75,1092.71634604234
2249,1092.35075958835
2249.25,1090.298683116
2249.5,1088.02646827597
2249.75,1087.0004035217
2250,1088.30343392658
2250.25,1091.72923331903
2250.5,1096.80072437285
2250.75,1103.04082976182
2251,1109.92769438205
2251.25,1116.49321471103
2251.5,1121.51313804942
2251.75,1123.76016646809
2252,1122.01936046272
2252.25,1116.11172825861
2252.5,1107.66104145977
2252.75,1098.47170876095
2253,1090.34813885691
2253.25,1084.8990910145
2253.5,1082.27997306461
2253.75,1081.99189740235
2254,1083.53282748514
2254.25,1086.39773300905
2254.5,1089.98987300148
2254.75,1093.60595310023
2255,1096.53669568195
2255.25,1098.07304073071
2255.5,1097.77450519465
2255.75,1095.99239629994
2256,1093.22321464311
2256.25,1089.96346082072
2256.5,1086.72350450271
2256.75,1084.15160304945
2257,1082.97501456923
2257.25,1083.92193093704
2257.5,1087.70378594174
2257.75,1094.16695076267
2258,1101.8920047693
2258.25,1109.35896514873
2258.5,1115.04784957794
2258.75,1117.80915875725
2259,1117.92680486913
2259.25,1116.03131743232
2259.5,1112.75322596555
2259.75,1108.72178674364
2260,1104.54297442406
2260.25,1100.80239701526
2260.5,1098.08497554745
2260.75,1096.97527582336
2261,1097.6696498259
2261.25,1099.23552631834
2261.5,1100.53626602278
2261.75,1100.4352296613
2262,1097.98521155029
2262.25,1094.06683816627
2262.5,1090.58357932539
2262.75,1089.45012680156
2263,1092.55480482843
2263.25,1100.03610854219
2263.5,1109.2191574966
2263.75,1117.17484082465
2264,1120.97404765929
2264.25,1118.52661533602
2264.5,1111.5747009159
2264.75,1102.95411878253
2265,1095.50076634884
2265.25,1091.96735603443
2265.5,1092.91542888711
2265.75,1096.54884243832
2266,1100.95491078289
2266.25,1104.22136635925
2266.5,1104.99007064574
2266.75,1103.54908238784
2267,1100.49075483208
2267.25,1096.40744122498
2267.5,1091.89452070791
2267.75,1087.58040034255
2268,1084.11381797221
2268.25,1082.14380895582
2268.5,1082.31180002387
2268.75,1084.69069801897
2269,1088.4009454161
2269.25,1092.47211784172
2269.5,1095.93379092231
2269.75,1098.01192418757
2270,1098.77546652683
2270.25,1098.51951279526
2270.5,1097.539160593
2270.75,1096.12689536879
2271,1094.53495067562
2271.25,1092.98396649075
2271.5,1091.69373421053
2271.75,1090.88440539435
2272,1090.84805829303
2272.25,1092.03512726924
2272.5,1094.91714827041
2272.75,1099.965657244
2273,1107.39745433055
2273.25,1115.77554591718
2273.5,1123.00265471507
2273.75,1126.97977772453
2274,1125.67171916885
2274.25,1119.05655245661
2274.5,1109.4855137132
2274.75,1099.44623585393
2275,1091.42635179411
2275.25,1087.4164116664
2275.5,1086.94636796712
2275.75,1088.78618909399
2276,1091.70562324549
2276.25,1094.49419548177
2276.5,1096.28218370235
2276.75,1096.48718247801
2277,1094.53577843897
2277.25,1089.85741656786
2277.5,1082.54132628652
2277.75,1074.17615164225
2278,1066.55772462635
2278.25,1061.48187723011
2278.5,1060.39080695584
2278.75,1062.34779820275
2279,1065.43526774971
2279.25,1067.73256655585
2279.5,1067.44549849146
2279.75,1064.78333389392
2280,1061.55662946635
2280.25,1059.62069069271
2280.5,1060.81279738226
2280.75,1065.71989752093
2281,1072.88708409308
2281.25,1080.67108312674
2281.5,1087.42872896802
2281.75,1091.84782875016
2282,1093.67785049138
2282.25,1092.88070165217
2282.5,1089.41828969303
2282.75,1083.34715164441
2283,1075.6165223762
2283.25,1067.66629940703
2283.5,1060.94145848909
2283.75,1056.8657408739
2284,1055.89647093652
2284.25,1057.14734497799
2284.5,1059.63280501668
2284.75,1062.36773810721
2285,1064.59510141158
2285.25,1066.15712542982
2285.5,1066.9932898996
2285.75,1067.0430745586
2286,1066.27808972441
2286.25,1064.84666792542
2286.5,1062.95757770804
2286.75,1060.8196403044
2287,1058.67817683458
2287.25,1057.27091513439
2287.5,1057.68890631177
2287.75,1061.03092041799
2288,1068.35666664338
2288.25,1079.08172468626
2288.5,1090.41022471371
2288.75,1099.39063723836
2289,1103.07334152571
2289.25,1099.83724812008
2289.5,1091.71135717984
2289.75,1081.3460380108
2290,1071.39165991877
2290.25,1064.31290672493
2290.5,1060.75512326068
2290.75,1060.33317045306
2291,1062.65015924793
2291.25,1067.29211929527
2291.5,1073.31234495773
2291.75,1079.13970689616
2292,1083.16751170117
2292.25,1083.79256536964
2292.5,1080.39304157131
2292.75,1074.66793882369
2293,1068.65168419251
2293.25,1064.37870474354
2293.5,1063.56997870227
2293.75,1065.9278147645
2294,1070.35445152686
2294.25,1075.75012377478
2294.5,1081.06311715673
2294.75,1085.99725438311
2295,1090.85725338882
2295.25,1095.96444524486
2295.5,1101.63524236775
2295.75,1107.71856348738
2296,1113.21703774206
2296.25,1117.04414646486
2296.5,1118.11337098885
2296.75,1115.59484079443
2297,1110.15342972261
2297.25,1102.99368989754
2297.5,1095.32090408134
2297.75,1088.32765101342
2298,1082.7241314259
2298.25,1078.6004877331
2298.5,1076.00607692791
2298.75,1074.99025234095
2299,1075.53867008042
2299.25,1077.4110572646
2299.5,1080.31707278814
2299.75,1083.96637554572
2300,1088.0433205142
2300.25,1092.00473276724
2300.5,1095.18711911338
2300.75,1096.92589357619
2301,1096.57780011843
2301.25,1094.32676320721
2301.5,1091.43007638991
2301.75,1089.21665094109
2302,1089.01539734363
2302.25,1091.73950905635
2302.5,1096.70074658553
2302.75,1102.82530762397
2303,1109.03938986449
2303.25,1114.32606439459
2303.5,1118.35408584069
2303.75,1121.24651889343
2304,1123.13455473993
2304.25,1124.14898938373
2304.5,1124.34906579997
2304.75,1123.64000581321
2305,1121.90703569895
2305.25,1119.03538173267
2305.5,1114.97099431055
2305.75,1110.25089496854
2306,1105.74515996188
2306.25,1102.32760125108
2306.5,1100.86735709241
2306.75,1101.639611232
2307,1103.75037950908
2307.25,1106.16914189992
2307.5,1107.86537838077
2307.75,1107.99097558258
2308,1106.88072021652
2308.25,1105.34119714651
2308.5,1104.18021712358
2308.75,1104.19011214917
2309,1105.59354624592
2309.25,1107.89119996731
2309.5,1110.5372748623
2309.75,1112.98597247987
2310,1114.83371263957
2310.25,1116.2569507892
2310.5,1117.57999646077
2310.75,1119.12715922575
2311,1121.19791257386
2311.25,1123.61845625349
2311.5,1125.7904801318
2311.75,1127.1006269302
2312,1126.93559764675
2312.25,1124.9773920075
2312.5,1121.89001717714
2312.75,1118.54135131134
2313,1115.79927256574
2313.25,1114.48169120521
2313.5,1114.50332778361
2313.75,1114.99436791415
2314,1115.05890793618
2314.25,1113.80131119788
2314.5,1110.74476189458
2314.75,1106.67867409128
2315,1102.63082933144
2315.25,1099.62900915853
2315.5,1098.62025107024
2315.75,1099.50900550656
2316,1101.47419904424
2316.25,1103.68005159385
2316.5,1105.29392039723
2316.75,1105.89319957072
2317,1105.8685452861
2317.25,1105.70645633117
2317.5,1105.89343149372
2317.75,1106.83211213164
2318,1108.34827113932
2318.25,1110.02500587332
2318.5,1111.44457087432
2318.75,1112.19376051813
2319,1112.03728360604
2319.25,1110.97179579643
2319.5,1109.00953789218
2319.75,1106.16275069616
2320,1102.55362207096
2320.25,1098.81421588168
2320.5,1095.72429245582
2320.75,1094.06362737673
2321,1094.56219552293
2321.25,1096.93730352663
2321.5,1099.96227040756
2321.75,1102.37437184981
2322,1102.91222239803
2322.25,1100.90150247068
2322.5,1097.17256100849
2322.75,1092.79342306241
2323,1088.8321136834
2323.25,1086.27117971489
2323.5,1085.32174387003
2323.75,1085.78578488833
2324,1087.46152703554
2324.25,1090.14873828611
2324.5,1093.71194769755
2324.75,1098.10266688618
2325,1103.27851707031
2325.25,1109.19711410495
2325.5,1115.62715053701
2325.75,1121.64962248035
2326,1126.18909653234
2326.25,1128.17013929039
2326.5,1126.60554766289
2326.75,1121.85156916277
2327,1115.31067107707
2327.25,1108.41293717564
2327.5,1102.5882492202
2327.75,1098.82949740162
2328,1096.76764251339
2328.25,1095.76907360164
2328.5,1095.20017971248
2328.75,1094.48056404223
2329,1093.63687845578
2329.25,1093.08199626167
2329.5,1093.23498848419
2329.75,1094.50949846053
2330,1096.87078765883
2330.25,1099.50751744023
2330.5,1101.53100320724
2330.75,1102.05256036237
2331,1100.43353833173
2331.25,1097.32276208043
2331.5,1093.78227751185
2331.75,1090.87432216722
2332,1089.63549275524
2332.25,1090.53499927795
2332.5,1093.48681204819
2332.75,1098.38169030643
2333,1105.10963864546
2333.25,1113.21415742012
2333.5,1121.34395017039
2333.75,1128.00521973068
2334,1131.70416893542
2334.25,1131.13646062987
2334.5,1126.7462686035
2334.75,1119.92205921272
2335,1112.061515957
2335.25,1104.56026104343
2335.5,1098.40205801384
2335.75,1093.66380666532
2336,1090.30154784888
2336.25,1088.27132241551
2336.5,1087.48454397852
2336.75,1087.50174221333
2337,1087.71754298421
2337.25,1087.52558561973
2337.5,1086.3374824251
2337.75,1084.15726461943
2338,1081.70214323096
2338.25,1079.7317153231
2338.5,1079.00543039693
2338.75,1079.93406148455
2339,1081.83327084838
2339.25,1083.80428263218
2339.5,1084.94832097971
2339.75,1084.51178173014
2340,1082.94226804853
2340.25,1081.28041815721
2340.5,1080.57106036794
2340.75,1081.82896355728
2341,1085.05827310067
2341.25,1089.03499318948
2341.5,1092.4610461752
2341.75,1094.03886231001
2342,1093.11744271853
2342.25,1090.95840239842
2342.5,1089.17532095075
2342.75,1089.38177797659
2343,1092.94284072362
2343.25,1098.87562795761
2343.5,1104.90515765992
2343.75,1108.74302121973
2344,1108.13586643488
2344.25,1102.51479461807
2344.5,1093.70578647371
2344.75,1083.71750272677
2345,1074.55860410219
2345.25,1067.99212165551
2345.5,1064.56804627563
2345.75,1064.46256473897
2346,1067.85175880466
2346.25,1074.80262859087
2346.5,1083.95151037133
2346.75,1092.92815982065
2347,1099.34136786028
2347.25,1100.83648268138
2347.5,1096.95550819536
2347.75,1090.02123976845
2348,1082.57801359397
2348.25,1077.17016586523
2348.5,1075.7160729297
2348.75,1077.22750050515
2349,1079.87317984438
2349.25,1081.821752941
2349.5,1081.36517015261
2349.75,1078.36234076219
2350,1073.75034283113
2350.25,1068.48750086633
2350.5,1063.52911456055
2350.75,1059.6219153438
2351,1057.17273977481
2351.25,1056.55715424902
2351.5,1058.15067305769
2351.75,1061.95656242935
2352,1066.71399830459
2352.25,1070.89408169346
2352.5,1072.96791360599
2352.75,1071.70820101474
2353,1067.95990519341
2353.25,1063.43878303503
2353.5,1059.8635987063
2353.75,1058.87570886192
2354,1060.57089871134
2354.25,1063.61956233064
2354.5,1066.638771729
2354.75,1068.25569307867
2355,1067.90999724435
2355.25,1066.4367460612
2355.5,1064.8084711233
2355.75,1063.99770058523
2356,1064.68516755179
2356.25,1066.46313722916
2356.5,1068.67012559325
2356.75,1070.64464861996
2357,1071.76105407793
2357.25,1071.6880734345
2357.5,1070.23890908444
2357.75,1067.22776084117
2358,1062.49441225213
2358.25,1056.51512816398
2358.5,1050.43055537205
2358.75,1045.4125077555
2359,1042.62829531407
2359.25,1042.52590609163
2359.5,1044.05104157213
2359.75,1045.96114217383
2360,1047.0137008625
2360.25,1046.4054324193
2360.5,1044.83764959667
2360.75,1043.33357971106
2361,1042.91645007892
2361.25,1044.4128171087
2361.5,1047.46087885482
2361.75,1051.25474406116
2362,1054.9877534741
2362.25,1057.93186520958
2362.5,1060.19354258074
2362.75,1062.38217900759
2363,1065.11409184922
2363.25,1068.97360524718
2363.5,1073.68652596424
2363.75,1078.04589781573
2364,1080.79789025389
2364.25,1080.6933503779
2364.5,1077.47040841644
2364.75,1073.06780752282
2365,1069.72171587426
2365.25,1069.66830164797
2365.5,1074.5735359272
2365.75,1082.78881585147
2366,1091.47094990589
2366.25,1097.77515080036
2366.5,1099.02609656545
2366.75,1095.11845206003
2367,1087.94294525241
2367.25,1079.4426816093
2367.5,1071.55904305677
2367.75,1065.87151072614
2368,1063.15382440175
2368.25,1064.07096586604
2368.5,1069.28791690144
2368.75,1079.02776512804
2369,1091.187368545
2369.25,1102.90084205404
2369.5,1111.3018554252
2369.75,1113.75320163032
2370,1110.68087968341
2370.25,1104.69512033733
2370.5,1098.45315526462
2370.75,1094.60799480235
2371,1094.59119692553
2371.25,1096.92800991282
2371.5,1099.72075050109
2371.75,1101.0717354272
2372,1099.38170898868
2372.25,1095.27619994815
2372.5,1090.38546218539
2372.75,1086.34465335947
2373,1084.75798121672
2373.25,1085.97848611482
2373.5,1088.70557687938
2373.75,1091.5252517995
2374,1093.02356966561
2374.25,1092.24648350631
2374.5,1089.80715625082
2374.75,1086.6522924255
2375,1083.72859655671
2375.25,1081.91753461424
2375.5,1081.38213385317
2375.75,1081.84020748892
2376,1083.00292877866
2376.25,1084.58447633989
2376.5,1086.45963686672
2376.75,1088.74142108829
2377,1091.56212863151
2377.25,1095.05405881575
2377.5,1099.23225346785
2377.75,1103.66198856539
2378,1107.80071841897
2378.25,1111.10589733915
2378.5,1113.07233309612
2378.75,1113.68466537546
2379,1113.27212901835
2379.25,1112.17113400671
2379.5,1110.71761574581
2379.75,1109.12680844939
2380,1107.33403892141
2380.25,1105.23506026201
2380.5,1102.7256255713
2380.75,1099.75150055842
2381,1096.70496254296
2381.25,1094.21303763548
2381.5,1092.90484129054
2381.75,1093.39839720294
2382,1095.65195542222
2382.25,1098.60439916789
2382.5,1101.10730669923
2382.75,1102.01225627553
2383,1100.4954719666
2383.25,1097.18575865028
2383.5,1093.11802454646
2383.75,1089.32719679854
2384,1086.81174207538
2384.25,1085.91351885993
2384.5,1086.40533187342
2384.75,1088.04114875122
2385,1090.57470307899
2385.25,1093.71192402965
2385.5,1097.05296024806
2385.75,1100.18378258596
2386,1102.69036189507
2386.25,1104.21680721293
2386.5,1104.78208668072
2386.75,1104.55389715681
2387,1103.70031033285
2387.25,1102.38943610095
2387.5,1100.79062818847
2387.75,1099.07472896051
2388,1097.41266843909
2388.25,1095.97537607941
2388.5,1094.85107324905
2388.75,1093.8158100484
2389,1092.57199869343
2389.25,1090.82205140011
2389.5,1088.30649964506
2389.75,1085.26315418004
2390,1082.2783844251
2390.25,1079.9457525536
2390.5,1078.85509066787
2390.75,1079.24141628586
2391,1080.69727622042
2391.25,1082.74751843164
2391.5,1084.91699087965
2391.75,1086.86122385013
2392,1088.82559499452
2392.25,1091.22182334485
2392.5,1094.4616375566
2392.75,1098.89958395847
2393,1104.09858055105
2393.25,1109.04330194607
2393.5,1112.70524165417
2393.75,1114.05993430619
2394,1112.64701038118
2394.25,1109.14458413109
2394.5,1104.36777121346
2394.75,1099.13168728579
2395,1094.22741631702
2395.25,1090.25668105687
2395.5,1087.73150487401
2395.75,1087.16337364657
2396,1089.04467605198
2396.25,1093.07148919648
2396.5,1097.87313914529
2396.75,1102.0043132463
2397,1104.01971757604
2397.25,1102.90429349878
2397.5,1099.18587438296
2397.75,1093.7380246403
2398,1087.43430868256
2398.25,1081.15840902342
2398.5,1075.93371133073
2398.75,1072.88546152973
2399,1073.14121748035
2399.25,1077.81595441863
2399.5,1086.88025090891
2399.75,1098.26100786293
2400,1109.67350215062
2400.25,1118.83301064193
2400.5,1123.94398032427
2400.75,1125.30819659181
2401,1123.78943545227
2401.25,1120.25147940918
2401.5,1115.55039711385
2401.75,1110.36567518609
2402,1105.20068172875
2402.25,1100.55116369553
2402.5,1096.91286272413
2402.75,1094.54754600337
2403,1092.85937224983
2403.25,1091.05605818997
2403.5,1088.34532055027
2403.75,1084.01953513522
2404,1078.45173445726
2404.25,1072.76088401749
2404.5,1068.08076657619
2404.75,1065.53704923434
2405,1065.59272781595
2405.25,1067.56738810932
2405.5,1070.66728986481
2405.75,1074.09869418842
2406,1077.12516194287
2406.25,1079.22002437016
2406.5,1079.90460349992
2406.75,1078.7002213618
2407,1075.26287208898
2407.25,1070.48672675192
2407.5,1065.93260142388
2407.75,1063.16775245431
2408,1063.72013915638
2408.25,1067.77002939319
2408.5,1073.84453185072
2408.75,1080.3695642081
2409,1085.77240820951
2409.25,1088.91984924106
2409.5,1089.7460085747
2409.75,1088.34390246775
2410,1084.80654717759
2410.25,1079.31898956219
2410.5,1072.68436680058
2410.75,1065.96029340354
2411,1060.2051730623
2411.25,1056.43851637223
2411.5,1054.76058137076
2411.75,1054.33843174646
2412,1054.29744953576
2412.25,1053.76787978583
2412.5,1052.40220716202
2412.75,1050.83340212397
2413,1049.80251102128
2413.25,1050.05056251827
2413.5,1052.11699841316
2413.75,1055.83966645829
2414,1060.90387816565
2414.25,1066.99494504723
2414.5,1073.7266774088
2414.75,1080.25693941602
2415,1085.56451645999
2415.25,1088.62776883151
2415.5,1088.50238155584
2415.75,1085.52512400635
2416,1081.08652681051
2416.25,1076.60843618588
2416.5,1073.50767013412
2416.75,1072.35300417464
2417,1071.91835883192
2417.25,1070.74918818767
2417.5,1067.39094632364
2417.75,1060.85784332572
2418,1052.52799945088
2418.25,1044.52302029537
2418.5,1038.96478325037
2418.75,1037.77477871021
2419,1040.44501205312
2419.25,1044.85125715357
2419.5,1048.8400698053
2419.75,1050.33598597229
2420,1049.02963673144
2420.25,1046.36263220952
2420.5,1043.85153942086
2420.75,1042.99966963385
2421,1044.31259915905
2421.25,1046.62022894725
2421.5,1048.59208247938
2421.75,1048.89884488022
2422,1046.94574584391
2422.25,1044.12925699164
2422.5,1042.18000673916
2422.75,1042.82862350225
2423,1047.35119743634
2423.25,1054.81774271643
2423.5,1063.62993214729
2423.75,1072.18929095162
2424,1078.99188309569
2424.25,1083.31974329837
2424.5,1084.84448524838
2424.75,1083.24051755015
2425,1078.21851712223
2425.25,1070.46366658537
2425.5,1061.72064895753
2425.75,1053.78745178139
2426,1048.46053606687
2426.25,1046.7783040217
2426.5,1047.79703230526
2426.75,1050.25304067
2427,1052.88264886835
2427.25,1054.65681921112
2427.5,1055.6430757079
2427.75,1056.2290113737
2428,1056.80225742967
2428.25,1057.68934662339
2428.5,1058.66010692536
2428.75,1059.18680410616
2429,1058.73889954162
2429.25,1056.83377202679
2429.5,1054.0481982091
2429.75,1051.99515825399
2430,1052.33091016665
2430.25,1056.69526516557
2430.5,1065.1771514674
2430.75,1075.06477366102
2431,1083.35220540986
2431.25,1087.03369387347
2431.5,1084.22299456986
2431.75,1076.81302650486
2432,1067.49334236188
2432.25,1058.95349482432
2432.5,1053.68050259217
2432.75,1052.13420825011
2433,1053.60690256626
2433.25,1057.37684969561
2433.5,1062.7098796798
2433.75,1068.55864021936
2434,1073.54669746707
2434.25,1076.28200117637
2434.5,1075.38072287684
2434.75,1070.54704788061
2435,1063.65031448795
2435.25,1056.81604747926
2435.5,1052.16977163497
2435.75,1051.32916783035
2436,1053.45899599059
2436.25,1056.98440533476
2436.5,1060.33039296264
2436.75,1062.10153883034
2437,1062.57759701196
2437.25,1062.95081710985
2437.5,1064.4226157044
2437.75,1068.13815191776
2438,1073.856462269
2438.25,1079.89721641112
2438.5,1084.51317294321
2438.75,1085.96336715203
2439,1083.53222952361
2439.25,1078.6576496817
2439.5,1073.04915113271
2439.75,1068.41625738305
2440,1066.20123883917
2440.25,1066.29920249292
2440.5,1068.04980945593
2440.75,1070.79200025214
2441,1073.87251736176
2441.25,1076.75213396755
2441.5,1078.97803876964
2441.75,1080.09956591189
2442,1079.67190039953
2442.25,1077.64312278504
2442.5,1074.59566429148
2442.75,1071.16959982458
2443,1068.0050042901
2443.25,1065.69715659493
2443.5,1064.66119507963
2443.75,1065.2669825252
2444,1067.88438171242
2444.25,1072.77354793371
2444.5,1079.16055873561
2444.75,1085.70349786327
2445,1091.05458329094
2445.25,1093.89916747663
2445.5,1093.89608442164
2445.75,1091.81195411138
2446,1088.47353262542
2446.25,1084.7075093727
2446.5,1081.16873847619
2446.75,1077.96839630497
2447,1075.11039120319
2447.25,1072.59863151497
2447.5,1070.43369975947
2447.75,1068.58612048452
2448,1067.01045768232
2448.25,1065.66112829437
2448.5,1064.49861104903
2448.75,1063.6611003633
2449,1063.48880928185
2449.25,1064.33289827018
2449.5,1066.54272708555
2449.75,1070.03845902982
2450,1073.75824244571
2450.25,1076.50348350633
2450.5,1077.07558838481
2450.75,1074.64559345591
2451,1070.22535002231
2451.25,1065.3986415737
2451.5,1061.74943077046
2451.75,1060.76013389569
2452,1062.50408873017
2452.25,1066.02373006178
2452.5,1070.33790443502
2452.75,1074.47335349154
2453,1077.81345320196
2453.25,1080.2358656749
2453.5,1081.65460122651
2453.75,1081.98372589117
2454,1081.25853793468
2454.25,1079.89236296523
2454.5,1078.37200209829
2454.75,1077.18425644931
2455,1076.74349795174
2455.25,1076.84555427422
2455.5,1076.97272594988
2455.75,1076.60486672788
2456,1075.23886750975
2456.25,1072.87916062987
2456.5,1070.11176103858
2456.75,1067.55461520877
2457,1065.82525642017
2457.25,1065.33560040854
2457.5,1065.95975037881
2457.75,1067.48496441978
2458,1069.6985006202
2458.25,1072.33350205566
2458.5,1074.81202949317
2458.75,1076.4452010546
2459,1076.54399806813
2459.25,1074.50139574971
2459.5,1070.93605951986
2459.75,1067.40958973625
2460,1065.50780746661
2460.25,1066.80050407495
2460.5,1071.58011639509
2460.75,1077.95260314312
2461,1083.80943410279
2461.25,1087.04209954994
2461.5,1086.19837880234
2461.75,1082.20752840267
2462,1076.53881443468
2462.25,1070.66150298213
2462.5,1065.94455736475
2462.75,1062.66385001296
2463,1060.42318604733
2463.25,1058.81656897588
2463.5,1057.44520864917
2463.75,1056.17645487565
2464,1055.2154910827
2464.25,1054.78930200315
2464.5,1055.12399489029
2464.75,1056.19085345229
2465,1057.35441023559
2465.25,1057.89083275368
2465.5,1057.07628852004
2465.75,1054.48432538604
2466,1051.0417939272
2466.25,1048.06030094724
2466.5,1046.85148013409
2466.75,1048.57706322642
2467,1052.9993367197
2467.25,1059.11778791477
2467.5,1065.92422431938
2467.75,1072.42919040811
2468,1078.00082670681
2468.25,1082.32831965441
2468.5,1085.11225597931
2468.75,1086.05606958655
2469,1085.16028227186
2469.25,1082.97851055556
2469.5,1080.12470557171
2469.75,1077.21281845437
2470,1074.73741981536
2470.25,1072.58839808472
2470.5,1070.46464412552
2470.75,1068.06497524755
2471,1065.14328896418
2471.25,1062.23448663362
2471.5,1060.45335156697
2471.75,1060.92840164374
2472,1064.76362373934
2472.25,1071.71554409788
2472.5,1079.5206775555
2472.75,1085.74954691539
2473,1087.9733510977
2473.25,1084.82695889138
2473.5,1078.16200747803
2473.75,1070.43587625615
2474,1064.1059446242
2474.25,1061.3682359823
2474.5,1062.08319737353
2474.75,1064.88242940733
2475,1068.38656615692
2475.25,1071.24681347545
2475.5,1072.85078960487
2475.75,1073.34149190235
2476,1072.89628361926
2476.25,1071.69292354427
2476.5,1069.98290765068
2476.75,1068.17753859081
2477,1066.70903017981
2477.25,1066.00959623283
2477.5,1066.32426102792
2477.75,1066.95260096113
2478,1066.89638645431
2478.25,1065.15727703513
2478.5,1060.85827837017
2478.75,1054.57486481801
2479,1047.839834969
2479.25,1042.20287766417
2479.5,1039.18261664108
2479.75,1039.10967602476
2480,1040.7827025712
2480.25,1042.89908486573
2480.5,1044.1607832614
2480.75,1043.86386649923
2481,1042.48094393625
2481.25,1040.62302392797
2481.5,1038.90109728815
2481.75,1037.85552015038
2482,1037.79538017847
2482.25,1038.98250732926
2482.5,1041.67873155955
2482.75,1045.94579795591
2483,1050.79947064944
2483.25,1054.91484839065
2483.5,1056.96684459966
2483.75,1055.87181863856
2484,1052.69517377509
2484.25,1049.62933544416
2484.5,1048.87667255214
2484.75,1052.51665478242
2485,1059.99695189854
2485.25,1068.23735387697
2485.5,1074.0555460732
2485.75,1074.30224639359
2486,1068.08927316464
2486.25,1058.20384433478
2486.5,1047.77016894549
2486.75,1039.91245264526
2487,1036.83769769314
2487.25,1037.25293029582
2487.5,1039.03046673107
2487.75,1040.04262327666
2488,1038.53940589984
2488.25,1035.11111732178
2488.5,1031.24328384494
2488.75,1028.42323687477
2489,1027.98053842114
2489.25,1029.59282561854
2489.5,1031.95254021664
2489.75,1033.73897158633
2490,1033.72666575559
2490.25,1032.20927503299
2490.5,1030.69976493794
2490.75,1030.74548922797
2491,1033.83309822073
2491.25,1039.64453913814
2491.5,1045.79587481452
2491.75,1049.78992905235
2492,1049.15828884152
2492.25,1043.33124911297
2492.5,1034.78608551928
2492.75,1026.27472124932
2493,1020.54776815558
2493.25,1019.30646217156
2493.5,1021.31469966661
2493.75,1024.82634426625
2494,1028.09527913028
2494.25,1029.81852149349
2494.5,1030.28148426147
2494.75,1030.12533797426
2495,1029.99125317189
2495.25,1030.40621107604
2495.5,1031.32432623144
2495.75,1032.52044785636
2496,1033.76936362962
2496.25,1034.88786292346
2496.5,1035.99834077843
2496.75,1037.35830463052
2497,1039.22586035811
2497.25,1041.8310104033
2497.5,1045.07981088105
2497.75,1048.67062158795
2498,1052.29839871322
2498.25,1055.65860704899
2498.5,1058.45792236539
2498.75,1060.41396740829
2499,1061.24482071661
2499.25,1060.67477670476
2499.5,1058.93632852362
2499.75,1057.13921045161
2500,1056.48014889452
2500.25,1058.15580313695
2500.5,1062.71966321115
2500.75,1068.50605041074
2501,1073.37101148055
2501.25,1075.17059316543
2501.5,1072.16186385904
2501.75,1065.40436203365
2502,1057.15323763758
2502.25,1049.66809933663
2502.5,1045.14174444928
2502.75,1044.35065809035
2503,1046.71881280171
2503.25,1051.61613820271
2503.5,1058.40867068116
2503.75,1066.22279526272
2504,1073.80991180666
2504.25,1079.88874777904
2504.5,1083.17858758809
2504.75,1083.03025186475
2505,1080.63883376237
2505.25,1077.53428173941
2505.5,1075.24654425432
2505.75,1075.12633960511
2506,1077.08363214964
2506.25,1080.33421819604
2506.5,1084.08943730481
2506.75,1087.56482039224
2507,1090.08506513902
2507.25,1091.09163741211
2507.5,1090.03171687844
2507.75,1086.35322644048
2508,1079.9858950053
2508.25,1072.17016827847
2508.5,1064.36727814164
2508.75,1058.03845647648
2509,1054.48173898093
2509.25,1053.71877739996
2509.5,1055.17044526592
2509.75,1058.2541099121
2510,1062.38233654135
2510.25,1066.88113409327
2510.5,1071.0014565021
2510.75,1073.99177049073
2511,1075.10958796464
2511.25,1074.23554200811
2511.5,1072.26541722107
2511.75,1070.18835238551
2512,1068.99348540253
2512.25,1069.39012401013
2512.5,1071.01709022138
2512.75,1073.2572651713
2513,1075.49352999492
2513.25,1077.15179905075
2513.5,1078.0465937261
2513.75,1078.19864649109
2514,1077.63058538614
2514.25,1076.37194288609
2514.5,1074.67232943427
2514.75,1073.04205814512
2515,1072.00654466599
2515.25,1072.09065405003
2515.5,1073.43892115381
2515.75,1075.15202592011
2516,1076.15314591089
2516.25,1075.36545868813
2516.5,1071.94405573731
2516.75,1066.55664567021
2517,1060.47740671587
2517.25,1054.98214093481
2517.5,1051.31375966888
2517.75,1050.08261138496
2518,1051.32851343277
2518.25,1055.07084023944
2518.5,1061.31772528549
2518.75,1069.37454886982
2519,1077.4408341788
2519.25,1083.61901117835
2519.5,1086.01203143666
2519.75,1083.59794697641
2520,1078.01822086503
2520.25,1071.41918353709
2520.5,1065.94716542718
2520.75,1063.55794345055
2521,1064.53736772041
2521.25,1068.30659506358
2521.5,1074.27948980967
2521.75,1081.84334827532
2522,1089.73879427016
2522.25,1096.03935545147
2522.5,1098.78790549649
2522.75,1096.03175710609
2523,1087.12058148587
2523.25,1074.51118850284
2523.5,1061.11390128667
2523.75,1049.83904296699
2524,1043.21546940865
2524.25,1040.84488985066
2524.5,1040.9736281022
2524.75,1041.8406267853
2525,1041.77838952894
2525.25,1040.53904521182
2525.5,1038.97770420123
2525.75,1037.97844197503
2526,1038.40263098236
2526.25,1040.36178499561
2526.5,1043.06382507048
2526.75,1045.66288681278
2527,1047.31984472966
2527.25,1047.83031522123
2527.5,1048.13579141924
2527.75,1049.29805360202
2528,1052.37862643418
2528.25,1057.96999756469
2528.5,1065.2247585402
2528.75,1073.02011138582
2529,1080.23325812664
2529.25,1085.82526855594
2529.5,1089.23799816075
2529.75,1090.08431984778
2530,1087.97731315609
2530.25,1082.58941884794
2530.5,1074.65157694414
2530.75,1065.80650374584
2531,1057.72672722165
2531.25,1052.08161889492
2531.5,1049.97210582146
2531.75,1051.27706008784
2532,1055.71693567018
2532.25,1063.01218654378
2532.5,1072.57777741149
2532.75,1082.6118827849
2533,1091.00976589524
2533.25,1095.66668997371
2533.5,1094.80960339562
2533.75,1089.5567234278
2534,1082.51682174214
2534.25,1076.31104421246
2534.5,1073.52634989876
2534.75,1075.10573247526
2535,1079.65411979756
2535.25,1085.59801173463
2535.5,1091.36399998556
2535.75,1095.70869219063
2536,1098.46039599526
2536.25,1099.66458559972
2536.5,1099.36673520433
2536.75,1097.64014506423
2537,1094.83947776013
2537.25,1091.48273675218
2537.5,1088.08993628488
2537.75,1085.17855167656
2538,1083.08475170332
2538.25,1081.8456198093
2538.5,1081.4702785638
2538.75,1081.96785053615
2539,1083.35223187735
2539.25,1085.65845041766
2539.5,1088.92737944344
2539.75,1093.19989244485
2540,1098.48475983885
2540.25,1104.37644822524
2540.5,1110.18122262093
2540.75,1115.19951148539
2541,1118.73611260169
2541.25,1120.58252860455
2541.5,1121.4537360297
2541.75,1122.16783498421
2542,1123.54292557518
2542.25,1126.24980286132
2542.5,1129.82264625755
2542.75,1133.26681793019
2543,1135.58474091908
2543.25,1135.78731601329
2543.5,1133.59307538169
2543.75,1129.95028569686
2544,1125.9302166922
2544.25,1122.60413810107
2544.5,1120.90945323371
2544.75,1120.60639990337
2545,1120.84396274674
2545.25,1120.76591935768
2545.5,1119.52073365478
2545.75,1116.77608384057
2546,1113.18328555057
2546.25,1109.5032883189
2546.5,1106.49704167966
2546.75,1104.81915697186
2547,1104.28366311056
2547.25,1104.30532541768
2547.5,1104.29648987429
2547.75,1103.676497642
2548,1102.22485943206
2548.25,1100.24756469956
2548.5,1098.09237002729
2548.75,1096.10703199806
2549,1094.66513055286
2549.25,1094.26415000676
2549.5,1095.43869201808
2549.75,1098.72336514733
2550,1104.57673429773
2550.25,1112.09260208206
2550.5,1119.18448723098
2550.75,1123.72700460224
2551,1123.59743875623
2551.25,1117.829451462
2551.5,1108.41456178564
2551.75,1097.81048342276
2552,1088.47493006899
2552.25,1082.70150164591
2552.5,1080.79945156545
2552.75,1081.76051074356
2553,1084.55271314381
2553.25,1088.14495741021
2553.5,1091.56696435192
2553.75,1093.94826501532
2554,1094.42765756185
2554.25,1092.14394015297
2554.5,1086.60872607244
2554.75,1078.99424336846
2555,1070.93491260507
2555.25,1064.06517347672
2555.5,1059.92159533112
2555.75,1058.55468939765
2556,1058.85983306258
2556.25,1059.70203762507
2556.5,1059.95963941365
2556.75,1059.22995595591
2557,1058.18073861588
2557.25,1057.566863225
2557.5,1058.1427603488
2557.75,1060.1906893518
2558,1062.62462499481
2558.25,1064.11211061681
2558.5,1063.3206895568
2558.75,1059.27061111778
2559,1053.03100523182
2559.25,1046.40895024146
2559.5,1041.21250548631
2559.75,1039.12104761931
2560,1040.06588767352
2560.25,1042.71800145728
2560.5,1045.72051233489
2560.75,1047.74727944168
2561,1048.31050977045
2561.25,1047.84100704666
2561.5,1046.81640259767
2561.75,1045.71180600754
2562,1044.7655484456
2562.25,1043.78892690262
2562.5,1042.54846541969
2562.75,1040.81079211692
2563,1038.50992052529
2563.25,1036.08718907051
2563.5,1034.07968780613
2563.75,1033.0245067857
2564,1033.36611178547
2564.25,1035.09074074907
2564.5,1038.04318394701
2564.75,1042.06819098092
2565,1046.93782731664
2565.25,1051.88263130442
2565.5,1055.88871617248
2565.75,1057.94100505322
2566,1057.10744097214
2566.25,1053.58036247237
2566.5,1048.36110692056
2566.75,1042.46880141437
2567,1036.91433001391
2567.25,1032.37598278015
2567.5,1029.09283746188
2567.75,1027.27388694172
2568,1027.12575780731
2568.25,1028.53111299069
2568.5,1030.72209332998
2568.75,1032.85303235732
2569,1034.07882493064
2569.25,1033.92066311367
2569.5,1032.89715178768
2569.75,1031.6950742897
2570,1031.00121395675
2570.25,1031.28684726719
2570.5,1032.1459465425
2570.75,1032.94927144454
2571,1033.06758159118
2571.25,1032.05695108899
2571.5,1030.57151578533
2571.75,1029.66833535168
2572,1030.40508325651
2572.25,1033.66958514089
2572.5,1038.81274673178
2572.75,1044.36857078778
2573,1048.8635078229
2573.25,1050.91965430638
2573.5,1050.51101531188
2573.75,1048.61320428941
2574,1046.22543921617
2574.25,1044.33027293851
2574.5,1043.31519103699
2574.75,1042.82388996737
2575,1042.45319188462
2575.25,1041.80192952953
2575.5,1040.7533356096
2575.75,1039.76661592759
2576,1039.370573
2576.25,1040.09393056955
2576.5,1042.14656972501
2576.75,1044.69405191937
2577,1046.68846139574
2577.25,1047.08188239723
2577.5,1045.14268254189
2577.75,1041.81353425402
2578,1038.58905768059
2578.25,1036.96421324909
2578.5,1038.24366643566
2578.75,1041.89387628124
2579,1046.35173829511
2579.25,1050.04282003338
2579.5,1051.48374094812
2579.75,1050.72121205958
2580,1049.07193481651
2580.25,1047.89107558599
2580.5,1048.50882093109
2580.75,1051.0678242562
2581,1054.02969772726
2581.25,1055.72861979921
2581.5,1054.50212450475
2581.75,1049.68147858123
2582,1042.97304842851
2582.25,1036.43056402474
2582.5,1032.10775534803
2582.75,1031.47987053647
2583,1033.37903986191
2583.25,1035.88293514017
2583.5,1037.06917062348
2583.75,1035.3531244429
2584,1031.43480893084
2584.25,1026.96088836139
2584.5,1023.58106476318
2584.75,1022.77605457289
2585,1024.15402757681
2585.25,1026.15731652704
2585.5,1027.21063681804
2585.75,1025.8577875655
2586,1022.51117517737
2586.25,1019.0673707983
2586.5,1017.46385969529
2586.75,1019.56205052779
2587,1025.29977284947
2587.25,1032.58945028573
2587.5,1039.24704750174
2587.75,1043.13008017567
2588,1043.63437550814
2588.25,1042.11065203864
2588.5,1040.0359981409
2588.75,1038.88123765915
2589,1039.28246775385
2589.25,1040.21162743116
2589.5,1040.44331420453
2589.75,1038.75243439067
2590,1034.56298819821
2590.25,1029.31675373357
2590.5,1024.84645041532
2590.75,1022.98479766198
2591,1025.01803601281
2591.25,1029.52384248014
2591.5,1034.2422794517
2591.75,1036.91316255283
2592,1035.69881769169
2592.25,1031.53932857806
2592.5,1026.49657472236
2592.75,1022.63556466197
2593,1021.81547978631
2593.25,1023.6868222723
2593.5,1026.55793411257
2593.75,1028.71822990174
2594,1028.58367785103
2594.25,1026.45538565578
2594.5,1024.08132145475
2594.75,1023.24642277742
2595,1025.65883454782
2595.25,1031.13196914794
2595.5,1037.51024098604
2595.75,1042.54641189558
2596,1044.0348657512
2596.25,1041.49426754545
2596.5,1036.74665082062
2596.75,1031.7745413425
2597,1028.55472041284
2597.25,1028.03240454157
2597.5,1028.93662166062
2597.75,1029.70933441392
2598,1028.79308556084
2598.25,1025.45200093619
2598.5,1021.40827618968
2598.75,1018.84183444632
2599,1019.93259883111
2599.25,1026.01192612114
2599.5,1034.82617563415
2599.75,1043.17512508927
2600,1047.85854678205
2600.25,1046.45087765988
2600.5,1040.69222690847
2600.75,1033.71683410078
2601,1028.6599354291
2601.25,1028.3336554309
2601.5,1032.32895785807
2601.75,1038.3873566768
2602,1044.22836076345
2602.25,1047.70265312557
2602.5,1048.63798118706
2602.75,1048.39139304605
2603,1048.35970277426
2603.25,1049.90427560149
2603.5,1053.11806272167
2603.75,1056.50707417001
2604,1058.47716164528
2604.25,1057.44080675421
2604.5,1052.93468952628
2604.75,1046.87790535175
2605,1041.493266468
2605.25,1039.00358511243
2605.5,1040.90821039885
2605.75,1045.69359187428
2606,1051.06197823499
2606.25,1054.71561634947
2606.5,1054.74125390974
2606.75,1051.8031268217
2607,1047.62485701998
2607.25,1043.93332177076
2607.5,1042.34816099957
2607.75,1042.95125701343
2608,1044.67399893307
2608.25,1046.42004101237
2608.5,1047.12371212382
2608.75,1046.67722449529
2609,1046.09621966012
2609.25,1046.46038694715
2609.5,1048.84215365427
2609.75,1053.44464682319
2610,1058.78771834073
2610.25,1063.19852340776
2610.5,1065.00433176341
2610.75,1063.18737870703
2611,1058.92473580195
2611.25,1053.85270451225
2611.5,1049.60758630202
2611.75,1047.58961539039
2612,1047.45071029277
2612.25,1048.05776608381
2612.5,1048.27394429606
2612.75,1047.03925374609
2613,1044.42784848248
2613.25,1041.37898012984
2613.5,1038.85369812221
2613.75,1037.79026674693
2614,1038.2990686561
2614.25,1039.44738034982
2614.5,1040.23592641362
2614.75,1039.67208370843
2615,1037.49550208071
2615.25,1034.83052231891
2615.5,1032.95546681427
2615.75,1033.14816387476
2616,1036.02856278192
2616.25,1040.26110481235
2616.5,1044.1485509931
2616.75,1045.99366235122
2617,1044.68558874339
2617.25,1041.69547655098
2617.5,1039.20492104585
2617.75,1039.39553867289
2618,1044.01830556045
2618.25,1051.4742376013
2618.5,1058.59484723507
2618.75,1062.2026627471
2619,1059.39313895622
2619.25,1050.97738903952
2619.5,1040.44953507921
2619.75,1031.36320688296
2620,1027.21200456501
2620.25,1028.79435507309
2620.5,1033.18275437904
2620.75,1037.17671541542
2621,1037.5942917019
2621.25,1033.20468021535
2621.5,1026.41865805343
2621.75,1020.04547754156
2622,1016.89303888235
2622.25,1018.47206820991
2622.5,1022.57874574098
2622.75,1026.34857226513
2623,1026.91713831554
2623.25,1022.55899804956
2623.5,1015.53293966334
2623.75,1008.96844546481
2624,1005.99499776189
2624.25,1008.89408850843
2624.5,1015.84675453704
2624.75,1023.7962889126
2625,1029.68572583977
2625.25,1031.10432586766
2625.5,1029.0005490929
2625.75,1025.41093916082
2626,1022.37259799842
2626.25,1021.59253360189
2626.5,1022.28393576301
2626.75,1022.52068378419
2627,1020.37080399522
2627.25,1014.20380679411
2627.5,1005.44461198425
2627.75,997.295061471125
2628,992.978990582275
2628.25,995.406782881503
2628.5,1003.30461427154
2628.75,1012.41826984386
2629,1018.42956702319
2629.25,1017.42647346928
2629.5,1010.37813783747
2629.75,1001.48037885562
2630,994.986385684886
2630.25,994.869466543278
2630.5,1000.59542501675
2630.75,1007.98906061346
2631,1012.77107169016
2631.25,1010.99940342149
2631.5,1003.66403757488
2631.75,995.494087200906
2632,991.311582041772
2632.25,995.63743096148
2632.5,1007.54933791588
2632.75,1021.39671935505
2633,1031.37174356544
2633.25,1032.03704953683
2633.5,1023.81674775578
2633.75,1011.8155734194
2634,1001.26880981875
2634.25,997.262940030875
2634.5,1000.59574957112
2634.75,1007.23149824864
2635,1012.87619124562
2635.25,1013.36789584513
2635.5,1008.19568619561
2635.75,1000.87703151913
2636,995.137169787789
2636.25,994.615022614906
2636.5,999.718125452517
2636.75,1006.72677863708
2637,1011.65242663601
2637.25,1010.61688312016
2637.5,1003.34870347155
2637.75,993.900540019035
2638,986.580366884589
2638.25,985.614233476555
2638.5,991.691733615043
2638.75,1000.69402516843
2639,1008.15839314008
2639.25,1009.7519225275
2639.5,1005.11251650928
2639.75,998.488420576588
2640,994.386479809488
2640.25,997.206750070249
2640.5,1007.26900963598
2640.75,1019.63341168117
2641,1029.01267405211
2641.25,1030.24706452929
2641.5,1022.52109273637
2641.75,1010.33091293846
2642,998.49616481496
2642.25,991.799737065687
2642.5,992.162391903973
2642.75,996.642791823078
2643,1001.82729723194
2643.25,1004.33690487719
2643.5,1002.9637558924
2643.75,999.91983673718
2644,997.717786036135
2644.25,998.84365688026
2644.5,1003.90483759139
2644.75,1010.42087426236
2645,1015.62401196484
2645.25,1016.7773083783
2645.5,1013.18996065759
2645.75,1007.46170570737
2646,1002.48972082255
2646.25,1001.15744042398
2646.5,1004.71301506054
2646.75,1011.24337031959
2647,1018.47427589072
2647.25,1024.14039196544
2647.5,1027.07575984938
2647.75,1028.26241164347
2648,1028.93096982196
2648.25,1030.31059977749
2648.5,1033.04287888263
2648.75,1036.28431858563
2649,1038.96040889816
2649.25,1039.9966575924
2649.5,1038.73916789824
2649.75,1036.04408260436
2650,1033.10630178426
2650.25,1031.12072551143
2650.5,1031.04213707796
2650.75,1032.42832726906
2651,1034.3332013342
2651.25,1035.80998737211
2651.5,1036.05944151496
2651.75,1035.55639920088
2652,1035.42751271158
2652.25,1036.80469720293
2652.5,1040.71247839023
2652.75,1046.62118679222
2653,1052.83110837792
2653.25,1057.61391645876
2653.5,1059.29535940334
2653.75,1057.74044979836
2654,1054.53810561626
2654.25,1051.36839675447
2654.5,1049.90642087738
2654.75,1051.00610014494
2655,1053.79219732593
2655.25,1057.17068088801
2655.5,1060.04752136025
2655.75,1061.57025958288
2656,1061.79412718207
2656.25,1060.98750887393
2656.5,1059.41878937457
2656.75,1057.33637839824
2657,1054.83170411085
2657.25,1051.92200061564
2657.5,1048.6240615493
2657.75,1044.97295510766
2658,1041.34679848292
2658.25,1038.42863895289
2658.5,1036.9121413981
2658.75,1037.47508189084
2659,1039.98756110007
2659.25,1043.14504134858
2659.5,1045.55046051728
2659.75,1045.81125945838
2660,1043.38451156103
2660.25,1039.57379380779
2660.5,1035.92508481883
2660.75,1033.98435475391
2661,1034.74852780828
2661.25,1037.18008567852
2661.5,1039.77039749709
2661.75,1041.01083239646
2662,1039.79720370498
2662.25,1037.28321375813
2662.5,1035.40577089238
2662.75,1036.10255530269
2663,1041.00710298368
2663.25,1048.88048181682
2663.5,1056.90348926003
2663.75,1062.24051806539
2664,1062.22941057167
2664.25,1057.0447478336
2664.5,1049.17529735247
2664.75,1041.17740586055
2665,1035.58391301215
2665.25,1033.44025974546
2665.5,1033.44103472097
2665.75,1034.07320374624
2666,1033.82615439888
2666.25,1031.87981495086
2666.5,1029.05249247084
2666.75,1026.40015369255
2667,1024.97873709884
2667.25,1025.42168813507
2667.5,1026.87352784721
2667.75,1028.15095292801
2668,1028.07066007022
2668.25,1025.82404292522
2668.5,1022.38442442021
2668.75,1019.25427791357
2669,1017.93616217482
2669.25,1019.63364142661
2669.5,1023.54513133558
2669.75,1028.04458691098
2670,1031.5034244937
2670.25,1032.49885692695
2670.5,1031.3483086217
2670.75,1029.24406820821
2671,1027.38504639065
2671.25,1026.86946641883
2671.5,1027.45857067728
2671.75,1027.96477357917
2672,1027.18030609218
2672.25,1023.96936123552
2672.5,1018.68569713155
2672.75,1013.08608062952
2673,1008.98190990403
2673.25,1008.13506497411
2673.5,1010.58281108191
2673.75,1014.23157515998
2674,1016.85588019519
2674.25,1016.27541036069
2674.5,1012.20592089865
2674.75,1006.91069828229
2675,1002.83205525975
2675.25,1002.38572709226
2675.5,1006.21935346953
2675.75,1012.135348981
2676,1017.67872081088
2676.25,1020.41769358659
2676.5,1019.56100906218
2676.75,1017.01374231608
2677,1014.93183253103
2677.25,1015.46222256446
2677.5,1019.43468824867
2677.75,1024.98763723713
2678,1029.93081263783
2678.25,1032.0775225355
2678.5,1030.35959045128
2678.75,1026.41169661662
2679,1022.26868359475
2679.25,1019.96533567866
2679.5,1020.74996054351
2679.75,1023.11187719998
2680,1024.93574427389
2680.25,1024.10622039108
2680.5,1019.25485336471
2680.75,1012.34209086878
2681,1006.25547125689
2681.25,1003.88257189849
2681.5,1007.36490434221
2681.75,1014.39337181587
2682,1021.01544695289
2682.25,1023.27598494864
2682.5,1018.11381256585
2682.75,1008.06984386546
2683,997.850315134774
2683.25,992.166124126598
2683.5,995.033474012251
2683.75,1004.62644417113
2684,1016.19549352705
2684.25,1024.9693288112
2684.5,1026.86891728841
2684.75,1023.05696822751
2685,1017.09557998269
2685.25,1012.55928312893
2685.5,1012.65860009372
2685.75,1016.69236600698
2686,1021.57978818364
2686.25,1024.2064101619
2686.5,1021.72956170528
2686.75,1014.78312580295
2687,1006.40426207976
2687.25,999.678046114458
2687.5,997.526610626249
2687.75,999.809751190117
2688,1003.66327931034
2688.25,1006.12802517985
2688.5,1004.41584843141
2688.75,998.842744017322
2689,992.42784244481
2689.25,988.280622374485
2689.5,989.342646502137
2689.75,995.174153788621
2690,1002.20135959423
2690.25,1006.73211279515
2690.5,1005.29405574881
2690.75,998.019518162877
2691,987.986736785682
2691.25,978.360301223304
2691.5,972.181318056493
2691.75,970.214710683176
2692,971.224392281735
2692.25,973.906114172901
2692.5,977.003476721481
2692.75,979.85250729407
2693,982.189357201579
2693.25,983.757699508934
2693.5,984.334071962801
2693.75,983.981437487711
2694,982.910399042593
2694.25,981.332784580898
2694.5,979.45989210133
2694.75,977.499271012449
2695,975.656854191396
2695.25,974.138568158023
2695.5,973.133177485341
2695.75,972.733695240669
2696,972.999939928168
2696.25,973.991697498285
2696.5,975.637145816487
2696.75,977.3284199946
2697,978.321198153594
2697.25,977.871463158148
2697.5,975.661535694562
2697.75,972.647638080572
2698,970.022892535471
2698.25,968.977826181002
2698.5,970.042530702911
2698.75,972.215344892223
2699,974.278014924498
2699.25,975.024880015245
2699.5,974.147850785505
2699.75,972.818511835772
2700,972.346660308928
2700.25,974.00863685049
2700.5,977.85706210802
2700.75,982.398011899637
2701,986.038429096627
2701.25,987.24580828474
2701.5,985.765957008148
2701.75,982.562508024346
2702,978.647539344381
2702.25,974.99831715167
2702.5,972.005620967327
2702.75,969.572657732647
2703,967.587817200418
2703.25,965.946437705279
2703.5,964.62577110669
2703.75,963.656461291847
2704,963.070066805315
2704.25,962.86937978898
2704.5,962.841107418378
2704.75,962.673726939805
2705,962.055221896428
2705.25,960.799610614376
2705.5,959.319136954597
2705.75,958.203353687845
2706,958.041690155322
2706.25,959.193961033577
2706.5,961.328028307452
2706.75,963.981931801855
2707,966.694725860883
2707.25,969.11345180102
2707.5,971.087368847246
2707.75,972.487955020862
2708,973.189633996832
2708.25,973.181728404664
2708.5,972.603042759501
2708.75,971.602394274869
2709,970.321949096549
2709.25,968.756189877543
2709.5,966.754796789668
2709.75,964.161375209424
2710,960.857464128854
2710.25,957.242210567426
2710.5,954.089103449468
2710.75,952.179965563769
2711,952.162532172039
2711.25,953.598616866165
2711.5,955.523521049122
2711.75,956.969079845897
2712,957.170445809511
2712.25,956.269101717296
2712.5,954.65898001972
2712.75,952.733962129497
2713,950.852237575146
2713.25,949.276482105236
2713.5,948.253563370116
2713.75,948.026015612159
2714,948.5583179605
2714.25,949.373251563825
2714.5,949.954321810253
2714.75,949.813407177764
2715,949.02577684077
2715.25,948.184588823253
2715.5,947.902253633575
2715.75,948.681670824254
2716,950.014456622113
2716.25,950.845810471025
2716.5,950.115589476973
2716.75,947.078455548427
2717,942.494875629964
2717.25,937.575028943926
2717.5,933.52832901685
2717.75,931.116490100207
2718,929.918904736142
2718.25,929.322051511911
2718.5,928.721648736102
2718.75,927.862738183243
2719,926.938515982817
2719.25,926.171569564463
2719.5,925.757667862062
2719.75,925.604651132083
2720,925.445324934391
2720.25,925.010023702628
2720.5,924.152152459526
2720.75,923.240093714109
2721,922.776907275347
2721.25,923.261102746634
2721.5,924.792607430775
2721.75,926.767930522725
2722,928.511826058594
2722.25,929.386863553734
2722.5,929.336944425529
2722.75,928.76154302632
2723,928.072327952155
2723.25,927.591237466723
2723.5,927.119956858004
2723.75,926.27312745498
2724,924.665844277467
2724.25,922.154751957909
2724.5,919.19067763529
2724.75,916.314170662016
2725,914.048569890598
2725.25,912.449173076827
2725.5,911.059222146662
2725.75,909.395923281989
2726,907.076394671198
2726.25,904.442862126581
2726.5,902.157412767012
2726.75,900.882347695389
2727,900.89619925223
2727.25,901.545064341065
2727.5,902.036152931885
2727.75,901.618568617641
2728,900.26144699547
2728.25,898.540097206381
2728.5,897.048738612822
2728.75,896.26854462267
2729,896.167739202748
2729.25,896.569130011919
2729.5,897.296890959197
2729.75,898.239480449751
2730,899.375713764889
2730.25,900.691186630641
2730.5,902.129442388368
2730.75,903.304873995723
2731,903.676845865097
2731.25,902.705300891552
2731.5,900.272720393466
2731.75,897.263593996819
2732,894.707678134961
2732.25,893.57618824939
2732.5,893.836551540525
2732.75,894.612382962355
2733,895.001054268706
2733.25,894.346618478629
2733.5,893.008148706538
2733.75,891.605748518596
2734,890.750787469101
2734.25,890.735591056469
2734.5,891.44951898908
2734.75,892.756124957565
2735,894.485015710174
2735.25,896.24944403831
2735.5,897.577729203896
2735.75,898.002068049388
2736,897.445132391084
2736.25,896.538029132244
2736.5,895.986699449721
2736.75,896.445100549752
2737,897.997390559683
2737.25,900.375867053137
2737.5,903.307610971773
2737.75,906.491130793597
2738,909.539821092074
2738.25,912.05129869982
2738.5,913.635434206277
2738.75,914.201553009401
2739,913.968563214497
2739.25,913.169652966008
2739.5,912.025148133019
2739.75,910.670410430243
2740,909.206340874592
2740.25,907.733742751716
2740.5,906.353611912939
2740.75,905.167394289004
2741,904.276600008564
2741.25,903.772770416341
2741.5,903.565441325171
2741.75,903.40507870828
2742,903.036792997408
2742.25,902.296964818701
2742.5,901.464926350436
2742.75,900.954197179263
2743,901.173117230954
2743.25,902.194941926814
2743.5,903.560160289914
2743.75,904.761831018539
2744,905.353116317891
2744.25,905.466282963683
2744.5,905.557293542716
2744.75,906.085519119522
2745,907.33806968538
2745.25,909.090273504357
2745.5,911.022851506017
2745.75,912.816646455541
2746,914.15564386231
2746.25,914.727173676529
2746.5,914.218728072284
2746.75,912.449371290841
2747,910.126909571827
2747.25,908.326953898049
2747.5,908.124054550433
2747.75,909.899204894765
2748,912.360672474982
2748.25,913.969606024231
2748.5,913.269240195344
2748.75,910.374946602632
2749,906.816529093973
2749.25,904.17422596696
2749.5,903.7347046919
2749.75,905.1202346249
2750,907.367226635302
2750.25,909.515359743534
2750.5,911.001112437646
2750.75,911.993099745912
2751,912.738918390017
2751.25,913.484791876011
2751.5,914.458849014764
2751.75,915.87644594485
2752,917.952670640325
2752.25,920.772006590439
2752.5,923.86580067639
2752.75,926.618989712212
2753,928.421083756652
2753.25,928.990850080182
2753.5,928.591692813955
2753.75,927.538116700638
2754,926.144366704985
2754.25,924.720757150511
2754.5,923.574554093128
2754.75,923.012943868803
2755,923.250297399068
2755.25,923.982281228352
2755.5,924.72445641175
2755.75,924.993392939766
2756,924.565971523113
2756.25,923.80407592761
2756.5,923.149402133158
2756.75,923.030168934909
2757,923.561006031773
2757.25,924.540933096405
2757.5,925.755088425477
2757.75,927.002078615137
2758,928.178262253751
2758.25,929.223120983174
2758.5,930.076353798778
2758.75,930.713447322572
2759,931.215677242109
2759.25,931.68377265849
2759.5,932.217606054533
2759.75,932.879887875511
2760,933.682693184254
2760.25,934.634464652341
2760.5,935.726270255316
2760.75,936.73762438234
2761,937.306867782818
2761.25,937.069768460757
2761.5,935.819860790994
2761.75,934.168093235257
2762,932.989345255011
2762.25,933.156952296977
2762.5,934.972656333283
2762.75,937.335324339045
2763,938.9325160721
2763.25,938.488550623652
2763.5,935.904455636427
2763.75,932.47805878388
2764,929.588371442189
2764.25,928.49509386879
2764.5,929.128714481963
2764.75,930.588827689886
2765,931.96232971458
2765.25,932.549351185566
2765.5,932.604355284252
2765.75,932.648679758391
2766,933.201766194171
2766.25,934.512812573885
2766.5,936.283577652082
2766.75,938.149651724105
2767,939.759423662295
2767.25,941.051785047656
2767.5,942.253999273939
2767.75,943.605702125461
2768,945.288898494587
2768.25,946.97883714545
2768.5,948.087640450302
2768.75,948.025189638681
2769,946.42885800845
2769.25,943.928568777871
2769.5,941.424867870967
2769.75,939.816449895276
2770,939.480042055393
2770.25,939.557465994798
2770.5,939.01197983533
2770.75,936.833120703476
2771,932.924530308174
2771.25,928.318611373391
2771.5,924.117576572665
2771.75,921.342801204232
2772,920.078464828408
2772.25,919.805307911703
2772.5,919.994067526565
2772.75,920.172315306329
2773,920.112285487081
2773.25,919.652034077521
2773.5,918.633331731888
2773.75,917.195676304891
2774,915.989204883543
2774.25,915.714275563245
2774.5,917.010768828187
2774.75,919.680838537639
2775,922.914482886512
2775.25,925.887733010343
2775.5,927.851089806949
2775.75,928.395146258277
2776,927.20752557531
2776.25,923.979393443851
2776.5,918.821348071097
2776.75,912.654150754648
2777,906.491029060304
2777.25,901.311181574611
2777.5,897.473879829179
2777.75,894.797314900323
2778,893.081509739024
2778.25,892.094544773643
2778.5,891.449717174463
2778.75,890.713505388491
2779,889.460020368817
2779.25,887.634143265563
2779.5,885.709961657962
2779.75,884.202155819249
2780,883.54378254921
2780.25,883.573180911566
2780.5,883.865437615628
2780.75,883.997068003607
2781,883.808350801548
2781.25,883.626470608902
2781.5,883.831170157978
2781.75,884.759042472734
2782,886.348581212086
2782.25,888.323339055999
2782.5,890.404344481861
2782.75,892.218053213231
2783,893.177998901023
2783.25,892.668605862664
2783.5,890.150342515328
2783.75,886.070528210848
2784,881.565658836353
2784.25,877.786230231755
2784.5,875.536508497214
2784.75,874.493675704809
2785,874.105957512068
2785.25,873.844540094966
2785.5,873.590092814942
2785.75,873.576041511181
2786,874.047322593662
2786.25,875.116321889832
2786.5,876.453866197008
2786.75,877.638949764321
2787,878.268578111519
2787.25,878.250060821282
2787.5,877.752335561367
2787.75,876.952536530786
2788,876.099713880385
2788.25,875.688090251077
2788.5,876.264088739142
2788.75,878.340532743218
2789,881.800658718866
2789.25,885.968689360699
2789.5,890.149434597478
2789.75,893.851128996514
2790,897.308912148438
2790.25,900.92022216595
2790.5,905.059113388067
2790.75,909.501215226507
2791,913.387995250617
2791.25,915.830382334126
2791.5,916.133464753263
2791.75,914.768523849648
2792,912.640227029411
2792.25,910.652522463718
2792.5,909.411546396755
2792.75,908.86268441835
2793,908.862489947499
2793.25,909.265587360626
2793.5,909.892343674813
2793.75,910.533691622715
2794,910.979606477296
2794.25,911.11080428609
2794.5,911.26672163531
2794.75,911.931413467182
2795,913.584604679039
2795.25,916.298808070276
2795.5,919.414588224846
2795.75,922.196091831933
2796,923.957575699464
2796.25,924.689824654417
2796.5,924.869315940384
2796.75,924.983150933285
2797,925.48263791928
2797.25,926.644776586874
2797.5,928.693583414646
2797.75,931.85036287848
2798,935.954093044549
2798.25,940.069220579137
2798.5,943.166569044492
2798.75,944.264453372953
2799,943.420019712964
2799.25,941.700380414001
2799.5,940.214364755515
2799.75,939.950453720904
2800,940.795240303665
2800.25,942.044041223052
2800.5,942.986525776296
2800.75,943.114875006224
2801,942.79433118897
2801.25,942.625361937714
2801.5,943.206796590344
2801.75,944.803024269672
2802,946.9388219746
2802.25,949.039902431623
2802.5,950.544383280903
2802.75,951.294183548912
2803,951.614432607243
2803.25,951.858707168195
2803.5,952.367241886295
2803.75,953.303496069526
2804,954.705666751927
2804.25,956.609296287021
2804.5,959.050232314868
2804.75,962.066415868437
2805,965.696666101311
2805.25,969.979805172044
2805.5,974.742884787449
2805.75,978.954703161509
2806,981.366665477836
2806.25,980.730991551961
2806.5,976.526211031373
2806.75,970.292043675997
2807,963.931353685373
2807.25,959.343629550629
2807.5,957.632786393754
2807.75,958.08675602262
2808,959.741280739517
2808.25,961.640362358752
2808.5,963.262983420314
2808.75,964.729639453654
2809,966.212356636436
2809.25,967.869274765003
2809.5,969.5509999645
2809.75,970.807049071417
2810,971.174341598639
2810.25,970.251964985066
2810.5,968.435683661318
2810.75,966.672703790137
2811,965.921261679562
2811.25,967.012762732992
2811.5,969.697831120481
2811.75,973.180252882536
2812,976.659574908318
2812.25,979.449247911288
2812.5,981.493120755937
2812.75,982.95191258685
2813,983.986541700233
2813.25,984.725862329578
2813.5,985.164408939393
2813.75,985.261549188189
2814,984.976653500235
2814.25,984.297875067142
2814.5,983.312877097591
2814.75,982.130812630655
2815,980.860831468187
2815.25,979.608674265034
2815.5,978.470210435942
2815.75,977.539533068518
2816,976.910332073035
2816.25,976.571914103332
2816.5,976.270640501601
2816.75,975.718383917515
2817,974.630016905564
2817.25,973.002099531879
2817.5,971.339227211405
2817.75,970.199261877125
2818,970.130393498407
2818.25,971.248800849025
2818.5,973.07472174047
2818.75,975.084868785001
2819,976.770788583358
2819.25,977.969508328615
2819.5,978.86594107243
2819.75,979.660314915448
2820,980.543188752472
2820.25,981.556628359727
2820.5,982.626407050795
2820.75,983.675189922907
2821,984.620130625237
2821.25,985.31589466173
2821.5,985.577571504283
2821.75,985.219623440585
2822,984.097539713185
2822.25,982.438924483224
2822.5,980.669544074188
2822.75,979.217008824558
2823,978.434805330832
2823.25,978.124770537062
2823.5,977.839984142401
2823.75,977.132319819728
2824,975.681265045904
2824.25,973.895750108476
2824.5,972.443458912831
2824.75,971.992381348849
2825,972.982209247602
2825.25,974.865561494633
2825.5,976.828348351078
2825.75,978.05663219225
2826,978.048817220206
2826.25,977.26974523207
2826.5,976.370606044338
2826.75,976.001851982833
2827,976.591429549787
2827.25,978.033578894622
2827.5,980.144173409782
2827.75,982.737977543076
2828,985.519232505668
2828.25,987.9892035252
2828.5,989.627386184166
2828.75,989.922006552846
2829,988.851912140326
2829.25,987.137909999099
2829.5,985.5625169417
2829.75,984.895606767732
2830,985.361304575867
2830.25,986.44170183654
2830.5,987.565824710296
2830.75,988.174248580203
2831,988.060852803847
2831.25,987.42971799507
2831.5,986.507933040913
2831.75,985.519105349167
2832,984.60325555836
2832.25,983.814818144769
2832.5,983.204346156778
2832.75,982.828052334328
2833,982.847509366949
2833.25,983.517469888051
2833.5,985.095898690782
2833.75,987.804013656876
2834,991.344946872515
2834.25,995.038649477514
2834.5,998.19607854569
2834.75,1000.19480282583
2835,1001.17384925558
2835.25,1001.75745009788
2835.5,1002.57765650405
2835.75,1004.19341787803
2836,1006.34035715275
2836.25,1008.23522874409
2836.5,1009.0866758626
2836.75,1008.17973136444
2837,1005.6975441508
2837.25,1002.40751848928
2837.5,999.08701535563
2837.75,996.476299453453
2838,994.81715504886
2838.25,993.994663213262
2838.5,993.886163476332
2838.75,994.353924323262
2839,995.063838712376
2839.25,995.544267799917
2839.5,995.320740466144
2839.75,993.979057803583
2840,991.823079365594
2840.25,989.62832359824
2840.5,988.178555866844
2840.75,988.176900378859
2841,989.43317288791
2841.25,991.201153150372
2841.5,992.726224110778
2841.75,993.339908944908
2842,993.180637337965
2842.25,992.82785491239
2842.5,992.865487536597
2842.75,993.776550717799
2843,995.184011869532
2843.25,996.275621902624
2843.5,996.235756104919
2843.75,994.383799512533
2844,991.088367625566
2844.25,987.209248355711
2844.5,983.609031420809
2844.75,981.05426813798
2845,979.602997847543
2845.25,978.996199713477
2845.5,978.973367952687
2845.75,979.279650647492
2846,979.693862390567
2846.25,980.007228353717
2846.5,980.010993240316
2846.75,979.598586359844
2847,979.134430450624
2847.25,979.118560244224
2847.5,980.051015184173
2847.75,982.193961363394
2848,984.947465353074
2848.25,987.516353253132
2848.5,989.105831956638
2848.75,989.283013489755
2849,988.650169817366
2849.25,987.993468552683
2849.5,988.098369597504
2849.75,989.470735236171
2850,991.912245949094
2850.25,995.115456871645
2850.5,998.772329426175
2850.75,1002.4570549765
2851,1005.48493363222
2851.25,1007.13682774981
2851.5,1006.69628236753
2851.75,1003.92915089993
2852,999.637752043628
2852.25,994.758702014564
2852.5,990.227330027197
2852.75,986.648407028415
2853,983.858598283912
2853.25,981.585727492527
2853.5,979.558216533179
2853.75,977.602222579286
2854,975.749166031545
2854.25,974.056359870888
2854.5,972.579738051574
2854.75,971.27007307194
2855,969.900743063979
2855.25,968.228050537375
2855.5,966.016989241597
2855.75,963.351436157876
2856,960.718846615479
2856.25,958.632601360139
2856.5,957.577508699022
2856.75,957.494795551587
2857,957.83859589806
2857.25,958.045811625784
2857.5,957.621265084126
2857.75,956.746608240227
2858,955.991972397858
2858.25,955.93210638296
2858.5,956.940764775784
2858.75,958.229759164167
2859,958.594306808243
2859.25,956.829170035588
2859.5,952.311988375275
2859.75,946.401839705027
2860,940.878453917976
2860.25,937.51515325459
2860.5,937.093692929957
2860.75,938.341160517294
2861,939.729532136982
2861.25,939.770973869749
2861.5,938.022172005196
2861.75,935.155793995552
2862,931.899009067736
2862.25,928.939760412112
2862.5,926.581257373618
2862.75,924.90861598949
2863,924.004459095786
2863.25,923.89895110103
2863.5,924.406596696756
2863.75,925.286488930949
2864,926.298999961789
2864.25,927.307605442846
2864.5,928.352930085388
2864.75,929.493060914378
2865,930.772199582996
2865.25,932.019280799975
2865.5,932.893604384151
2865.75,933.049873869066
2866,932.211667117529
2866.25,930.509479339228
2866.5,928.222712431425
2866.75,925.631090224723
2867,923.068331130705
2867.25,921.011278034066
2867.5,919.960220537614
2867.75,920.395091112784
2868,922.148029319877
2868.25,924.284427804631
2868.5,925.825319118332
2868.75,925.926453562448
2869,924.894593699935
2869.25,923.620146566556
2869.5,922.998043444724
2869.75,923.612360704769
2870,924.981881846435
2870.25,926.397373950182
2870.5,927.159986228195
2870.75,927.089777496186
2871,926.756405573044
2871.25,926.788013887253
2871.5,927.760244563232
2871.75,929.604546861192
2872,931.820094768977
2872.25,933.89807046392
2872.5,935.432872632063
2872.75,936.507395081745
2873,937.348902989947
2873.25,938.18374698942
2873.5,939.058986508125
2873.75,939.630678252198
2874,939.50334392783
2874.25,938.296689443573
2874.5,936.063377393492
2874.75,933.341379574058
2875,930.694365273859
2875.25,928.637809495958
2875.5,927.190317267388
2875.75,926.077671253976
2876,925.021881213498
2876.25,923.8204710726
2876.5,922.591221545532
2876.75,921.536798417991
2877,920.858047210965
2877.25,920.590039343076
2877.5,920.471712348136
2877.75,920.211326820471
2878,919.544712019898
2878.25,918.625591240837
2878.5,917.932160077424
2878.75,917.95112264985
2879,919.064602067044
2879.25,921.117340829212
2879.5,923.781957257075
2879.75,926.730838396733
2880,929.616865827461
2880.25,932.054510409248
2880.5,933.653755233868
2880.75,934.044475255131
2881,933.236564843192
2881.25,931.581301936054
2881.5,929.442101308462
2881.75,927.158927859781
2882,924.901299974777
2882.25,922.763447393703
2882.5,920.839280143023
2882.75,919.245072105605
2883,918.16566404729
2883.25,917.798993226678
2883.5,918.335072620893
2883.75,919.665513610721
2884,921.299788138313
2884.25,922.722374447273
2884.5,923.463023674655
2884.75,923.467932687113
2885,922.907605845646
2885.25,921.954720431443
2885.5,920.82908653045
2885.75,919.916935649836
2886,919.641212122714
2886.25,920.421256945197
2886.5,922.488911589556
2886.75,925.800794516192
2887,930.291561928021
2887.25,935.85320111813
2887.5,941.894453925263
2887.75,947.518254282704
2888,951.822700668956
2888.25,954.112649627794
2888.5,954.665677946287
2888.75,954.045160728328
2889,952.814359112393
2889.25,951.451883273553
2889.5,950.211173699675
2889.75,949.308644737254
2890,948.958734123518
2890.25,949.25099799961
2890.5,950.07772294521
2890.75,951.313785805877
2891,952.836046266457
2891.25,954.561070144019
2891.5,956.442104767899
2891.75,958.433774192008
2892,960.458514109169
2892.25,962.131319382384
2892.5,962.896525329789
2892.75,962.196643039771
2893,959.680404340204
2893.25,956.158601649027
2893.5,952.848707673021
2893.75,950.968608942382
2894,951.395968733367
2894.25,953.796586752231
2894.5,957.56655318162
2894.75,962.101856574227
2895,966.784117238319
2895.25,970.965860510297
2895.5,973.996096649777
2895.75,975.235103832917
2896,974.50552354156
2896.25,972.24508633618
2896.5,968.934117996974
2896.75,965.050703216363
2897,961.019158411087
2897.25,957.208766784713
2897.5,953.986317422654
2897.75,951.691942739979
2898,950.301392190114
2898.25,949.526563293881
2898.5,949.073462236983
2898.75,948.661385029291
2899,948.104352635315
2899.25,947.25751191371
2899.5,945.976177144664
2899.75,944.1979136656
2900,942.174397534142
2900.25,940.23227619542
2900.5,938.697179915414
2900.75,937.745786218285
2901,937.25040388059
2901.25,937.046170809763
2901.5,936.973191572438
2901.75,936.999987285811
2902,937.231907453296
2902.25,937.780952728028
2902.5,938.733798374931
2902.75,939.9395765992
2903,941.117453836792
2903.25,941.985271615712
2903.5,942.338895399746
2903.75,942.30967733286
2904,942.119120681424
2904.25,941.988166933224
2904.5,942.029779913794
2904.75,942.121367932414
2905,942.109281123366
2905.25,941.844451830342
2905.5,941.31998864059
2905.75,940.695226447294
2906,940.138929223246
2906.25,939.813356993523
2906.5,939.806678859748
2906.75,940.159974152122
2907,940.913568697696
2907.25,942.075158348136
2907.5,943.482486148995
2907.75,944.918139831996
2908,946.164759164132
2908.25,947.042092035748
2908.5,947.465692038588
2908.75,947.366366715378
2909,946.682168212644
2909.25,945.701933430342
2909.5,945.214788581226
2909.75,946.048191786241
2910,948.963081211827
2910.25,953.627268656532
2910.5,958.814076206375
2910.75,963.270534852047
2911,965.891300389793
2911.25,966.7019441207
2911.5,966.250952229371
2911.75,965.089641282107
2912,963.724215100319
2912.25,962.440128116923
2912.5,961.455419472587
2912.75,960.988100223541
2913,961.220279117906
2913.25,962.218603231528
2913.5,964.026554411249
2913.75,966.685477916812
2914,969.91578757138
2914.25,972.77784913864
2914.5,974.250798980623
2914.75,973.335479462257
2915,970.078813243835
2915.25,966.016796574871
2915.5,962.799207855785
2915.75,962.023239031214
2916,963.883797230298
2916.25,967.057216533775
2916.5,970.143940635291
2916.75,971.856879709573
2917,972.455880419166
2917.25,973.325735985736
2917.5,975.876614428936
2917.75,981.283889042061
2918,988.593357322422
2918.25,995.71676130904
2918.5,1000.55529019613
2918.75,1001.37126535498
2919,998.854414128091
2919.25,994.69460413229
2919.5,990.584816962302
2919.75,988.010600639879
2920,987.04605781697
2920.25,987.177318477237
2920.5,987.888571903502
2920.75,988.717174446466
2921,989.519624787459
2921.25,990.270953920527
2921.5,990.94638938864
2921.75,991.516314001502
2922,991.926015826579
2922.25,992.112682282218
2922.5,992.013496782773
2922.75,991.573008002263
2923,990.769966746956
2923.25,989.593044381151
2923.5,988.030913320664
2923.75,986.136646376835
2924,984.234842168757
2924.25,982.721647944798
2924.5,981.99320845363
2924.75,982.33595477427
2925,983.635892584442
2925.25,985.687700652172
2925.5,988.285976087519
2925.75,991.124570377856
2926,993.600339983661
2926.25,995.055682754511
2926.5,994.83394068418
2926.75,992.694087485609
2927,989.461067361535
2927.25,986.128323579388
2927.5,983.688017328945
2927.75,982.725420334085
2928,982.8404540646
2928.25,983.4868086197
2928.5,984.119389730469
2928.75,984.364546148151
2929,984.195569111338
2929.25,983.627633510586
2929.5,982.678016479449
2929.75,981.527707302765
2930,980.635800184089
2930.25,980.488403721424
2930.5,981.562035873076
2930.75,983.876899613494
2931,986.807030894259
2931.25,989.677458283707
2931.5,991.833366948212
2931.75,993.234501838021
2932,994.552965762203
2932.25,996.50071155401
2932.5,999.756165216877
2932.75,1004.14728990009
2933,1008.6050199156
2933.25,1012.01744125186
2933.5,1013.31025895782
2933.75,1012.32654668469
2934,1009.85667797041
2934.25,1006.73463360484
2934.5,1003.78483441185
2934.75,1001.52809176231
2935,1000.12620095543
2935.25,999.720218303482
2935.5,1000.44493993282
2935.75,1002.21324855469
2936,1004.66158365062
2936.25,1007.40905324277
2936.5,1010.0713965667
2936.75,1012.14501965321
2937,1012.97772099795
2937.25,1011.90798696291
2937.5,1008.29724794182
2937.75,1002.51281045701
2938,996.298666885609
2938.25,991.498212705567
2938.5,989.931694025803
2938.75,992.097823910313
2939,996.484797928785
2939.25,1001.41221427532
2939.5,1005.22112598379
2939.75,1007.19170603651
2940,1007.88859718554
2940.25,1007.96909734199
2940.5,1008.08273218557
2940.75,1008.50256821221
2941,1008.96469239662
2941.25,1009.16404062194
2941.5,1008.79978636189
2941.75,1007.82652042579
2942,1006.5954000361
2942.25,1005.4917740295
2942.5,1004.89669401976
2942.75,1004.85003758183
2943,1004.80839446621
2943.25,1004.17122459855
2943.5,1002.3433293327
2943.75,999.231700415914
2944,995.649404625991
2944.25,992.504555552178
2944.5,990.699963310916
2944.75,990.583167348382
2945,991.46691535568
2945.25,992.55093458827
2945.5,993.040752045148
2945.75,992.586286244111
2946,991.588289540644
2946.25,990.519938414247
2946.5,989.851366887669
2946.75,989.864783862184
2947,990.547979299555
2947.25,991.863046814118
2947.5,993.768067040586
2947.75,996.032794525957
2948,998.161804072397
2948.25,999.639720195437
2948.5,999.960569548012
2948.75,998.989176195982
2949,997.075125650818
2949.25,994.600712789248
2949.5,991.94439891905
2949.75,989.333571352506
2950,986.798176194441
2950.25,984.354843758038
2950.5,982.020287516207
2950.75,979.814010183164
2951,977.758900219538
2951.25,975.878049953156
2951.5,974.192004458531
2951.75,972.661023190899
2952,971.184120831071
2952.25,969.657572960536
2952.5,967.984482988691
2952.75,966.172556733607
2953,964.311288501995
2953.25,962.492350890533
2953.5,960.811233003388
2953.75,959.400416617158
2954,958.413158801079
2954.25,958.00294719236
2954.5,958.287575445529
2954.75,959.173362102435
2955,960.489035712368
2955.25,962.063204344599
2955.5,963.677557927033
2955.75,964.946520260859
2956,965.447256182374
2956.25,964.758232952093
2956.5,962.770355375042
2956.75,960.090361300184
2957,957.424818610469
2957.25,955.474152050462
2957.5,954.563043705729
2957.75,954.429623107391
2958,954.761075306807
2958.25,955.249315170729
2958.5,955.691649420322
2958.75,955.988924918004
2959,956.046347962477
2959.25,955.782603738101
2959.5,955.262091549039
2959.75,954.638256675491
2960,954.065820643605
2960.25,953.649624572547
2960.5,953.192257051336
2960.75,952.38305619381
2961,950.911185249121
2961.25,948.734183717094
2961.5,946.741802582627
2961.75,946.026066461794
2962,947.672146190184
2962.25,951.877783413808
2962.5,957.085019791421
2962.75,961.529613298173
2963,963.494583925637
2963.25,962.616656037428
2963.5,960.053421182807
2963.75,957.043307640584
2964,954.755143360303
2964.25,953.33068002805
2964.5,952.128300038232
2964.75,950.486650631539
2965,947.856131433512
2965.25,944.569294967405
2965.5,941.377205998181
2965.75,939.03345294749
2966,938.0800871709
2966.25,938.160005781014
2966.5,938.677246126027
2966.75,939.037064047314
2967,938.839227060224
2967.25,938.089532452236
2967.5,936.844629731744
2967.75,935.172354960827
2968,933.441070323455
2968.25,932.345847655174
2968.5,932.598193509687
2968.75,934.782281760179
2969,938.27280965876
2969.25,941.77604929429
2969.5,943.991229525476
2969.75,944.034542021926
2970,942.729410665462
2970.25,941.336143986021
2970.5,941.110952032868
2970.75,942.597987079305
2971,944.823592667474
2971.25,946.619298085645
2971.5,946.849196366184
2971.75,945.324362900964
2972,942.927984753372
2972.25,940.600959485717
2972.5,939.224875824184
2972.75,938.986600199895
2973,939.622282154499
2973.25,940.860445751586
2973.5,942.411334768332
2973.75,943.887724138532
2974,944.870034018412
2974.25,944.939086167606
2974.5,943.898936024132
2974.75,942.142862756096
2975,940.160231831457
2975.25,938.437633131817
2975.5,937.323962552282
2975.75,936.96980337652
2976,937.510331497494
2976.25,939.067070821521
2976.5,941.561299837327
2976.75,944.762182574706
2977,948.435085902237
2977.25,952.34552666165
2977.5,956.259958739483
2977.75,959.945197227582
2978,963.168054383392
2978.25,965.672729373011
2978.5,967.127206590395
2978.75,967.183430499293
2979,965.495323391139
2979.25,962.108613504146
2979.5,957.930068984316
2979.75,953.980954065897
2980,951.272421213061
2980.25,950.243222897042
2980.5,950.464074818544
2980.75,951.433220777372
2981,952.656661194322
2981.25,953.793484790945
2981.5,954.643000597282
2981.75,955.009694445031
2982,954.743768139739
2982.25,954.127205314825
2982.5,953.679540726117
2982.75,953.922775443796
2983,955.226695624672
2983.25,957.152430052366
2983.5,958.993609511292
2983.75,960.043875972744
2984,959.919203264386
2984.25,959.221818685211
2984.5,958.741931306096
2984.75,959.265717830971
2985,961.092041096656
2985.25,963.573651817289
2985.5,965.954643653797
2985.75,967.491899717253
2986,967.900070999513
2986.25,967.466613899234
2986.5,966.515144857984
2986.75,965.362823505064
2987,964.206249226717
2987.25,963.135204142663
2987.5,962.235774783149
2987.75,961.570395910948
2988,960.941756893609
2988.25,959.991918360675
2988.5,958.360559366918
2988.75,955.802687520812
2989,952.836948899187
2989.25,950.292382542359
2989.5,948.998924987528
2989.75,949.527797035681
2990,951.423790567776
2990.25,953.977181585099
2990.5,956.479513632084
2990.75,958.469012166834
2991,960.023834881278
2991.25,961.29360358836
2991.5,962.428512877694
2991.75,963.603439761502
2992,965.026796642843
2992.25,966.909391604822
2992.5,969.436849577064
2992.75,972.300913380914
2993,974.742657081311
2993.25,975.986636981257
2993.5,975.340624272842
2993.75,973.092005157804
2994,970.166037446586
2994.25,967.498876634822
2994.5,965.918778202846
2994.75,965.343540703908
2995,965.234056479252
2995.25,965.047782370756
2995.5,964.354146936646
2995.75,963.344240160567
2996,962.423660199429
2996.25,961.998202857542
2996.5,962.316545112774
2996.75,963.055623993366
2997,963.762365901554
2997.25,963.984639668306
2997.5,963.518709263581
2997.75,962.741055679812
2998,962.110863879819
2998.25,962.083267382753
2998.5,962.860366550187
2998.75,964.24623159485
2999,966.010003149468
2999.25,967.929598901073
2999.5,970.005181467013
2999.75,972.471102747582
3000,975.57288262034
3000.25,979.502286878432
3000.5,983.683946976913
3000.75,986.970411861043
3001,988.200542346832
3001.25,986.357151988209
3001.5,981.887650055809
3001.75,976.093786034515
3002,970.287981756318
3002.25,965.676478384438
3002.5,962.548416863159
3002.75,960.723707105049
3003,960.018469077618
3003.25,960.217440632437
3003.5,960.922901061081
3003.75,961.671359394363
3004,961.999240838408
3004.25,961.537584503588
3004.5,960.256642575403
3004.75,958.20265835376
3005,955.422605174613
3005.25,952.143114695427
3005.5,949.004633557791
3005.75,946.705667751127
3006,945.933528601472
3006.25,946.83404148635
3006.5,948.781089175532
3006.75,951.089444006466
3007,953.101833634372
3007.25,954.612631951598
3007.5,955.781779492026
3007.75,956.779714530274
3008,957.730780691652
3008.25,958.387518404895
3008.5,958.322810816417
3008.75,957.108374204202
3009,954.50357819818
3009.25,951.152935648709
3009.5,947.961695605825
3009.75,945.834704043177
3010,945.298190738634
3010.25,945.80861349541
3010.5,946.634826439391
3010.75,947.050427952546
3011,946.613573966893
3011.25,945.323428382604
3011.5,943.217084697402
3011.75,940.349319819517
3012,937.106328007498
3012.25,934.168607283716
3012.5,932.22688352702
3012.75,931.856704151234
3013,932.718427376774
3013.25,934.03578921827
3013.5,935.029857446856
3013.75,935.162315018665
3014,934.724227735505
3014.25,934.185229491674
3014.5,934.011150225571
3014.75,934.395666853658
3015,935.083219310941
3015.25,935.776213592872
3015.5,936.183803362471
3015.75,936.127299617879
3016,935.520460357097
3016.25,934.279802963255
3016.5,932.346117867182
3016.75,929.823220656846
3017,926.882048376467
3017.25,923.69376594358
3017.5,920.46031992725
3017.75,917.476687054731
3018,915.055350577767
3018.25,913.501894085637
3018.5,912.850993717277
3018.75,912.783847136907
3019,912.95787085756
3019.25,913.051685189265
3019.5,912.933195473093
3019.75,912.569812210894
3020,911.929847526878
3020.25,911.010002543642
3020.5,909.893702828772
3020.75,908.680876466433
3021,907.473639255239
3021.25,906.441085923876
3021.5,905.830107685912
3021.75,905.891962194184
3022,906.858088005839
3022.25,908.818412233818
3022.5,911.801327823334
3022.75,915.833457286144
3023,920.558554605708
3023.25,924.73407335107
3023.5,926.992411731719
3023.75,926.040175965778
3024,922.092354318512
3024.25,916.76969234393
3024.5,911.746586703242
3024.75,908.478262566326
3025,906.896002954757
3025.25,906.283846178363
3025.5,905.924306783599
3025.75,905.348801822726
3026,904.684227596521
3026.25,904.144665723092
3026.5,903.931107157047
3026.75,904.005289593091
3027,904.119713608711
3027.25,904.019826185293
3027.5,903.526310401873
3027.75,902.825254197049
3028,902.21352123984
3028.25,901.986151733379
3028.5,902.315464016389
3028.75,903.176423214853
3029,904.526155716044
3029.25,906.309026639639
3029.5,908.342905225702
3029.75,910.373355845843
3030,912.145118042224
3030.25,913.442525113855
3030.5,914.170419377546
3030.75,914.256487124209
3031,913.632119582623
3031.25,912.341386565237
3031.5,910.558806392855
3031.75,908.466180217339
3032,906.247015878004
3032.25,904.097931000834
3032.5,902.221619039807
3032.75,900.820525287206
3033,899.983999198566
3033.25,899.515712885128
3033.5,899.174924879861
3033.75,898.731212281889
3034,898.142010174154
3034.25,897.528653496059
3034.5,897.017976151799
3034.75,896.736258844044
3035,896.807259660644
3035.25,897.354018037666
3035.5,898.493390952435
3035.75,900.050281746689
3036,901.437440988734
3036.25,902.036497495271
3036.5,901.3695647662
3036.75,900.078758011445
3037,899.342047172291
3037.25,900.338459715451
3037.5,903.49590909622
3037.75,907.411736693152
3038,910.409690246972
3038.25,910.908484357716
3038.5,908.939316667902
3038.75,905.880543079142
3039,903.15188318267
3039.25,901.901054368741
3039.5,901.911971658665
3039.75,902.542018379457
3040,903.153034651203
3040.25,903.428056010953
3040.5,903.575772262364
3040.75,903.853503849623
3041,904.496172753132
3041.25,905.508404650977
3041.5,906.759387852033
3041.75,908.116566071869
3042,909.42579960019
3042.25,910.46598402193
3042.5,911.003066491486
3042.75,910.815457469035
3043,910.042265096285
3043.25,909.229963416123
3043.5,908.946866757525
3043.75,909.684676422433
3044,911.385838039878
3044.25,913.753103497418
3044.5,916.48837096336
3044.75,919.337657579688
3045,922.153016894688
3045.25,924.802107038942
3045.5,927.152259466367
3045.75,929.06362457876
3046,930.389351735997
3046.25,930.982299630607
3046.5,930.721178424161
3046.75,929.672209933777
3047,927.984291148223
3047.25,925.806722187994
3047.5,923.384307112486
3047.75,921.261063369957
3048,920.039449386346
3048.25,920.306200001672
3048.5,921.94952625321
3048.75,923.896246134786
3049,925.003192984258
3049.25,924.260647919231
3049.5,922.045286645071
3049.75,919.555673591042
3050,918.001151656442
3050.25,918.250401074557
3050.5,919.802531304401
3050.75,921.812520307132
3051,923.44298330287
3051.25,924.338412065072
3051.5,924.904127324744
3051.75,925.612551909154
3052,926.90178878111
3052.25,928.760606396325
3052.5,930.862020949442
3052.75,932.872492082935
3053,934.477102165149
3053.25,935.452703025903
3053.5,935.604365912425
3053.75,934.738584189833
3054,932.966437427138
3054.25,931.080915032226
3054.5,929.967636688458
3054.75,930.48106520057
3055,932.599159599198
3055.25,935.32410547668
3055.5,937.607005944127
3055.75,938.512240128534
3056,938.127109922582
3056.25,937.081720741356
3056.5,936.0111675943
3056.75,935.410259344296
3057,935.190562649093
3057.25,935.112093388496
3057.5,934.9353948371
3057.75,934.48935821602
3058,933.738105997152
3058.25,932.661651014621
3058.5,931.2423012255
3058.75,929.514328526454
3059,927.563515117974
3059.25,925.477847594165
3059.5,923.348362651939
3059.75,921.29050255238
3060,919.431422429789
3060.25,917.898307459451
3060.5,916.691815397398
3060.75,915.408673742516
3061,913.565177486445
3061.25,910.688057139108
3061.5,906.700973341081
3061.75,902.03820698281
3062,897.167665620567
3062.25,892.529089245189
3062.5,888.3217610877
3062.75,884.623121322607
3063,881.509389939167
3063.25,878.972223167983
3063.5,876.799063590956
3063.75,874.747141329662
3064,872.595250400751
3064.25,870.394618438738
3064.5,868.383149694474
3064.75,866.802099283435
3065,865.7590916202
3065.25,865.016395483293
3065.5,864.281232703423
3065.75,863.287582225199
3066,862.065611673894
3066.25,860.829749574131
3066.5,859.797365285172
3066.75,859.211588322527
3067,859.369245688977
3067.25,860.573878547019
3067.5,863.036957264318
3067.75,866.254530792942
3068,869.387783954168
3068.25,871.603347967611
3068.5,872.486981927625
3068.75,872.261637714458
3069,871.203649149121
3069.25,869.608257486422
3069.5,867.887548888947
3069.75,866.498195586918
3070,865.888327673841
3070.25,866.109655055362
3070.5,866.660626561443
3070.75,866.998595397784
3071,866.719259426714
3071.25,866.146536882291
3071.5,865.84310284203
3071.75,866.357821863215
3072,867.808733508308
3072.25,869.811321337203
3072.5,871.95266621175
3072.75,873.873426837629
3073,875.443796431735
3073.25,876.595424120658
3073.5,877.274560519673
3073.75,877.780867638937
3074,878.777478184531
3074.25,880.944138021502
3074.5,884.7416260554
3074.75,889.704445963382
3075,895.122213885729
3075.25,900.288815544066
3075.5,904.619174844877
3075.75,907.663466708713
3076,908.978990694624
3076.25,908.288527047273
3076.5,906.309739005342
3076.75,904.130340582723
3077,902.835446299795
3077.25,903.029041756107
3077.5,904.326860033788
3077.75,906.223198650264
3078,908.228834592171
3078.25,910.084545143545
3078.5,911.700047365555
3078.75,912.988960088409
3079,913.894190653929
3079.25,914.479399145828
3079.5,914.839360971511
3079.75,915.070347377253
3080,915.355416433579
3080.25,916.010469924397
3080.5,917.362643399572
3080.75,919.699814891174
3081,922.87199243246
3081.25,926.455230087442
3081.5,930.021384952017
3081.75,933.241712501079
3082,936.177665305786
3082.25,938.986430377972
3082.5,941.822479349249
3082.75,944.605038552678
3083,946.839613591183
3083.25,947.98969283411
3083.5,947.555159384105
3083.75,945.790770390331
3084,943.663129132515
3084.25,942.166618747472
3084.5,942.165187095422
3084.75,943.310987712469
3085,944.598234571884
3085.25,945.01460338189
3085.5,943.803044346609
3085.75,941.348500864712
3086,938.355133234758
3086.25,935.5266040104
3086.5,933.429871652968
3086.75,932.311810691817
3087,932.373548512033
3087.25,933.798578224695
3087.5,936.219753981563
3087.75,938.624144443287
3088,939.962003016939
3088.25,939.331382531263
3088.5,937.318952439778
3088.75,935.372942475859
3089,934.952089646733
3089.25,937.111950291871
3089.5,941.018085652404
3089.75,945.282721171138
3090,948.520557350819
3090.25,949.838710333445
3090.5,949.420664186662
3090.75,947.592151569889
3091,944.682645804223
3091.25,941.154603500602
3091.5,937.636363157057
3091.75,934.766684603944
3092,933.134098489157
3092.25,932.662035728486
3092.5,932.802843551833
3092.75,932.998896011277
3093,932.772746534372
3093.25,932.086389703885
3093.5,931.051595092809
3093.75,929.780427843284
3094,928.44485255336
3094.25,927.36487396673
3094.5,926.882967404256
3094.75,927.332058478448
3095,928.754622784384
3095.25,930.85687263938
3095.5,933.326246341648
3095.75,935.853059714727
3096,938.153876689877
3096.25,939.959303639307
3096.5,941.000079687823
3096.75,941.167830605928
3097,940.997458310175
3097.25,941.184616172846
3097.5,942.420890555809
3097.75,944.831438815263
3098,947.398899938135
3098.25,948.968522841417
3098.5,948.426543264714
3098.75,945.758158316751
3099,942.142060619073
3099.25,938.816876814233
3099.5,936.927534475159
3099.75,936.552430556884
3100,937.092515155891
3100.25,937.937916022285
3100.5,938.596485766796
3100.75,939.174125912691
3101,939.966180582607
3101.25,941.267284629598
3101.5,943.114415920637
3101.75,944.916645205199
3102,945.989204073158
3102.25,945.66331548911
3102.5,943.874422990852
3102.75,941.332928830611
3103,938.800038634477
3103.25,936.996543561155
3103.5,936.086016381013
3103.75,935.826148467429
3104,935.965440172973
3104.25,936.294627017168
3104.5,936.855625588533
3104.75,937.782838462083
3105,939.210526329189
3105.25,941.066314188435
3105.5,942.70727581176
3105.75,943.392842675442
3106,942.396289736573
3106.25,939.641109577008
3106.5,935.966679336773
3106.75,932.281315583869
3107,929.449655175137
3107.25,927.676078010687
3107.5,926.653259081775
3107.75,926.060510438947
3108,925.603341149303
3108.25,925.140924882009
3108.5,924.588288623257
3108.75,923.860766279289
3109,922.947305967794
3109.25,922.015774291548
3109.5,921.260697721609
3109.75,920.869298893069
3110,920.838175443921
3110.25,920.959805487373
3110.5,921.01666043647
3110.75,920.825236280508
3111,920.461808591709
3111.25,920.122422808493
3111.5,920.003731836314
3111.75,920.265309334687
3112,920.958473859945
3112.25,922.114893815834
3112.5,923.75855854102
3112.75,925.656331489829
3113,927.263212008794
3113.25,928.015444741101
3113.5,927.423373490708
3113.75,925.677324715426
3114,923.333175707434
3114.25,920.950315955527
3114.5,918.983312198028
3114.75,917.494633423969
3115,916.455086951514
3115.25,915.835935430856
3115.5,915.634775827626
3115.75,915.88946643918
3116,916.641264627244
3116.25,917.897700641808
3116.5,919.285296419316
3116.75,920.189918158066
3117,919.993646616168
3117.25,918.328451373298
3117.5,915.805939868663
3117.75,913.277748477126
3118,911.587662474144
3118.25,911.085548971171
3118.5,911.342264538501
3118.75,911.860058579057
3119,912.181642862775
3119.25,912.299755919009
3119.5,912.488097226641
3119.75,913.024640601825
3120,914.02449567192
3120.25,915.009203905516
3120.5,915.365121644353
3120.75,914.490546492373
3121,912.310665651553
3121.25,909.473754771213
3121.5,906.680507198236
3121.75,904.558134196146
3122,903.024258686338
3122.25,901.599172135292
3122.5,899.79891857567
3122.75,897.321718188746
3123,894.414452235299
3123.25,891.426875134282
3123.5,888.698671203683
3123.75,886.332954026553
3124,884.193478541792
3124.25,882.133371981511
3124.5,880.059309160534
3124.75,878.137908779246
3125,876.614556757474
3125.25,875.730348459236
3125.5,875.566309329001
3125.75,875.999712845172
3126,876.894628314657
3126.25,878.117823437411
3126.5,879.550490954646
3126.75,881.078623988929
3127,882.58831172205
3127.25,883.969339157162
3127.5,885.11634374344
3127.75,885.924292454181
3128,886.269448418033
3128.25,885.916487091458
3128.5,884.588875271607
3128.75,882.016931934059
3129,878.37479924357
