1865,904.906691146423
1865.25,912.496489569902
1865.5,920.863063351025
1865.75,928.825238259157
1866,935.202166196844
1866.25,939.024882915255
1866.5,939.772669597759
1866.75,936.981834646254
1867,930.243214690533
1867.25,920.506690268832
1867.5,910.142148509274
1867.75,901.586204663996
1868,896.998482507333
1868.25,896.105949761971
1868.5,897.373712122554
1868.75,899.256928533374
1869,900.567311941397
1869.25,901.039991648631
1869.5,900.55761812419
1869.75,899.02647844224
1870,896.784499071676
1870.25,894.546901943141
1870.5,893.04161507589
1870.75,892.918620159433
1871,894.467386658391
1871.25,897.873228597556
1871.5,903.31209717948
1871.75,910.548850178673
1872,918.785083598913
1872.25,927.181657836611
1872.5,934.866156040829
1872.75,940.700257935492
1873,943.418178272485
1873.25,941.753462223061
1873.5,935.167370677119
1873.75,925.553983924205
1874,915.315173416409
1874.25,906.83956768403
1874.5,901.422949204456
1874.75,898.468932338598
1875,897.192762544456
1875.25,896.825602094746
1875.5,896.790807640507
1875.75,896.639219665346
1876,895.924011460237
1876.25,894.372634657748
1876.5,892.280899189385
1876.75,890.060285479122
1877,888.129139454229
1877.25,887.075825058375
1877.5,887.665738112883
1877.75,890.67254343329
1878,896.58314014311
1878.25,904.462565482042
1878.5,912.935987553615
1878.75,920.636106359658
1879,926.566346134802
1879.25,930.258697850674
1879.5,931.285633514148
1879.75,929.311843333494
1880,924.978203355157
1880.25,919.512672071745
1880.5,914.151240976529
1880.75,909.896648601639
1881,906.72758988785
1881.25,904.341813495179
1881.5,902.438507266283
1881.75,900.817790924465
1882,899.44493911423
1882.25,898.30050256076
1882.5,897.360138408113
1882.75,896.549200343261
1883,895.763463705923
1883.25,894.898530489103
1883.5,894.06343026947
1883.75,893.984287249627
1884,895.498104037979
1884.25,899.38936274642
1884.5,905.386612815934
1884.75,912.240608563541
1885,918.665240279717
1885.25,923.60749947929
1885.5,927.125768187466
1885.75,929.609292743024
1886,931.444001185929
1886.25,932.66460975713
1886.5,932.652438516198
1886.75,930.717593877468
1887,926.230488277938
1887.25,919.709897904827
1887.5,912.704198123178
1887.75,906.798228630703
1888,903.336552634978
1888.25,902.02876677624
1888.5,901.903364016468
1888.75,901.988227972135
1889,901.649733535965
1889.25,901.005107130578
1889.5,900.272496901747
1889.75,899.675293948259
1890,899.517173686177
1890.25,900.164566300595
1890.5,901.985572192539
1890.75,905.158013614499
1891,909.085492399707
1891.25,912.974722081866
1891.5,916.053047928695
1891.75,918.418135330981
1892,921.339381597053
1892.25,926.168774256672
1892.5,933.957081200072
1892.75,942.917678313784
1893,949.706236035945
1893.25,950.962369498504
1893.5,944.660290861633
1893.75,933.882783330569
1894,922.93477147659
1894.25,916.109648245455
1894.5,915.561649648921
1894.75,918.814248481333
1895,922.785774438845
1895.25,924.513928530909
1895.5,923.298759482395
1895.75,920.462909679021
1896,917.400253298337
1896.25,915.325867354393
1896.5,914.316159035834
1896.75,914.000839120682
1897,914.009827981206
1897.25,914.327903864614
1897.5,915.779425336348
1897.75,919.31015713661
1898,925.807943605896
1898.25,934.963541526078
1898.5,945.341178279016
1898.75,955.461288806602
1899,963.887499826825
1899.25,969.468712422807
1899.5,971.16951881759
1899.75,967.954841829248
1900,959.418366947249
1900.25,947.612636724856
1900.5,935.19117207005
1900.75,924.805945866575
1901,918.206966761029
1901.25,914.727933758656
1901.5,913.302170484435
1901.75,912.875329184054
1902,912.793267240227
1902.25,912.880110716644
1902.5,912.988082580497
1902.75,912.970601682342
1903,912.690518601087
1903.25,912.015155149932
1903.5,910.812187290623
1903.75,909.171842234589
1904,907.793842086298
1904.25,907.481311837379
1904.5,909.015749618742
1904.75,912.64215140454
1905,918.04635496123
1905.25,924.888037554109
1905.5,932.674976944116
1905.75,939.963208462921
1906,944.940948595657
1906.25,945.797705099896
1906.5,941.679904346302
1906.75,934.205385298179
1907,925.385624820165
1907.25,917.214157130846
1907.5,910.815094944058
1907.75,906.072213396006
1908,902.774213410787
1908.25,900.711433739029
1908.5,899.6920628093
1908.75,899.535263968837
1909,900.060334536293
1909.25,901.014606582791
1909.5,901.916454407974
1909.75,902.238821285523
1910,901.484638278162
1910.25,899.92765087999
1910.5,898.660359741604
1910.75,898.814852391561
1911,901.326336056114
1911.25,905.958803028493
1911.5,912.04488607154
1911.75,918.915658664091
1912,925.816119104924
1912.25,931.834333476668
1912.5,936.041688604073
1912.75,937.55619755551
1913,936.179280605238
1913.25,932.231247292001
1913.5,926.045345514664
1913.75,918.073112392605
1914,909.495594905088
1914.25,901.771680811287
1914.5,896.359157838569
1914.75,894.069309113793
1915,894.086584917068
1915.25,895.343570769313
1915.5,896.799631852374
1915.75,897.867369399367
1916,898.337271799973
1916.25,898.011380988589
1916.5,896.833219407215
1916.75,895.33700897451
1917,894.211109653819
1917.25,894.137354769931
1917.5,895.534348330234
1917.75,898.47315673246
1918,903.001048537293
1918.25,909.101530748419
1918.5,916.313121464619
1918.75,923.984720799792
1919,931.463287337726
1919.25,937.840003195745
1919.5,941.638687695441
1919.75,941.306902373406
1920,935.385830901029
1920.25,924.761241283986
1920.5,912.774946129252
1920.75,902.884687306832
1921,898.168227464272
1921.25,898.12128378897
1921.5,900.271846240218
1921.75,902.128645351413
1922,902.019149440289
1922.25,900.549634365625
1922.5,898.719692561738
1922.75,897.501022557905
1923,897.265588643403
1923.25,897.807976179522
1923.5,898.899349707621
1923.75,900.380040732244
1924,902.439557354103
1924.25,905.37734288755
1924.5,909.489062615475
1924.75,914.830096960305
1925,921.076821517396
1925.25,927.872229965268
1925.5,934.784200908181
1925.75,940.59121226915
1926,943.599615668089
1926.25,942.109406950879
1926.5,935.135725210671
1926.75,924.776767238546
1927,913.961374316003
1927.25,905.61154952597
1927.5,901.321374686518
1927.75,899.781006547363
1928,899.29664246459
1928.25,898.254893158624
1928.5,896.35012369575
1928.75,894.33970438614
1929,893.011809294175
1929.25,892.926021609717
1929.5,893.680883107329
1929.75,894.62241611588
1930,895.113240128284
1930.25,895.119375053093
1930.5,895.367289053545
1930.75,896.631985954657
1931,899.579518179908
1931.25,904.147766359201
1931.5,909.97612799397
1931.75,916.701755776545
1932,923.789044154828
1932.25,930.361060142796
1932.5,935.500831885423
1932.75,938.328262088407
1933,938.55182477753
1933.25,936.352678871328
1933.5,931.925330683453
1933.75,925.564219583123
1934,918.222581075238
1934.25,911.120364320057
1934.5,905.47788771463
1934.75,902.141298005822
1935,900.883625023859
1935.25,901.28672141301
1935.5,902.926328139704
1935.75,905.229547201339
1936,907.470214836804
1936.25,908.915129976685
1936.5,909.048648673862
1936.75,908.60476197673
1937,908.762786989321
1937.25,910.69730790581
1937.5,914.907836378693
1937.75,920.562779120429
1938,926.674776705658
1938.25,932.301820310209
1938.5,937.168243311889
1938.75,941.505143126694
1939,945.556300463159
1939.25,949.355865301775
1939.5,951.764397244175
1939.75,951.234279387698
1940,946.218400777915
1940.25,936.23905274604
1940.5,923.951290518303
1940.75,912.580837199494
1941,905.325571212561
1941.25,903.497779048635
1941.5,905.356312442505
1941.75,908.881460549793
1942,912.162576860058
1942.25,914.45894966885
1942.5,915.740620081193
1942.75,915.987659411351
1943,915.322393852012
1943.25,914.358237051342
1943.5,913.814497558336
1943.75,914.40094686686
1944,916.422368897616
1944.25,919.636745128226
1944.5,923.763353145417
1944.75,928.531921780655
1945,933.769654655365
1945.25,939.35684460789
1945.5,945.174310861727
1945.75,950.819801586016
1946,954.854868040372
1946.25,955.604027151424
1946.5,951.404213178614
1946.75,942.099121196961
1947,930.461095891695
1947.25,919.599285746141
1947.5,912.551983749934
1947.75,910.13157594915
1948,910.532214024071
1948.25,911.798079900504
1948.5,912.179089337876
1948.75,911.558052177586
1949,910.596062306719
1949.25,909.958541531609
1949.5,910.014258477958
1949.75,910.324364610342
1950,910.313863682036
1950.25,909.443787088299
1950.5,908.043204130375
1950.75,907.331693328694
1951,908.569356028618
1951.25,912.761455951591
1951.5,919.306853523971
1951.75,926.98011739381
1952,934.554903672481
1952.25,940.889656700232
1952.5,945.02451047759
1952.75,946.02306322585
1953,943.000427056854
1953.25,936.359463149854
1953.5,927.850701365496
1953.75,919.288177148997
1954,912.378243109149
1954.25,907.725981621663
1954.5,905.291489097875
1954.75,905.026699736253
1955,906.71596079279
1955.25,909.539666638957
1955.5,912.542207311945
1955.75,914.783806223152
1956,915.88918836604
1956.25,916.18816388041
1956.5,916.054929568845
1956.75,915.868583114972
1957,916.049613496605
1957.25,917.039297425945
1957.5,919.278976619956
1957.75,923.070575880647
1958,928.295866062777
1958.25,934.757786899148
1958.5,942.242201526599
1958.75,949.940980014898
1959,956.312519199711
1959.25,959.769853666747
1959.5,958.878724590795
1959.75,954.001154282441
1960,946.668138625056
1960.25,938.430614427382
1960.5,930.723259582558
1960.75,924.183640024344
1961,919.114989681867
1961.25,915.819317755343
1961.5,914.365600652465
1961.75,914.079047499868
1962,914.1368005316
1962.25,913.730072171749
1962.5,912.56078084765
1962.75,910.974016905846
1963,909.355876548836
1963.25,908.08396699908
1963.5,907.463450171078
1963.75,907.76278816811
1964,909.250055645011
1964.25,912.11115296512
1964.5,916.30166135972
1964.75,921.7371142391
1965,928.307468192276
1965.25,935.268222096665
1965.5,941.213642409985
1965.75,944.707060958783
1966,944.503517023289
1966.25,940.848658320409
1966.5,934.686227264535
1966.75,926.963955665846
1967,918.600316736771
1967.25,910.398285261996
1967.5,903.132340383811
1967.75,897.572428515649
1968,894.127736694181
1968.25,892.590178904061
1968.5,892.691147226695
1968.75,894.112410231468
1969,896.024597434229
1969.25,897.297318477963
1969.5,896.797354296591
1969.75,894.089008790138
1970,890.642796206891
1970.25,888.251889715333
1970.5,888.637513903938
1970.75,892.145190730017
1971,897.883968946951
1971.25,904.918894033998
1971.5,912.384243204779
1971.75,919.700512265889
1972,926.362151998276
1972.25,931.861396964877
1972.5,935.586249418605
1972.75,936.777814362093
1973,934.666131341854
1973.25,928.62564268908
1973.5,919.820230872781
1973.75,910.623121504203
1974,903.430310700143
1974.25,900.11877472689
1974.5,899.902743839722
1974.75,901.144866308037
1975,902.218412556239
1975.25,902.311253000173
1975.5,901.971792528355
1975.75,901.877712639498
1976,902.622240741888
1976.25,903.919390581445
1976.5,904.961126701588
1976.75,904.932850665371
1977,903.584478869017
1977.25,902.394617761544
1977.5,903.171645478862
1977.75,907.65827055498
1978,915.849326568277
1978.25,925.848682226087
1978.5,935.665863093751
1978.75,943.452245653271
1979,948.254383602503
1979.25,949.467078671216
1979.5,946.48637500699
1979.75,939.287975616314
1980,929.559469241865
1980.25,919.302934206193
1980.5,910.507286468138
1980.75,904.251026747821
1981,900.127369504045
1981.25,897.592686081909
1981.5,896.118297959925
1981.75,895.352082666766
1982,895.057149623888
1982.25,894.99858688958
1982.5,894.934579500753
1982.75,894.601200709598
1983,893.7301055312
1983.25,892.08484191585
1983.5,890.181534951346
1983.75,889.299618913739
1984,890.752567559344
1984.25,895.565057110824
1984.5,903.303868872577
1984.75,913.076792693978
1985,923.98859801832
1985.25,935.000641450198
1985.5,944.866564449444
1985.75,952.323741686471
1986,956.215806072519
1986.25,956.568244010906
1986.5,954.144415091311
1986.75,949.718916818677
1987,944.080956722478
1987.25,938.108266365114
1987.5,932.71174411416
1987.75,928.802271666165
1988,926.990265268533
1988.25,926.902760422959
1988.5,927.965928175493
1988.75,929.607777403478
1989,931.353561024909
1989.25,932.87221242672
1989.5,933.844236066827
1989.75,934.017450727587
1990,934.018049694028
1990.25,935.08802242858
1990.5,938.482071675042
1990.75,945.1214953447
1991,954.121809683954
1991.25,963.990005121363
1991.5,973.233471652128
1991.75,980.791816365903
1992,986.736124826566
1992.25,991.320362046457
1992.5,994.796022068141
1992.75,997.132129669557
1993,997.757779502053
1993.25,996.041224433215
1993.5,991.359856925823
1993.75,983.928113798423
1994,975.458471055888
1994.25,967.818951605835
1994.5,962.863307514933
1994.75,961.409925257874
1995,962.559914172162
1995.25,965.252687033274
1995.5,968.438090884958
1995.75,971.369823597326
1996,973.64581871802
1996.25,974.882560482484
1996.5,974.74685497187
1996.75,973.707283484325
1997,972.8755930953
1997.25,973.381646896473
1997.5,976.242166879203
1997.75,981.24001605282
1998,987.399043316399
1998.25,993.732011338505
1998.5,999.267223159575
1998.75,1003.1521411954
1999,1004.58936832807
1999.25,1002.78180690737
1999.5,997.147680137768
1999.75,988.652787550981
2000,978.939788820725
2000.25,969.654193040725
2000.5,962.267750136399
2000.75,956.97150377983
2001,953.383841235779
2001.25,951.120477575486
2001.5,949.844461972104
2001.75,949.453289163466
2002,949.916906856479
2002.25,951.205050794282
2002.5,953.118807844241
2002.75,954.993463752338
2003,956.084563607934
2003.25,955.659330822131
2003.5,953.750881080082
2003.75,951.618548503371
2004,950.631852634688
2004.25,952.11701945181
2004.5,956.392034109394
2004.75,962.759653502702
2005,970.477943453938
2005.25,978.760312837044
2005.5,986.348475266325
2005.75,991.700935228111
2006,993.272340888091
2006.25,989.847823854591
2006.5,982.642429078843
2006.75,973.955398166513
2007,966.090982771993
2007.25,961.048662150854
2007.5,958.778728808465
2007.75,958.386941731967
2008,958.976426616894
2008.25,959.81210857201
2008.5,960.867377103409
2008.75,962.309477192356
2009,964.30534783957
2009.25,966.834759549289
2009.5,969.373652283658
2009.75,971.314050934629
2010,972.054496213776
2010.25,971.599852914929
2010.5,971.045475713728
2010.75,971.600655073104
2011,974.455229923012
2011.25,979.997409274897
2011.5,987.546971450186
2011.75,996.349498587543
2012,1005.63271565342
2012.25,1014.21048874763
2012.5,1020.48107091717
2012.75,1022.82450719764
2013,1019.70864092946
2013.25,1011.67369083
2013.5,1001.36213843465
2013.75,991.510241455986
2014,984.80658733383
2014.25,982.157333759555
2014.5,982.193318566369
2014.75,983.397285687982
2015,984.27899104483
2015.25,984.108539054789
2015.5,983.002751971979
2015.75,981.12280061186
2016,978.64232144968
2016.25,975.993024942216
2016.5,973.849722963191
2016.75,972.896695179525
2017,973.782592082206
2017.25,976.629306351534
2017.5,981.156459968726
2017.75,987.073511890479
2018,994.055473492256
2018.25,1001.43527802854
2018.5,1008.35005068718
2018.75,1013.93460889596
2019,1017.36865985232
2019.25,1018.21578947098
2019.5,1016.23438276943
2019.75,1011.18435131964
2020,1002.93909053108
2020.25,992.562477096673
2020.5,981.829411613213
2020.75,972.524327618198
2021,966.295375118951
2021.25,963.164870068097
2021.5,962.086136429447
2021.75,961.993757993633
2022,961.909095335377
2022.25,961.538373122776
2022.5,960.912675202703
2022.75,960.065042980976
2023,959.110715909497
2023.25,958.568569127647
2023.5,959.081170709337
2023.75,961.290974516731
2024,965.595803547687
2024.25,971.649232880017
2024.5,978.963818978728
2024.75,987.050719390279
2025,995.248545784891
2025.25,1002.55902306051
2025.5,1007.94492081244
2025.75,1010.37710284387
2026,1009.41304266055
2026.25,1005.58281564354
2026.5,999.508031646214
2026.75,991.812013516853
2027,983.292120213658
2027.25,975.06716793025
2027.5,968.290697128428
2027.75,964.106736991265
2028,962.876531118381
2028.25,963.607184539352
2028.5,965.171146666702
2028.75,966.457649788247
2029,966.898310086434
2029.25,966.571542013538
2029.5,965.593628899582
2029.75,964.113567100598
2030,962.836019106426
2030.25,962.929996568805
2030.5,965.578776043255
2030.75,971.805191928232
2031,981.026020976688
2031.25,991.732949675794
2031.5,1002.40654772888
2031.75,1011.61165424828
2032,1018.4600429086
2032.25,1022.2817954776
2032.5,1022.40756342302
2032.75,1018.39157228602
2033,1011.31337894915
2033.25,1002.88947655072
2033.5,994.83848702485
2033.75,988.722575134251
2034,984.682641262491
2034.25,982.101771518504
2034.5,980.355969684352
2034.75,978.870834742922
2035,977.482169578336
2035.25,976.228225613932
2035.5,975.148682802293
2035.75,974.258974589309
2036,973.419381053869
2036.25,972.429049203663
2036.5,971.086978143405
2036.75,969.343542645698
2037,967.862070250417
2037.25,967.515591713571
2037.5,969.17708767919
2037.75,973.319301086331
2038,979.08386439438
2038.25,985.336035274626
2038.5,990.941527625851
2038.75,994.882671226591
2039,996.412505676859
2039.25,994.822388032304
2039.5,989.409191793564
2039.75,980.328104888363
2040,969.515286458606
2040.25,959.128379887204
2040.5,951.314385079358
2040.75,947.075118490163
2041,945.261165548142
2041.25,944.485826160968
2041.5,943.39391601466
2041.75,941.557175701638
2042,939.602722984051
2042.25,938.215017575528
2042.5,938.010118721404
2042.75,938.830869436214
2043,940.031487323441
2043.25,940.9584934791
2043.5,941.206611253495
2043.75,941.6241168311
2044,943.454125225412
2044.25,947.93819897922
2044.5,955.662836483534
2044.75,965.571704941515
2045,976.355067113803
2045.25,986.703771192144
2045.5,995.335904904525
2045.75,1001.00777650983
2046,1002.4785551826
2046.25,998.563607133022
2046.5,989.833562950912
2046.75,978.917892257673
2047,968.563461388613
2047.25,961.459745909101
2047.5,958.46596135529
2047.75,958.272673915146
2048,959.444769976592
2048.25,960.601435118863
2048.5,961.245319975458
2048.75,961.597408075109
2049,961.899511804878
2049.25,962.352424371771
2049.5,962.786887346938
2049.75,962.837435835476
2050,962.136806362098
2050.25,960.50610769664
2050.5,958.812352359706
2050.75,958.283471656598
2051,960.147696898251
2051.25,965.07905778248
2051.5,971.805801202504
2051.75,978.62937661482
2052,983.853511006278
2052.25,986.242854029384
2052.5,985.579875838214
2052.75,981.783142666538
2053,974.777989020287
2053.25,965.155991408467
2053.5,954.727720087552
2053.75,945.433877570056
2054,939.186958302079
2054.25,936.52751893792
2054.5,936.035918883769
2054.75,936.141941602434
2055,935.367277609112
2055.25,933.60844566879
2055.5,931.820119025859
2055.75,930.984179300741
2056,931.8783887362
2056.25,934.017103657395
2056.5,936.431885733441
2056.75,938.154057278098
2057,938.668175029945
2057.25,938.684759493539
2057.5,939.119582537677
2057.75,940.878171113862
2058,944.417588318883
2058.25,949.581502443617
2058.5,956.169333116405
2058.75,963.904187420278
2059,971.455376482657
2059.25,976.723803623119
2059.5,977.592928028362
2059.75,972.358427877446
2060,962.516870482936
2060.25,951.062169097709
2060.5,940.996752577326
2060.75,934.85501495229
2061,932.453474685773
2061.25,932.630072384051
2061.5,934.221678177499
2061.75,936.262183162219
2062,938.34267049227
2062.25,940.152032188365
2062.5,941.385307996835
2062.75,942.005597787815
2063,942.34203727522
2063.25,942.750103096818
2063.5,943.580795908717
2063.75,945.122499086682
2064,947.617528451917
2064.25,951.307131847453
2064.5,956.362683222273
2064.75,962.508163285491
2065,969.291174670167
2065.25,976.258885172342
2065.5,982.815739501257
2065.75,987.855860394431
2066,990.159356373476
2066.25,988.50761004858
2066.5,982.455637958078
2066.75,973.643492170883
2067,964.058947402117
2067.25,955.687554347412
2067.5,949.87639038014
2067.75,946.455682820856
2068,945.035301994471
2068.25,945.222942188865
2068.5,946.509996383701
2068.75,948.215344771721
2069,949.643898431301
2069.25,950.138839856544
2069.5,949.690123114304
2069.75,948.826446306534
2070,948.092946988828
2070.25,948.022135915606
2070.5,949.043688572755
2070.75,951.537183498845
2071,955.881863185129
2071.25,962.193740293957
2071.5,969.464751080672
2071.75,976.386837464882
2072,981.652547582663
2072.25,984.206861377771
2072.5,983.635703271761
2072.75,979.625209155712
2073,971.867053443077
2073.25,960.873685328292
2073.5,948.839833590395
2073.75,938.166418507816
2074,931.229761160061
2074.25,928.943529505776
2074.5,929.96189310029
2074.75,932.745543223246
2075,935.807265477803
2075.25,938.431005921942
2075.5,940.49012226732
2075.75,941.872891658437
2076,942.50776517484
2076.25,942.563779198288
2076.5,942.299130603125
2076.75,941.972226762357
2077,941.930044122684
2077.25,942.783528636856
2077.5,945.192584532051
2077.75,949.806335365754
2078,956.616490887451
2078.25,964.589642655247
2078.5,972.603480028283
2078.75,979.537849036393
2079,984.314133412029
2079.25,985.891213686912
2079.5,983.229316228089
2079.75,975.462597290496
2080,963.9955148708
2080.25,951.824505444112
2080.5,941.9788902837
2080.75,937.18107900266
2081,937.108973985063
2081.25,939.699233298609
2081.5,942.868046357966
2081.75,944.867578710557
2082,945.504225162992
2082.25,945.033496445979
2082.5,943.711286659402
2082.75,941.888057763164
2083,940.137661113779
2083.25,939.066193586893
2083.5,939.269489153377
2083.75,940.953336006776
2084,943.821942504782
2084.25,947.546504056143
2084.5,951.798513592537
2084.75,956.253168361021
2085,960.588177533556
2085.25,964.481297988662
2085.5,967.554623559912
2085.75,969.08130351157
2086,968.199566115513
2086.25,964.047348562056
2086.5,956.283239617968
2086.75,946.697575398362
2087,937.626202613862
2087.25,931.403282003286
2087.5,929.393713259462
2087.75,930.370985584695
2088,932.680119639699
2088.25,934.689940059198
2088.5,935.649932686184
2088.75,935.928375235224
2089,935.965832331116
2089.25,936.174834684396
2089.5,936.64893850223
2089.75,937.279148804195
2090,937.953237330762
2090.25,938.635928822879
2090.5,939.673383401446
2090.75,941.52972676463
2091,944.668117050259
2091.25,949.260348993552
2091.5,954.784333754347
2091.75,960.616906868172
2092,966.12921555826
2092.25,970.472541322558
2092.5,972.513283369265
2092.75,971.098875104617
2093,965.179635633027
2093.25,955.637455942372
2093.5,945.071278024848
2093.75,936.13983890641
2094,931.27740008156
2094.25,930.332821754386
2094.5,931.498348603063
2094.75,932.939122083605
2095,933.170732735317
2095.25,932.421702651035
2095.5,931.443098697997
2095.75,930.984762025625
2096,931.514958101086
2096.25,932.876315201058
2096.5,934.827209565697
2096.75,937.13825891261
2097,939.89361723313
2097.25,943.509844492087
2097.5,948.419520112879
2097.75,954.956487800478
2098,962.546920634196
2098.25,970.128340452879
2098.5,976.633549884106
2098.75,981.092990846516
2099,983.013632675148
2099.25,982.047599888022
2099.5,977.847058930273
2099.75,970.509034415589
2100,961.776663294601
2100.25,953.773743089974
2100.5,948.623068311771
2100.75,947.517913052411
2101,949.001017404257
2101.25,951.14578189961
2101.5,952.041618226446
2101.75,950.851935644609
2102,948.473495883457
2102.25,945.960489726309
2102.5,944.336338622012
2102.75,943.950045527036
2103,944.494179489308
2103.25,945.634137962806
2103.5,947.089695295614
2103.75,949.086026445495
2104,952.12280707637
2104.25,956.702443865072
2104.5,963.063864520206
2104.75,970.20868218404
2105,976.775623182022
2105.25,981.403776609036
2105.5,983.073551448439
2105.75,981.72562437809
2106,977.468310678897
2106.25,970.41183309543
2106.5,961.098524838907
2106.75,951.048801099956
2107,941.917613107791
2107.25,935.346507562615
2107.5,931.996281504137
2107.75,930.896343886672
2108,930.921912897524
2108.25,930.984508997561
2108.5,930.637592162863
2108.75,929.984728517978
2109,929.147282452932
2109.25,928.264762241345
2109.5,927.596574528189
2109.75,927.450772414792
2110,928.135409025573
2110.25,929.84427575878
2110.5,932.450287141972
2110.75,935.770448838159
2111,939.62433848721
2111.25,943.927232956633
2111.5,948.716301387449
2111.75,954.03661980974
2112,959.847918085059
2112.25,965.076898715442
2112.5,967.963856477964
2112.75,966.736715932968
2113,960.073231743201
2113.25,949.656656436102
2113.5,938.40187796291
2113.75,929.227508410033
2114,924.396383923777
2114.25,923.282626921568
2114.5,924.465190096633
2114.75,926.526621005588
2115,928.478824348951
2115.25,930.163034147102
2115.5,931.515137648356
2115.75,932.476928178527
2116,933.099649471759
2116.25,933.531077145942
2116.5,933.922296408176
2116.75,934.446254463767
2117,935.4273721266
2117.25,937.25420092891
2117.5,940.315415285561
2117.75,944.772357340545
2118,950.079148689753
2118.25,955.552781279793
2118.5,960.509102444318
2118.75,964.190695802454
2119,965.723867125796
2119.25,964.224595099255
2119.5,958.867465404831
2119.75,950.249935618272
2120,940.435240283761
2120.25,931.55380433169
2120.5,925.594422777456
2120.75,922.734315304569
2121,921.898434157199
2121.25,921.986766210899
2121.5,922.030770527351
2121.75,921.721244021296
2122,920.95523677156
2122.25,919.631108365973
2122.5,917.818462983622
2122.75,915.9316222241
2123,914.426261365159
2123.25,913.751253871113
2123.5,914.234167303004
2123.75,916.098067700288
2124,919.562603608554
2124.25,924.745700648049
2124.5,931.217144506433
2124.75,938.362908392397
2125,945.567327749402
2125.25,951.968120445303
2125.5,956.184592485874
2125.75,956.770586521925
2126,952.344120959879
2126.25,943.458983214895
2126.5,932.900892767588
2126.75,923.579354044141
2127,918.219000083674
2127.25,917.040407330537
2127.5,918.462384191207
2127.75,920.86411285357
2128,922.858344358885
2128.25,924.170976578852
2128.5,924.859155941888
2128.75,924.980133964598
2129,924.596737103708
2129.25,923.782388739685
2129.5,922.611698215994
2129.75,921.188308099445
2130,920.131767645559
2130.25,920.505065267622
2130.5,923.385624920772
2130.75,929.5525258969
2131,938.016029381481
2131.25,947.13699835518
2131.5,955.2765836893
2131.75,961.183033440626
2132,964.533384573206
2132.25,965.141100348518
2132.5,962.830902083599
2132.75,957.99568819124
2133,951.85231705401
2133.25,945.68228753957
2133.5,940.726521038293
2133.75,937.303373462856
2134,934.814549874081
2134.25,932.622360796083
2134.5,930.171240571451
2134.75,927.668644478517
2135,925.736333037153
2135.25,925.000184766501
2135.5,925.78778832216
2135.75,927.243247119634
2136,928.21719224019
2136.25,927.573565011381
2136.5,925.18288595555
2136.75,922.608897245298
2137,921.577734022781
2137.25,923.712299437206
2137.5,929.034147893845
2137.75,936.302458191093
2138,944.242176326333
2138.25,951.622459927332
2138.5,957.449360693092
2138.75,960.807939917215
2139,960.784049217704
2139.25,957.017997022208
2139.5,950.689904465824
2139.75,943.245035813503
2140,936.123521106957
2140.25,930.292788698933
2140.5,925.87289676519
2140.75,922.895735933838
2141,921.376520655163
2141.25,920.992182962616
2141.5,921.104760668327
2141.75,921.064300573584
2142,920.331013891386
2142.25,919.083261734899
2142.5,917.787202915259
2142.75,916.909539587527
2143,916.82580746936
2143.25,917.680966615221
2143.5,919.584080386777
2143.75,922.636202254214
2144,926.74318072221
2144.25,931.609358669345
2144.5,936.929808551994
2144.75,942.365495512266
2145,947.328479045135
2145.25,951.120486376601
2145.5,953.04277929916
2145.75,952.637539921562
2146,950.271634194782
2146.25,946.488239709692
2146.5,941.830689182877
2146.75,936.863047882329
2147,932.190747914018
2147.25,928.424131541104
2147.5,926.152155739138
2147.75,925.390222690473
2148,925.530750950153
2148.25,925.93486683605
2148.5,926.026346490828
2148.75,925.755661581055
2149,925.336792842978
2149.25,924.985680633171
2149.5,924.924887485056
2149.75,925.399342937741
2150,926.658694044071
2150.25,928.949514523396
2150.5,932.361555707566
2150.75,936.756149907672
2151,941.976598891621
2151.25,947.826854694422
2151.5,953.615148900601
2151.75,958.31072534519
2152,960.876250930148
2152.25,960.464012727804
2152.5,957.354524395304
2152.75,952.243895790053
2153,945.82888774397
2153.25,938.825895829043
2153.5,932.024169786941
2153.75,926.229853190682
2154,922.245552428016
2154.25,920.405961947071
2154.5,920.114721997484
2154.75,920.665321311457
2155,921.362711557536
2155.25,921.723184638001
2155.5,921.448845801661
2155.75,920.248131321613
2156,917.972912083576
2156.25,915.33777857941
2156.5,913.378344976175
2156.75,913.128647649349
2157,915.079016473364
2157.25,918.456408882593
2157.5,922.308763631605
2157.75,925.712813094499
2158,928.313500009911
2158.25,930.276175848783
2158.5,931.785402225325
2158.75,932.925965429816
2159,933.128582068678
2159.25,931.560515921042
2159.5,927.388933131169
2159.75,920.423417039936
2160,912.327888092336
2160.25,905.098863010548
2160.5,900.6959450948
2160.75,899.627002737219
2161,900.504315838761
2161.25,901.812495062543
2161.5,902.196416321003
2161.75,901.52355501534
2162,900.22464734398
2162.25,898.732898137372
2162.5,897.338258267125
2162.75,895.994721078195
2163,894.608177584178
2163.25,893.116365154267
2163.5,891.960177099779
2163.75,891.981931009715
2164,894.035118114193
2164.25,898.617238062379
2164.5,904.846057234737
2164.75,911.505125541599
2165,917.38381155512
2165.25,921.457459524186
2165.5,922.922010062345
2165.75,920.986209904867
2166,915.101985369405
2166.25,906.671652294368
2166.5,898.035437063282
2166.75,891.538980053302
2167,888.667550799876
2167.25,888.311320178103
2167.5,888.873118016547
2167.75,888.808116337588
2168,887.635439773103
2168.25,885.865791219833
2168.5,884.047718375824
2168.75,882.637550951211
2169,881.689342033399
2169.25,881.147481729099
2169.5,880.958270006916
2169.75,881.12893058857
2170,881.738839695022
2170.25,882.871551748247
2170.5,884.650911963224
2170.75,887.411283277883
2171,891.555557531112
2171.25,897.463827447044
2171.5,904.510461963906
2171.75,910.690695811062
2172,913.899903588174
2172.25,912.378856903199
2172.5,906.924420979643
2172.75,899.48043913878
2173,891.995294526396
2173.25,885.967789352914
2173.5,881.719896861494
2173.75,879.383399325962
2174,879.058459672172
2174.25,880.315005652995
2174.5,882.283450514327
2174.75,884.080962771316
2175,885.026134907793
2175.25,885.119149501119
2175.5,884.504216705092
2175.75,883.338855176428
2176,882.059666745877
2176.25,881.36810655312
2176.5,881.976089824053
2176.75,884.396136470447
2177,888.30440341827
2177.25,893.15779459084
2177.5,898.414341302632
2177.75,903.564240282207
2178,908.133740663887
2178.25,911.651000373227
2178.5,913.640678792879
2178.75,913.606841349025
2179,911.046043271364
2179.25,905.460062331815
2179.5,897.178661128991
2179.75,888.256787238013
2180,880.964987371422
2180.25,877.43068018709
2180.5,877.611010173416
2180.75,879.777662877172
2181,882.158293743154
2181.25,883.430225209497
2181.5,883.684557508668
2181.75,883.289526972806
2182,882.603568588493
2182.25,881.807153335886
2182.5,880.925739334519
2182.75,879.979601578406
2183,879.051193142299
2183.25,878.45649989395
2183.5,878.566324965098
2183.75,879.74109672839
2184,882.103873006667
2184.25,885.541032845309
2184.5,889.92871888546
2184.75,894.962815846944
2185,899.58551689174
2185.25,902.542060854441
2185.5,902.61077804231
2185.75,899.682841200499
2186,895.001932875123
2186.25,889.893333515468
2186.5,885.556721351871
2186.75,882.302624699238
2187,880.05786464663
2187.25,878.747726506164
2187.5,878.295076383045
2187.75,878.618178715578
2188,879.634782502696
2188.25,881.212995594282
2188.5,882.776698600099
2188.75,883.515781137623
2189,882.622070734103
2189.25,879.945442934456
2189.5,876.717228801454
2189.75,874.342935782019
2190,874.120505705201
2190.25,876.19742887201
2190.5,880.02384844382
2190.75,885.040275837718
2191,890.717240237982
2191.25,896.593371228693
2191.5,902.216690025293
2191.75,907.122033998789
2192,910.6861559863
2192.25,912.181481266097
2192.5,910.8786183778
2192.75,906.499442616366
2193,900.356200466553
2193.25,894.111308658073
2193.5,889.403767162456
2193.75,886.953655956797
2194,886.282350027796
2194.25,886.830608412487
2194.5,888.036344012242
2194.75,889.318619737698
2195,890.088834950935
2195.25,889.764243998828
2195.5,888.270087284203
2195.75,886.424330178133
2196,885.135517546904
2196.25,885.230093126203
2196.5,886.761707130874
2196.75,889.36000343439
2197,892.650849193178
2197.25,896.407903083812
2197.5,900.746951709626
2197.75,905.832056265401
2198,911.75277156723
2198.25,917.563586508394
2198.5,921.561118166672
2198.75,922.024610114794
2199,917.893798038015
2199.25,910.854464713305
2199.5,903.305941240389
2199.75,897.631203444536
2200,894.93992452867
2200.25,894.179033651454
2200.5,894.085410586504
2200.75,893.4972188165
2201,892.286029597976
2201.25,890.927559965388
2201.5,889.90472920073
2201.75,889.428516963963
2202,888.963976777818
2202.25,887.849400773917
2202.5,885.484925259251
2202.75,882.326112576184
2203,879.713112701916
2203.25,879.013414573964
2203.5,881.148150604121
2203.75,885.355526603898
2204,890.477186496092
2204.25,895.384005502181
2204.5,899.60723099386
2204.75,903.331912291017
2205,906.771015930559
2205.25,909.925398811035
2205.5,911.754758687899
2205.75,910.899856487841
2206,906.022381069278
2206.25,897.357329516123
2206.5,887.77745210017
2206.75,880.407385420616
2207,878.069115345812
2207.25,880.135930198946
2207.5,883.788769101662
2207.75,886.176409877929
2208,885.626090205449
2208.25,883.440417675163
2208.5,881.384336984131
2208.75,881.09684946969
2209,882.422175038615
2209.25,883.867395642017
2209.5,883.908079200087
2209.75,881.775255440888
2210,879.021431238192
2210.25,877.643563841353
2210.5,879.538687907117
2210.75,884.78778020217
2211,891.889030479475
2211.25,899.287647340503
2211.5,905.606118568198
2211.75,910.094541003838
2212,912.141831744853
2212.25,911.163683495301
2212.5,907.385914655785
2212.75,901.969833091538
2213,896.128757849895
2213.25,890.983903928999
2213.5,886.969217277472
2213.75,884.208020998934
2214,882.821046399295
2214.25,882.744793871543
2214.5,883.523927559659
2214.75,884.652948082621
2215,885.662274881532
2215.25,886.472930533505
2215.5,887.245704874529
2215.75,888.144636870579
2216,889.221406755304
2216.25,890.234982090245
2216.5,890.89726775441
2216.75,890.973723304139
2217,891.05219163517
2217.25,892.364527929263
2217.5,896.159782559464
2217.75,903.035919932478
2218,911.207666402396
2218.25,918.34459511937
2218.5,922.167084947034
2218.75,921.925997947829
2219,918.635694828864
2219.25,913.408238697015
2219.5,907.333671189139
2219.75,901.317755054805
2220,896.174412672646
2220.25,892.716628715517
2220.5,891.510975892848
2220.75,892.421085514771
2221,895.186061269875
2221.25,899.534871135331
2221.5,905.003690427776
2221.75,910.955956011389
2222,916.748995054959
2222.25,921.843033673792
2222.5,926.17059338574
2222.75,929.799617720779
2223,932.798405953111
2223.25,935.265104962025
2223.5,937.350361571543
2223.75,939.210155454104
2224,941.019852260266
2224.25,943.298600707931
2224.5,946.860672554518
2224.75,952.529922415024
2225,960.780129856331
2225.25,969.48589302759
2225.5,975.352173259005
2225.75,975.0783137733
2226,966.640840391226
2226.25,953.397252523495
2226.5,940.121941915093
2226.75,931.588542913725
2227,930.86577933901
2227.25,935.694444375852
2227.5,942.777422871839
2227.75,948.846246277764
2228,952.111326833446
2228.25,952.947102878316
2228.5,951.899944216979
2228.75,949.525578214964
2229,946.539776430079
2229.25,943.792633124473
2229.5,942.138406270718
2229.75,942.318327931867
2230,944.132041114019
2230.25,946.911676820145
2230.5,949.985990046495
2230.75,952.782480942339
2231,955.129208523431
2231.25,956.955785724475
2231.5,958.190950505714
2231.75,958.566732845731
2232,957.370643416599
2232.25,953.829162942277
2232.5,947.191700716074
2232.75,937.825502657015
2233,927.696507462191
2233.25,918.893629661777
2233.5,913.388959245965
2233.75,911.12818145308
2234,910.341172449334
2234.25,909.203642540521
2234.5,906.28551347116
2234.75,902.290048373582
2235,898.638845106471
2235.25,896.746353709655
2235.5,897.213160181404
2235.75,899.118445971655
2236,901.374586337758
2236.25,902.974251697805
2236.5,903.812413734343
2236.75,904.351725275521
2237,905.063651717696
2237.25,906.341616254052
2237.5,908.324377436166
2237.75,911.098833526485
2238,914.728970123978
2238.25,918.597852979062
2238.5,921.309237496126
2238.75,921.424175883247
2239,917.762616968824
2239.25,911.080039400414
2239.5,903.008164673916
2239.75,895.182570786342
2240,888.789260584219
2240.25,883.726425370376
2240.5,879.663123546337
2240.75,876.272344953536
2241,873.306402589481
2241.25,870.59121603524
2241.5,867.95549143634
2241.75,865.326820399236
2242,863.008922736279
2242.25,861.394932876006
2242.5,860.853397524108
2242.75,861.29084390681
2243,862.202870915714
2243.25,863.070779204019
2243.5,863.411044226325
2243.75,862.844350152425
2244,861.01058843347
2244.25,857.601781334259
2244.5,852.95624083791
2244.75,847.849193697041
2245,843.06221015216
2245.25,839.019650038193
2245.5,835.369224501606
2245.75,831.656640016507
2246,827.590013998784
2246.25,823.957115606912
2246.5,821.986128815988
2246.75,822.843587808166
2247,826.310548991577
2247.25,830.816364274725
2247.5,834.738763833608
2247.75,837.203202795515
2248,838.905962365371
2248.25,840.741540695186
2248.5,843.44233054852
2248.75,846.824660611999
2249,850.383405406591
2249.25,853.629343190785
2249.5,856.41141660686
2249.75,858.898043457355
2250,861.270200705142
2250.25,863.753977185614
2250.5,866.704175584932
2250.75,870.498404799328
2251,875.439971223337
2251.25,880.978833855682
2251.5,886.01931237469
2251.75,889.458647005178
2252,890.678117062492
2252.25,890.194645574285
2252.5,888.687834198419
2252.75,886.8216254259
2253,885.048386213272
2253.25,883.668507845725
2253.5,882.979033553212
2253.75,883.218537556247
2254,884.438258517932
2254.25,886.65199318323
2254.5,889.845793295831
2254.75,893.478890639075
2255,896.538992611319
2255.25,897.997163370597
2255.5,897.221779943039
2255.75,895.215915689714
2256,893.403002268815
2256.25,893.184860618078
2256.5,895.116800091431
2256.75,898.650775366138
2257,903.164628074551
2257.25,908.06889622416
2257.5,912.995976749077
2257.75,917.670456929056
2258,921.81661935725
2258.25,925.046733684193
2258.5,926.730697666878
2258.75,926.206752726141
2259,922.866637827223
2259.25,917.189132508215
2259.5,910.665895740524
2259.75,904.827228592331
2260,900.991485046027
2260.25,899.040519122986
2260.5,898.259883687013
2260.75,897.934080104384
2261,897.509908103089
2261.25,896.784989566495
2261.5,895.60271351264
2261.75,893.840810133246
2262,891.853278307044
2262.25,890.342433676461
2262.5,890.018541492539
2262.75,891.349830143442
2263,893.944550631272
2263.25,897.220040217655
2263.5,900.60701757024
2263.75,903.875458850001
2264,907.153070013276
2264.25,910.584636138586
2264.5,914.224294745685
2264.75,917.610964000066
2265,920.10177546516
2265.25,921.056520491131
2265.5,920.219110841427
2265.75,918.100464328904
2266,915.302624292184
2266.25,912.429292077161
2266.5,910.113872427114
2266.75,909.015430178172
2267,909.793874081405
2267.25,912.828862806776
2267.5,916.98498991197
2267.75,920.617200744415
2268,922.089183354817
2268.25,920.764002536577
2268.5,917.891723504545
2268.75,914.931873037518
2269,913.283889477453
2269.25,913.341973385868
2269.5,914.66834055217
2269.75,916.80015808087
2270,919.351545524068
2270.25,922.33242442234
2270.5,925.879613364702
2270.75,930.126919642942
2271,934.831713412588
2271.25,939.017543820172
2271.5,941.623267233204
2271.75,941.636665489717
2272,939.014877640555
2272.25,934.604954013134
2272.5,929.286944787608
2272.75,923.901846768855
2273,918.967124932621
2273.25,914.840355664023
2273.5,911.877967951796
2273.75,910.332159644186
2274,910.099343981704
2274.25,911.000086895684
2274.5,912.850466301479
2274.75,915.29727011049
2275,917.77032408612
2275.25,919.685247181332
2275.5,920.547681162138
2275.75,920.628111125557
2276,920.583051430216
2276.25,921.071912045118
2276.5,922.566558086956
2276.75,924.943279768166
2277,927.960413799137
2277.25,931.375680544774
2277.5,934.921893781031
2277.75,938.298954479834
2278,941.204506926368
2278.25,943.331749227512
2278.5,944.323476423168
2278.75,943.790564822347
2279,941.343385046899
2279.25,936.775811645625
2279.5,930.857003101956
2279.75,924.678862377898
2280,919.332622897918
2280.25,915.456152092892
2280.5,912.494312470531
2280.75,909.698060594517
2281,906.350838194345
2281.25,902.635603889862
2281.5,899.728622829962
2281.75,898.857461119727
2282,900.941922556486
2282.25,904.834982836086
2282.5,908.538726925371
2282.75,910.062266058215
2283,908.789889149932
2283.25,906.89523506564
2283.5,906.889610731305
2283.75,911.098167461534
2284,918.997390728327
2284.25,927.838063783519
2284.5,934.811790380687
2284.75,937.681042745436
2285,936.764082324971
2285.25,933.094124394013
2285.5,927.70393901587
2285.75,921.548843676894
2286,915.421908297175
2286.25,910.095798114354
2286.5,906.318010411352
2286.75,904.275052147142
2287,903.602193134039
2287.25,903.911486053249
2287.5,904.826389286357
2287.75,906.036998693414
2288,907.257540994227
2288.25,908.202428288637
2288.5,908.602927950715
2288.75,908.222248159198
2289,906.827158364179
2289.25,904.249370729918
2289.5,901.195273765859
2289.75,898.998157842886
2290,899.004971439197
2290.25,902.021367716487
2290.5,906.708524540735
2290.75,911.196628038238
2291,913.644017462619
2291.25,913.257582548082
2291.5,910.580341384708
2291.75,906.242041949266
2292,900.868477176584
2292.25,895.051634522791
2292.5,889.366353761499
2292.75,884.387031954651
2293,880.507952562594
2293.25,877.640748894663
2293.5,875.61705629801
2293.75,874.265456775141
2294,873.36805434652
2294.25,872.67076532237
2294.5,871.918622832852
2294.75,870.963570691555
2295,869.979159248639
2295.25,869.1991662146
2295.5,868.849817340361
2295.75,869.047804757637
2296,869.827239686569
2296.25,871.220218997167
2296.5,873.266290082112
2296.75,876.02517026698
2297,879.559956758095
2297.25,883.916581319441
2297.5,888.927390844065
2297.75,894.279963625483
2298,899.658839583027
2298.25,904.533400867818
2298.5,907.777322101216
2298.75,908.162033735383
2299,904.555531642246
2299.25,897.776669104472
2299.5,890.455923803576
2299.75,885.292444369503
2300,884.40019973223
2300.25,886.732851864133
2300.5,890.182022139684
2300.75,892.661134531775
2301,893.206722278069
2301.25,892.474222529304
2301.5,891.244998178774
2301.75,890.21607345884
2302,889.446404227491
2302.25,888.703085562057
2302.5,887.754885832444
2302.75,886.850306347472
2303,887.225522718502
2303.25,890.238409113051
2303.5,897.045811199111
2303.75,906.552872218722
2304,916.251507400133
2304.25,923.6125864139
2304.5,926.940609968945
2304.75,926.952216642554
2305,924.797796285009
2305.25,921.618654075307
2305.5,918.236351138531
2305.75,915.075452783879
2306,912.535762124141
2306.25,910.960550646818
2306.5,910.158364154515
2306.75,909.64321334474
2307,908.926112687342
2307.25,907.715914074862
2307.5,906.349597420035
2307.75,905.288516358846
2308,904.980527015488
2308.25,905.457842715396
2308.5,906.268525352902
2308.75,906.933337522797
2309,907.058489099978
2309.25,906.839500588721
2309.5,906.72036968315
2309.75,907.145069207241
2310,908.351293728194
2310.25,910.108439511468
2310.5,912.121270039211
2310.75,914.091649200317
2311,915.671611697409
2311.25,916.471245986622
2311.5,916.099332190507
2311.75,914.217535789534
2312,910.761586112091
2312.25,905.755721166778
2312.5,899.227736029698
2312.75,891.629778439732
2313,884.2377583971
2313.25,878.422176000021
2313.5,875.429091161648
2313.75,874.94551851403
2314,875.596542860709
2314.25,875.987894901805
2314.5,875.302333296806
2314.75,874.256246384117
2315,873.817986017687
2315.25,874.874652869123
2315.5,877.24949480789
2315.75,880.018145343241
2316,882.241613272827
2316.25,883.476484242292
2316.5,884.595613635653
2316.75,886.687954534172
2317,890.759037632078
2317.25,896.617819822175
2317.5,903.177865571962
2317.75,909.331165852679
2318,914.089427937207
2318.25,916.865946602613
2318.5,917.158128768084
2318.75,914.490818703215
2319,909.323698883503
2319.25,903.259664528556
2319.5,897.971252812839
2319.75,894.961152937714
2320,894.297867787923
2320.25,895.329740066377
2320.5,897.399755924457
2320.75,899.873132906207
2321,902.168882033896
2321.25,903.713990408238
2321.5,903.978963017609
2321.75,903.130404081281
2322,901.894734566773
2322.25,901.014230568524
2322.5,901.104202039266
2322.75,902.220006510837
2323,904.262683028286
2323.25,907.132218676055
2323.5,910.677554715545
2323.75,914.674631384841
2324,918.893773812733
2324.25,923.054516252063
2324.5,926.418820048279
2324.75,928.006307616475
2325,926.834491571959
2325.25,922.49306311421
2325.5,916.485619668334
2325.75,910.715464881379
2326,907.062497471626
2326.25,906.173684083348
2326.5,906.877462802887
2326.75,907.856173853301
2327,907.906096744631
2327.25,906.920780785683
2327.5,905.406861271863
2327.75,903.877624557277
2328,902.767078244275
2328.25,902.265366306319
2328.5,902.515895889024
2328.75,903.653851348051
2329,905.598238894507
2329.25,908.03569444417
2329.5,910.641387395458
2329.75,913.164802367406
2330,915.809379102815
2330.25,918.949925740243
2330.5,922.95934890114
2330.75,927.826096945179
2331,932.719613556619
2331.25,936.704295996755
2331.5,938.872233006006
2331.75,938.874194958772
2332,936.879350328042
2332.25,933.076488211585
2332.5,927.735559441842
2332.75,921.773126650317
2333,916.414937998329
2333.25,912.888622606653
2333.5,911.986279857455
2333.75,912.995159695058
2334,914.877726098079
2334.25,916.611238560906
2334.5,917.758289373997
2334.75,918.647767631634
2335,919.660376100867
2335.25,921.119673485255
2335.5,922.822910489303
2335.75,924.283567046133
2336,925.012405333455
2336.25,924.804571854378
2336.5,924.425141792268
2336.75,924.8457913845
2337,927.02349250238
2337.25,931.148213695203
2337.5,936.282992371638
2337.75,941.400818504597
2338,945.489028243369
2338.25,947.712542045866
2338.5,947.356201974646
2338.75,943.70710355653
2339,936.407984926659
2339.25,927.161458453402
2339.5,918.409992882492
2339.75,912.596143149335
2340,911.164299948417
2340.25,912.642693357852
2340.5,915.029847584424
2340.75,916.368761765662
2341,915.986117552394
2341.25,914.656400140967
2341.5,913.231542886623
2341.75,912.457543225798
2342,912.271904792652
2342.25,912.239512337766
2342.5,911.924010622086
2342.75,911.30476908132
2343,911.466900005628
2343.25,913.677326927351
2343.5,919.133095552856
2343.75,927.348183067496
2344,936.110231930105
2344.25,943.128351784735
2344.5,946.390552855158
2344.75,945.779982994085
2345,941.968288452276
2345.25,935.629719972629
2345.5,927.606177049521
2345.75,919.316088005247
2346,912.301717005287
2346.25,908.092619155354
2346.5,907.285871250643
2346.75,908.925971307565
2347,911.910491273254
2347.25,915.159747077246
2347.5,917.854563067346
2347.75,919.342004491765
2348,918.971828779344
2348.25,916.490755630594
2348.5,913.145944392622
2348.75,910.539002342577
2349,910.252297697433
2349.25,912.790321768563
2349.5,917.029401742266
2349.75,921.710664843595
2350,925.701107322924
2350.25,929.153049295308
2350.5,932.970715429021
2350.75,938.067803949286
2351,944.810146643125
2351.25,951.444803078827
2351.5,955.70671422519
2351.75,955.346086257806
2352,949.799501179321
2352.25,941.69566632302
2352.5,934.018710665332
2352.75,929.68740010651
2353,929.541048529348
2353.25,931.957952090512
2353.5,935.174051111155
2353.75,937.540222584432
2354,938.546918638019
2354.25,938.336090586132
2354.5,937.057338790557
2354.75,934.908825836955
2355,932.302712136916
2355.25,929.710086634229
2355.5,927.602080543721
2355.75,926.4565753633
2356,926.765700802479
2356.25,929.023394492142
2356.5,933.690039863387
2356.75,940.48247926072
2357,948.389354085636
2357.25,956.368819986483
2357.5,963.396573635213
2357.75,968.584773472348
2358,971.109516120674
2358.25,970.147264292424
2358.5,965.275449815359
2358.75,957.92280560467
2359,950.052000513973
2359.25,943.62557157229
2359.5,940.013297499414
2359.75,938.674499619215
2360,938.684347338107
2360.25,939.121992031469
2360.5,939.383592052077
2360.75,939.407763318447
2361,939.186314090588
2361.25,938.71294190718
2361.5,938.017509975426
2361.75,937.162409367233
2362,936.211190308152
2362.25,935.257417072095
2362.5,934.627674355535
2362.75,934.757535854103
2363,936.083187404301
2363.25,938.919964573673
2363.5,943.155482866538
2363.75,948.582777022578
2364,954.990470123502
2364.25,961.817395507807
2364.5,967.904633655981
2364.75,972.03475191996
2365,973.034965660532
2365.25,970.834882857971
2365.5,966.510148172422
2365.75,961.189787210246
2366,955.978141603869
2366.25,951.600144732212
2366.5,948.483427013053
2366.75,947.047662676963
2367,947.609774586959
2367.25,949.614031607333
2367.5,952.064398834447
2367.75,953.961463250876
2368,954.536269625375
2368.25,954.030075005236
2368.5,952.960862867293
2368.75,951.846578278791
2369,951.186044915617
2369.25,951.429437115071
2369.5,953.019306033757
2369.75,956.388327643066
2370,961.426375297926
2370.25,967.20938012644
2370.5,972.746364243915
2370.75,977.070064672268
2371,979.697689975751
2371.25,980.599289006736
2371.5,979.762290231026
2371.75,977.202125390696
2372,973.312939297264
2372.25,968.761083687193
2372.5,964.218881540697
2372.75,960.301226196038
2373,957.050675939027
2373.25,954.181265372228
2373.5,951.40312344226
2373.75,948.532892061735
2374,946.042252619291
2374.25,944.651715962247
2374.5,945.082210601207
2374.75,947.602822468495
2375,950.946593284916
2375.25,953.520458330314
2375.5,953.742963734173
2375.75,951.148201575522
2376,947.296379630688
2376.25,943.962021266603
2376.5,942.877761031704
2376.75,944.596300659996
2377,948.355910574595
2377.25,953.325974383152
2377.5,958.654402359814
2377.75,963.256843731302
2378,965.906956111982
2378.25,965.376359692654
2378.5,960.832160666264
2378.75,953.809489081975
2379,946.720928911439
2379.25,941.980495454431
2379.5,940.958437086893
2379.75,940.936936272025
2380,938.197458069175
2380.25,938.409365961346
2380.5,938.621273853517
2380.75,938.833181745688
2381,939.045089637859
2381.25,939.25699753003
2381.5,939.468905422201
2381.75,939.680813314372
2382,939.892721206543
2382.25,940.104629098714
2382.5,940.316536990885
2382.75,940.528444883057
2383,940.740352775228
2383.25,940.952260667399
2383.5,941.16416855957
2383.75,941.376076451741
2384,941.587984343912
2384.25,941.799892236083
2384.5,942.011800128254
2384.75,942.223708020425
2385,942.435615912596
2385.25,942.647523804767
2385.5,942.859431696938
2385.75,943.071339589109
2386,943.283247481281
2386.25,943.495155373452
2386.5,943.707063265623
2386.75,943.918971157794
2387,944.130879049965
2387.25,944.342786942136
2387.5,944.554694834307
2387.75,944.766602726478
2388,944.978510618649
2388.25,945.19041851082
2388.5,945.402326402991
2388.75,945.614234295162
2389,945.826142187334
2389.25,946.038050079505
2389.5,946.249957971676
2389.75,946.461865863847
2390,946.673773756018
2390.25,946.885681648189
2390.5,947.09758954036
2390.75,947.309497432531
2391,947.521405324702
2391.25,947.733313216873
2391.5,947.945221109044
2391.75,948.157129001215
2392,948.369036893386
2392.25,948.580944785558
2392.5,948.792852677729
2392.75,944.022010436735
2393,942.247421989673
2393.25,942.108675606642
2393.5,942.1523361253
2393.75,941.070144212162
2394,938.947919218846
2394.25,936.648633764746
2394.5,935.043683027816
2394.75,934.73151437056
2395,935.053387990351
2395.25,934.988840020953
2395.5,933.521988253317
2395.75,930.46908305687
2396,927.435890003304
2396.25,926.260241156521
2396.5,928.696636480401
2396.75,934.361944669046
2397,940.604906099982
2397.25,944.664800909293
2397.5,944.131418302052
2397.75,939.45546064774
2398,932.483936146967
2398.25,925.073287943366
2398.5,918.800292678143
2398.75,914.087385166388
2399,911.059213206716
2399.25,909.835605238338
2399.5,910.130337506131
2399.75,910.949392276898
2400,911.227679378652
2400.25,909.992412690886
2400.5,907.412368704729
2400.75,904.426718134731
2401,901.989084356799
2401.25,900.781975593084
2401.5,900.422463954789
2401.75,900.265935507115
2402,899.683640160091
2402.25,898.67081407899
2402.5,898.037510149705
2402.75,898.648665085923
2403,901.166530321182
2403.25,904.746399639405
2403.5,907.864611303786
2403.75,908.998754352389
2404,907.559694930719
2404.25,905.027435029614
2404.5,903.159920818618
2404.75,903.605038463593
2405,906.122820034643
2405.25,908.885955027607
2405.5,910.017742167073
2405.75,908.175293031707
2406,904.463681995736
2406.25,900.689272741629
2406.5,898.642694122745
2406.75,899.02560861569
2407,900.765022564334
2407.25,902.624673140008
2407.5,903.487448258276
2407.75,903.38898613014
2408,903.011360719862
2408.25,903.043543563879
2408.5,903.905535059501
2408.75,905.233979664688
2409,906.523693918153
2409.25,907.293650302909
2409.5,907.631737945477
2409.75,908.202268171783
2410,909.695209444049
2410.25,912.657418307534
2410.5,916.779389867291
2410.75,921.434487366659
2411,925.99573946682
2411.25,929.863930929665
2411.5,932.497250100044
2411.75,933.360996416983
2412,931.961292607271
2412.25,928.632815361288
2412.5,924.481749810736
2412.75,920.643677068063
2413,918.114436044056
2413.25,916.841902455115
2413.5,916.298244972635
2413.75,915.953463187093
2414,915.462482995927
2414.25,915.005290925981
2414.5,914.854427964615
2414.75,915.279131951699
2415,916.45220617804
2415.25,918.437062246592
2415.5,921.291204266798
2415.75,925.19309440916
2416,931.238989453952
2416.25,940.946021460437
2416.5,955.832293460777
2416.75,975.951117760965
2417,997.053349676652
2417.25,1014.10392137723
2417.5,1022.10530326116
2417.75,1019.26549071739
2418,1009.40407677272
2418.25,996.907231978463
2418.5,986.153645081686
2418.75,980.017736639288
2419,978.05704974851
2419.25,979.386367138438
2419.5,983.118053727124
2419.75,988.078598754864
2420,992.542835151051
2420.25,994.722707644215
2420.5,992.852591551011
2420.75,986.602737894389
2421,977.922382702059
2421.25,968.963177861048
2421.5,961.853833204922
2421.75,957.486539003669
2422,954.913320381385
2422.25,953.036517552057
2422.5,950.779212974974
2422.75,947.558249378338
2423,943.293683126193
2423.25,937.928203714419
2423.5,931.467807257592
2423.75,924.607889117764
2424,918.467472365728
2424.25,914.171748525856
2424.5,912.400170962921
2424.75,911.703120721264
2425,909.996014136762
2425.25,905.214186713864
2425.5,897.047185745815
2425.75,888.280333357349
2426,882.014741793099
2426.25,881.037657052718
2426.5,884.359668311397
2426.75,888.492641468381
2427,889.906401433076
2427.25,886.589115727983
2427.5,880.623848739861
2427.75,874.777070957261
2428,871.670859652173
2428.25,871.522158600304
2428.5,872.5627843514
2428.75,872.965390754321
2429,871.503323003627
2429.25,868.834068756517
2429.5,865.983556499783
2429.75,863.937304466721
2430,863.050769899245
2430.25,863.181057615136
2430.5,864.171624036502
2430.75,865.843111642202
2431,867.954003114957
2431.25,870.252293174001
2431.5,872.491377009734
2431.75,874.485806958335
2432,876.088834191023
2432.25,877.154324290806
2432.5,877.536775956849
2432.75,877.092140572146
2433,875.676572449088
2433.25,873.221912082525
2433.5,870.492198334296
2433.75,868.766577879771
2434,869.328329651179
2434.25,872.512833088552
2434.5,876.432342604569
2434.75,878.880786369179
2435,877.93110251956
2435.25,874.473277200264
2435.5,871.030820758548
2435.75,870.142700486514
2436,873.247861552164
2436.25,879.264540867029
2436.5,886.75937085964
2436.75,894.336238085755
2437,900.969689757084
2437.25,905.846761758202
2437.5,908.158035047364
2437.75,907.517665592109
2438,904.614091096802
2438.25,900.303506586484
2438.5,895.447917408093
2438.75,891.02965107281
2439,888.144394229849
2439.25,887.892249693504
2439.5,890.93663460867
2439.75,895.791063446625
2440,900.308551526641
2440.25,902.378592076739
2440.5,901.508912655987
2440.75,899.428551051005
2441,898.027622778138
2441.25,898.902234359018
2441.5,901.262815641123
2441.75,903.161200474711
2442,902.645642934527
2442.25,898.913474298606
2442.5,893.879471176925
2442.75,889.851163243175
2443,889.044193307551
2443.25,892.105047498438
2443.5,898.364508569466
2443.75,907.112656431901
2444,917.435186149612
2444.25,927.628114808984
2444.5,935.796769556203
2444.75,940.077952245207
2445,939.958821215147
2445.25,936.757779448241
2445.5,931.923688791134
2445.75,926.877618034839
2446,922.667334588427
2446.25,920.073561507781
2446.5,919.871230523413
2446.75,922.444035917468
2447,926.110070069866
2447.25,928.50822266745
2447.5,927.287428409629
2447.75,921.687125241631
2448,914.228558016859
2448.25,907.83841081389
2448.5,905.326896543774
2448.75,907.018356576191
2449,910.853960561234
2449.25,914.678958408368
2449.5,916.689449901799
2449.75,917.024434832001
2450,916.491682253816
2450.25,915.897652631591
2450.5,915.769384794167
2450.75,916.064288282022
2451,916.670400718063
2451.25,917.457032521759
2451.5,917.975138342338
2451.75,917.509501084192
2452,915.336718226549
2452.25,911.009474827832
2452.5,905.570767327699
2452.75,900.564188345252
2453,897.526211938911
2453.25,896.998409133248
2453.5,897.540440229536
2453.75,897.477169225165
2454,895.28678304935
2454.25,891.349894041798
2454.5,887.334002882376
2454.75,884.930779321124
2455,885.207475516181
2455.25,887.149999272705
2455.5,889.311128623554
2455.75,890.316981398758
2456,890.324201662539
2456.25,890.937860469067
2456.5,893.819933172949
2456.75,900.047745921532
2457,908.071464912589
2457.25,915.603640507566
2457.5,920.39031035568
2457.75,921.600970459536
2458,920.326916754642
2458.25,917.795462774126
2458.5,915.173437256863
2458.75,913.023535890578
2459,911.561071178007
2459.25,910.997193330088
2459.5,911.386984894784
2459.75,912.234389554789
2460,912.921751343663
2460.25,912.842179927983
2460.5,911.81296291147
2460.75,910.205709303619
2461,908.429408096435
2461.25,906.853729047869
2461.5,905.501342281901
2461.75,904.214204853422
2462,902.832750958948
2462.25,901.227873580944
2462.5,899.357353587534
2462.75,897.194363828244
2463,894.731962860076
2463.25,892.416118050036
2463.5,891.143240214826
2463.75,891.829132801955
2464,895.038713067793
2464.25,899.541341939121
2464.5,903.533564290168
2464.75,905.233945952239
2465,904.047211109519
2465.25,901.135216133006
2465.5,897.801838013879
2465.75,895.259429360378
2466,893.869571813724
2466.25,893.531717052675
2466.5,894.140401333735
2466.75,895.428701145689
2467,896.705667308973
2467.25,897.211579499328
2467.5,896.237672111341
2467.75,893.948080804139
2468,891.240300447539
2468.25,889.034606507484
2468.5,888.058138944946
2468.75,888.214764036149
2469,889.189024797739
2469.25,890.663700863064
2469.5,892.261532634349
2469.75,893.531824478091
2470,894.019405857208
2470.25,893.446268275604
2470.5,892.607904810291
2470.75,892.702030130294
2471,894.914031507378
2471.25,899.307470781203
2471.5,903.977158683746
2471.75,906.818499908258
2472,905.965199300555
2472.25,901.916468211483
2472.5,896.525144514024
2472.75,891.659781110543
2473,888.699537710357
2473.25,887.49676667971
2473.5,887.606905718727
2473.75,888.587519914443
2474,890.041715704249
2474.25,891.61633429433
2474.5,892.959982775871
2474.75,893.811069926348
2475,894.308652575502
2475.25,894.703477916046
2475.5,895.24779190346
2475.75,896.254851074784
2476,898.118907181289
2476.25,901.23980369743
2476.5,905.89706142484
2476.75,911.514066608201
2477,917.14307270912
2477.25,921.83664586084
2477.5,925.012233891069
2477.75,926.892338955576
2478,927.807004187015
2478.25,928.117778428396
2478.5,928.846739352129
2478.75,931.642729505808
2479,938.179338528167
2479.25,949.632604274422
2479.5,963.597028984855
2479.75,976.098551325879
2480,983.156600180691
2480.25,982.175367282534
2480.5,975.351826781819
2480.75,965.919137990908
2481,957.109313836095
2481.25,951.149593058137
2481.5,947.421851558631
2481.75,944.80779226219
2482,942.195125686483
2482.25,938.999921515729
2482.5,935.571910066795
2482.75,932.356221009969
2483,929.781652804528
2483.25,927.922937281877
2483.5,926.512314149666
2483.75,925.268007607041
2484,923.940548304298
2484.25,922.527958292705
2484.5,921.142695182234
2484.75,919.897873856391
2485,918.97586041219
2485.25,918.771547185172
2485.5,919.720460095056
2485.75,922.234774967579
2486,925.865935905268
2486.25,929.073722744079
2486.5,930.247559292675
2486.75,928.061867055663
2487,923.887756689849
2487.25,920.582125820283
2487.5,921.017371719842
2487.75,927.281445623995
2488,938.374496865174
2488.25,952.537021450773
2488.5,968.015229683377
2488.75,983.429391193194
2489,997.998257838086
2489.25,1010.99431199813
2489.5,1021.73478358968
2489.75,1030.72935723868
2490,1039.77861030692
2490.25,1050.74759413625
2490.5,1065.42990764219
2490.75,1082.86972880244
2491,1098.55592233639
2491.25,1107.74137615118
2491.5,1105.68698765178
2491.75,1090.40264398371
2492,1066.65206201914
2492.25,1040.21740353556
2492.5,1016.8808303103
2492.75,1001.812913932
2493,994.642976686785
2493.25,992.051998754958
2493.5,990.693605308951
2493.75,987.496288076273
2494,982.326072957154
2494.25,976.828533611991
2494.5,972.674115100056
2494.75,971.343966412781
2495,972.558664511644
2495.25,975.082043856602
2495.5,977.668403130546
2495.75,979.253332912456
2496,979.943790031405
2496.25,980.312368918836
2496.5,980.932850655731
2496.75,982.267641972783
2497,984.23013149584
2497.25,986.564827189664
2497.5,989.016190673927
2497.75,991.198743318948
2498,992.217552138945
2498.25,991.052846326572
2498.5,986.684921218961
2498.75,978.678971644109
2499,968.609868366446
2499.25,958.483773594921
2499.5,950.306152680456
2499.75,945.228087495323
2500,941.88369955977
2500.25,938.445919392497
2500.5,933.102679152852
2500.75,925.211429597115
2501,916.11704895915
2501.25,907.357559103104
2501.5,900.41141262541
2501.75,895.703988380694
2502,892.758399565585
2502.25,891.068577772769
2502.5,890.230004206118
2502.75,890.319818323906
2503,891.557817387256
2503.25,894.157606535918
2503.5,898.059042127302
2503.75,902.8265510468
2504,907.997371733538
2504.25,913.051644868993
2504.5,917.057596659606
2504.75,918.902701494083
2505,917.476766246857
2505.25,912.644555628257
2505.5,906.6270810809
2505.75,901.994248322039
2506,901.200608727045
2506.25,904.044892624062
2506.5,907.668524454653
2506.75,909.097277350628
2507,906.0369602466
2507.25,899.917833225963
2507.5,893.438704211278
2507.75,889.286556747744
2508,888.733110404421
2508.25,890.37594078076
2508.5,892.515530874541
2508.75,893.572011488328
2509,893.200092741518
2509.25,891.782538929954
2509.5,889.71160536272
2509.75,887.441751304066
2510,885.597675853294
2510.25,884.832938829963
2510.5,885.75020893458
2510.75,888.086466122318
2511,890.854608869866
2511.25,893.045255063885
2511.5,893.908135687164
2511.75,893.64458543005
2512,892.674338199192
2512.25,891.412424252398
2512.5,890.139995380073
2512.75,888.988272698662
2513,888.080550323382
2513.25,887.480167320781
2513.5,886.914811601031
2513.75,885.995430893813
2514,884.340212537603
2514.25,881.99780455393
2514.5,879.677833652448
2514.75,878.146062346132
2515,878.038131039877
2515.25,879.018577094341
2515.5,880.312973275699
2515.75,881.1509071625
2516,881.302104207681
2516.25,881.489552553918
2516.5,882.533485499611
2516.75,885.150378295877
2517,889.186596522873
2517.25,894.054092928249
2517.5,899.161006618409
2517.75,903.823921473887
2518,907.17117089535
2518.25,908.307928042147
2518.5,906.442285898101
2518.75,902.115202428404
2519,896.797098069489
2519.25,891.977331545791
2519.5,888.802804143169
2519.75,887.07323142575
2520,886.257100264419
2520.25,885.828284127479
2520.5,885.430026128297
2520.75,884.904877914841
2521,884.106815284925
2521.25,882.929036951917
2521.5,881.480951843044
2521.75,879.946065960969
2522,878.508295097849
2522.25,877.368964716622
2522.5,876.754676223097
2522.75,876.894017130429
2523,877.952755040661
2523.25,879.69026619577
2523.5,881.704198575947
2523.75,883.593397378663
2524,885.052871123649
2524.25,885.92636016594
2524.5,886.070361516229
2524.75,885.391236702635
2525,884.161216636683
2525.25,882.81548063777
2525.5,881.787591323565
2525.75,881.247533115358
2526,880.865005115609
2526.25,880.253816390617
2526.5,879.107329028192
2526.75,877.85828633485
2527,877.341008205776
2527.25,878.389596439889
2527.5,881.054823719605
2527.75,883.690848869788
2528,884.429983609103
2528.25,881.675107000798
2528.5,876.634823098779
2528.75,872.178664931635
2529,871.193292924205
2529.25,874.922478240016
2529.5,880.538648193287
2529.75,884.594410776938
2530,884.01344436653
2530.25,879.846241106889
2530.5,875.719621211702
2530.75,875.29624297267
2531,880.388812597434
2531.25,887.902627498876
2531.5,893.938396765886
2531.75,894.897567761649
2532,891.050714137293
2532.25,885.35399100699
2532.5,880.81749521209
2532.75,879.596717723682
2533,880.984068612352
2533.25,883.673072405056
2533.5,886.390881010675
2533.75,888.523152744652
2534,890.055903847104
2534.25,890.997117076373
2534.5,891.318699841824
2534.75,890.846315645238
2535,889.368574864193
2535.25,886.693605602974
2535.5,883.26353374312
2535.75,880.278393147757
2536,878.982765285132
2536.25,880.288754225681
2536.5,883.195259459641
2536.75,886.018210503775
2537,887.101543897816
2537.25,886.193070495573
2537.5,885.046690650453
2537.75,885.570434572752
2538,889.253049571327
2538.25,894.639015166765
2538.5,899.011300898127
2538.75,899.666618981268
2539,895.722360695691
2539.25,889.624278372454
2539.5,884.17305926111
2539.75,881.924585859808
2540,882.64577134384
2540.25,884.330842260178
2540.5,884.947172788565
2540.75,883.270012619469
2541,880.209733289965
2541.25,877.025368946451
2541.5,874.914960777159
2541.75,874.165657063735
2542,874.364289039182
2542.25,875.079796836479
2542.5,875.986380063162
2542.75,877.074133508532
2543,878.392165169382
2543.25,879.971438366397
2543.5,881.567853969878
2543.75,882.723731324236
2544,882.975855162132
2544.25,882.02012397792
2544.5,880.052606764785
2544.75,877.367400005056
2545,874.276152781873
2545.25,871.414632684781
2545.5,869.703847282854
2545.75,870.074499864969
2546,872.941658342815
2546.25,876.918126117223
2546.5,880.223177700169
2546.75,881.183347347652
2547,879.974219585505
2547.25,878.330982135029
2547.5,878.037626394667
2547.75,880.233652222982
2548,883.780452759965
2548.25,887.036317437368
2548.5,888.432707221584
2548.75,887.872542714242
2549,886.621500358484
2549.25,885.996647223885
2549.5,887.026151781333
2549.75,889.501977491328
2550,892.885497726323
2550.25,896.638393052535
2550.5,900.23232821693
2550.75,903.15084156449
2551,904.878163588408
2551.25,905.032405858986
2551.5,904.066620708045
2551.75,902.755154111067
2552,901.872123321779
2552.25,902.062887486951
2552.5,903.711385394574
2552.75,907.169872745308
2553,912.702274278227
2553.25,919.377928221035
2553.5,925.407537580422
2553.75,928.982969754699
2554,928.81978914126
2554.25,925.791339124748
2554.5,921.326626247393
2554.75,916.847651993555
2555,913.101730487861
2555.25,909.609881804601
2555.5,905.763294790879
2555.75,901.020296810367
2556,895.83443964988
2556.25,891.420638323284
2556.5,889.013119629146
2556.75,889.366411466197
2557,891.236865810809
2557.25,892.860631431214
2557.5,892.513242912406
2557.75,889.757034030207
2558,885.696886044915
2558.25,881.528744411523
2558.5,878.2512238562
2558.75,875.651120518008
2559,873.055508233451
2559.25,869.798056138765
2559.5,865.65604007645
2559.75,861.09156232251
2560,856.625313090177
2560.25,852.756918589783
2560.5,849.853487109677
2560.75,848.230720306984
2561,848.183093862929
2561.25,849.301793054597
2561.5,850.32708726421
2561.75,849.948293526901
2562,847.414866217557
2562.25,843.992670120963
2562.5,841.40114305729
2562.75,841.238439439576
2563,843.519310595753
2563.25,847.148050695864
2563.5,851.008955681597
2563.75,854.277521712803
2564,856.662634019828
2564.25,857.930198268435
2564.5,857.930490368706
2564.75,857.011795591508
2565,855.704482485309
2565.25,854.532533385706
2565.5,853.81281662942
2565.75,853.619721539748
2566,854.01385245804
2566.25,855.014583478073
2566.5,856.485849267959
2566.75,858.254960235715
2567,860.134658093646
2567.25,861.722990702329
2567.5,862.454404350549
2567.75,861.760570188741
2568,859.517597972934
2568.25,856.687023893553
2568.5,854.392985776038
2568.75,853.61825545131
2569,853.984246946308
2569.25,854.351749861089
2569.5,853.585742898847
2569.75,851.485717546698
2570,849.417394006345
2570.25,848.895988457925
2570.5,851.055703072377
2570.75,854.894932211309
2571,858.668322599036
2571.25,860.676353969962
2571.5,860.330181119149
2571.75,858.173799607093
2572,854.802242226384
2572.25,850.917147969373
2572.5,847.584564976701
2572.75,845.948339241835
2573,847.031620776352
2573.25,850.266010016032
2573.5,853.959095386855
2573.75,856.402057884361
2574,856.770584735041
2574.25,855.964046886662
2574.5,855.080673176816
2574.75,855.019606813511
2575,855.320711965417
2575.25,854.955873279314
2575.5,852.921633498637
2575.75,849.217364539146
2576,845.128160254516
2576.25,842.023353610519
2576.5,840.892904274259
2576.75,841.158851575439
2577,841.838231853653
2577.25,841.996297714315
2577.5,841.362459888028
2577.75,840.149588351791
2578,838.581106064902
2578.25,836.83620412398
2578.5,835.008949635329
2578.75,833.18373760773
2579,831.423568568498
2579.25,829.674816303933
2579.5,827.844309116009
2579.75,825.850410873529
2580,823.810590174054
2580.25,822.010090534706
2580.5,820.737425457954
2580.75,820.059448789672
2581,819.621464955971
2581.25,819.021570730118
2581.5,817.914459317322
2581.75,816.199753877129
2582,813.843319674886
2582.25,810.882543181829
2582.5,808.098671619399
2582.75,806.714312472945
2583,807.919522140719
2583.25,811.750556678083
2583.5,816.915113131039
2583.75,822.049354559544
2584,826.128202294514
2584.25,828.845160324664
2584.5,829.985441282129
2584.75,829.461761902583
2585,827.80846715144
2585.25,825.749061274992
2585.5,823.97810895916
2585.75,822.780141608241
2586,822.135723266772
2586.25,822.020412328708
2586.5,822.559470530408
2586.75,824.122258116904
2587,827.100602496711
2587.25,831.537818068041
2587.5,836.189721445707
2587.75,839.514885984255
2588,840.158586514051
2588.25,838.573010474141
2588.5,836.223898699909
2588.75,834.568991454874
2589,834.0993614282
2589.25,833.905758161654
2589.5,832.969245767288
2589.75,830.795112342366
2590,828.870256275832
2590.25,829.149725155357
2590.5,833.290797700284
2590.75,839.73231398698
2591,844.946604805764
2591.25,845.433139491401
2591.5,840.327233980469
2591.75,832.499113508327
2592,825.102531821252
2592.25,820.612283379991
2592.5,818.646825766385
2592.75,818.073609156444
2593,817.831955835801
2593.25,817.648250931145
2593.5,817.734546924962
2593.75,818.300871394825
2594,819.223254807367
2594.25,819.956670824685
2594.5,819.929781681512
2594.75,818.882394442323
2595,817.378650548493
2595.25,816.117659634056
2595.5,815.760422449682
2595.75,816.734562929692
2596,819.379398511043
2596.25,823.967590479004
2596.5,829.759896477231
2596.75,835.229314599272
2597,838.84150215
2597.25,840.008754697726
2597.5,839.697629548039
2597.75,839.019092476332
2598,838.852682393076
2598.25,839.033937880916
2598.5,839.104140241966
2598.75,838.642243629894
2599,837.782176138837
2599.25,837.080541691606
2599.5,837.101740337693
2599.75,838.063023143499
2600,839.504034847881
2600.25,840.886092143738
2600.5,841.715873492719
2600.75,841.745196161008
2601,840.808309158218
2601.25,838.778786095736
2601.5,836.295796879895
2601.75,834.694736339868
2602,835.333757303574
2602.25,838.813948989462
2602.5,843.931702543768
2602.75,849.2202404223
2603,853.386531737009
2603.25,856.280754087558
2603.5,858.21510870532
2603.75,859.501812470113
2604,860.41268107597
2604.25,861.17186979015
2604.5,862.000791193821
2604.75,863.084808637223
2605,864.465453177455
2605.25,866.148388725606
2605.5,868.172713755713
2605.75,871.184413203363
2606,876.357990763527
2606.25,884.885189523097
2606.5,897.072132245449
2606.75,910.475585269876
2607,922.120367931814
2607.25,929.170464780886
2607.5,931.356954758204
2607.75,930.668654906066
2608,929.171356229274
2608.25,928.755978545688
2608.5,930.193744494332
2608.75,933.814445585218
2609,939.946374975852
2609.25,948.636000730157
2609.5,959.161105919139
2609.75,970.669629955291
2610,982.313065022931
2610.25,993.405308004161
2610.5,1003.48646371538
2610.75,1012.11339124325
2611,1018.84955164312
2611.25,1023.44150057833
2611.5,1025.83814115441
2611.75,1025.99884108324
2612,1023.8915894784
2612.25,1019.82388224055
2612.5,1014.54677965026
2612.75,1008.84124232485
2613,1003.48263093188
2613.25,998.805796918359
2613.5,994.39477481372
2613.75,989.760350679101
2614,984.418283078659
2614.25,978.347158734709
2614.5,972.358037521022
2614.75,967.348965661458
2615,964.209965801436
2615.25,963.352715855188
2615.5,964.449219272316
2615.75,967.108056836149
2616,970.924144425176
2616.25,975.136749574657
2616.5,978.6048758108
2616.75,980.168931708775
2617,978.751393945737
2617.25,974.510147722468
2617.5,968.557910832195
2617.75,962.032183916206
2618,956.03290368853
2618.25,951.241722847913
2618.5,948.07891958165
2618.75,946.960781704715
2619,948.145160454556
2619.25,950.854340781014
2619.5,953.894606102256
2619.75,956.071163582234
2620,956.628986256169
2620.25,956.323811265303
2620.5,956.235544358406
2620.75,957.439245566896
2621,960.263990016593
2621.25,963.495072340337
2621.5,965.726402194863
2621.75,965.582166388734
2622,962.869755797867
2622.25,958.937169923736
2622.5,955.235731116967
2622.75,953.177174616972
2623,953.397399351386
2623.25,955.824638928146
2623.5,960.361210204814
2623.75,966.822470148954
2624,974.184286055921
2624.25,980.952566178827
2624.5,985.62805613949
2624.75,987.049122452145
2625,986.047134602296
2625.25,984.182196065298
2625.5,983.015492695661
2625.75,983.771447940233
2626,985.999687198647
2626.25,988.730190427428
2626.5,990.992777650881
2626.75,992.160729216169
2627,992.998766324159
2627.25,994.623926497869
2627.5,998.153235244735
2627.75,1004.29571845546
2628,1012.27713032283
2628.25,1020.98625631496
2628.5,1029.31188282008
2628.75,1036.15894188468
2629,1040.48965380275
2629.25,1041.27893920768
2629.5,1037.50171873286
2629.75,1028.66699374138
2630,1016.96793566407
2630.25,1005.43912728175
2630.5,997.115446580234
2630.75,994.491614367221
2631,995.751760815606
2631.25,997.015929012985
2631.5,994.391235716861
2631.75,984.568166611026
2632,968.65508870244
2632.25,949.78289950584
2632.5,931.092982007791
2632.75,915.383093382209
2633,903.072549370084
2633.25,893.574594926174
2633.5,886.298850604996
2633.75,880.622426410949
2634,875.828250532833
2634.25,871.182294283799
2634.5,865.98205199398
2634.75,860.078519416166
2635,853.794934899801
2635.25,847.4696870688
2635.5,841.456895371821
2635.75,836.159537730767
2636,831.990049835933
2636.25,829.298859734985
2636.5,827.780383666437
2636.75,826.734682530988
2637,825.463870887188
2637.25,823.62005480309
2637.5,821.34857272415
2637.75,818.831929051469
2638,816.31318945391
2638.25,814.234769382603
2638.5,813.080042515218
2638.75,813.246311648263
2639,814.472555868082
2639.25,816.193772625016
2639.5,817.876991788367
2639.75,819.64268953469
2640,822.203929339999
2640.25,826.289479090449
2640.5,832.049898380528
2640.75,838.571328617405
2641,844.82540979903
2641.25,849.968050367108
2641.5,853.962465234214
2641.75,856.992895495353
2642,859.253705224197
2642.25,861.096939155591
2642.5,862.999327367999
2642.75,865.440304304541
2643,868.626208370315
2643.25,872.077001068768
2643.5,875.206520110022
2643.75,877.485488975375
2644,878.97598824184
2644.25,880.090837604773
2644.5,881.246669548303
2644.75,882.678623641541
2645,884.210182133309
2645.25,885.608070331313
2645.5,886.642733961912
2645.75,887.127310942899
2646,886.902220027251
2646.25,885.808715518811
2646.5,883.964449684332
2646.75,882.247677572907
2647,881.666354390463
2647.25,883.134193728684
2647.5,886.05211257354
2647.75,888.601627340444
2648,888.929646917862
2648.25,885.892454785558
2648.5,880.756340193002
2648.75,875.298915920991
2649,871.237471651687
2649.25,868.893487257909
2649.5,867.187962129564
2649.75,864.980638562026
2650,861.585531599473
2650.25,858.096869255393
2650.5,856.044899636108
2650.75,856.861988486435
2651,860.157452381466
2651.25,863.927834250608
2651.5,866.11519804639
2651.75,865.531171258055
2652,863.403298340022
2652.25,861.375308525508
2652.5,860.976615560655
2652.75,862.370937982031
2653,864.82311682429
2653.25,867.583966255645
2653.5,870.216305812301
2653.75,872.949963264808
2654,876.100670232363
2654.25,879.760645767833
2654.5,882.059796437306
2654.75,880.110427103998
2655,871.052650285222
2655.25,872.904233404315
2655.5,874.755816523408
2655.75,876.607399642501
2656,878.458982761595
2656.25,880.310565880688
2656.5,882.162148999781
2656.75,884.013732118874
2657,885.865315237967
2657.25,887.71689835706
2657.5,889.568481476153
2657.75,891.420064595246
2658,893.27164771434
2658.25,895.123230833433
2658.5,896.974813952526
2658.75,898.826397071619
2659,900.677980190712
2659.25,902.529563309805
2659.5,904.381146428898
2659.75,906.232729547991
2660,908.084312667085
2660.25,909.935895786178
2660.5,911.787478905271
2660.75,913.639062024364
2661,915.490645143457
2661.25,917.34222826255
2661.5,919.193811381643
2661.75,920.15928057547
2662,913.783782165545
2662.25,902.72638587277
2662.5,891.242224055113
2662.75,883.565496128944
2663,881.703361268799
2663.25,883.506683925044
2663.5,886.371560350604
2663.75,887.902768643798
2664,887.683472465425
2664.25,886.388536740226
2664.5,884.703377578244
2664.75,883.053019712431
2665,881.242247056542
2665.25,878.985476091995
2665.5,876.046359007086
2665.75,872.82746506991
2666,870.177541529822
2666.25,868.953741831459
2666.5,869.493554935657
2666.75,870.6988277731
2667,871.225575363471
2667.25,869.828624543571
2667.5,866.487788124019
2667.75,862.010998497477
2668,857.221181271792
2668.25,852.729391300748
2668.5,848.625215513073
2668.75,844.919449921854
2669,841.60278276897
2669.25,838.480824609019
2669.5,835.259448814944
2669.75,831.652621507675
2670,827.834160081312
2670.25,824.646284975515
2670.5,822.983817992813
2670.75,823.374895348389
2671,824.989186985149
2671.25,826.681844372225
2671.5,827.362757780777
2671.75,826.445084888398
2672,823.612946048178
2672.25,818.587931985196
2672.5,812.260786224276
2672.75,806.941535014296
2673,805.023110760933
2673.25,807.573445875513
2673.5,812.174161422375
2673.75,815.84028883217
2674,816.178597867511
2674.25,813.789163013451
2674.5,810.216324846444
2674.75,806.935279346328
2675,804.587681252216
2675.25,803.265019255268
2675.5,803.039983285614
2675.75,803.675394289014
2676,804.554373665372
2676.25,805.037495463598
2676.5,804.607649927436
2676.75,803.012853277073
2677,800.035819777324
2677.25,795.678839306898
2677.5,790.848050391075
2677.75,786.682124930941
2678,784.170337220413
2678.25,783.16368738825
2678.5,782.989329205931
2678.75,782.996006692895
2679,782.837357574189
2679.25,782.374496536578
2679.5,781.498975014172
2679.75,780.670761306488
2680,780.896772745076
2680.25,783.182337321064
2680.5,787.533378450332
2680.75,792.611834005166
2681,796.988174967354
2681.25,799.577271733813
2681.5,799.946630433334
2681.75,797.736713549809
2682,793.146504017269
2682.25,788.160786760903
2682.5,785.120509230574
2682.75,785.940775277088
2683,790.111664554032
2683.25,796.266077815219
2683.5,803.053031395583
2683.75,809.27377041496
2684,813.809379957779
2684.25,815.612588474152
2684.5,814.932444046601
2684.75,813.151573262365
2685,811.682877290893
2685.25,811.281085151056
2685.5,811.559339576713
2685.75,812.016880895265
2686,812.191449776498
2686.25,811.755942976715
2686.5,810.412899216322
2686.75,807.913591629362
2687,804.374476742057
2687.25,800.077666798538
2687.5,795.329605674555
2687.75,790.858268017681
2688,787.755993912982
2688.25,787.099803215116
2688.5,788.63787204507
2688.75,790.219633937131
2689,789.556154465759
2689.25,785.666264270616
2689.5,780.358843453981
2689.75,775.801170401634
2690,773.647513366307
2690.25,773.817154966168
2690.5,775.862963448592
2690.75,779.177215540062
2691,782.41070600924
2691.25,784.000372167079
2691.5,782.675650362737
2691.75,779.021380889001
2692,774.347582905848
2692.25,769.899717802461
2692.5,766.268450655267
2692.75,763.670926133575
2693,762.298530247026
2693.25,762.04706188636
2693.5,762.59677021454
2693.75,763.609205616009
2694,764.511348072646
2694.25,764.534112664445
2694.5,762.950470943425
2694.75,760.056965334386
2695,757.129960597913
2695.25,755.455904879538
2695.5,755.506713889551
2695.75,756.852131771866
2696,759.014975625982
2696.25,761.514977043085
2696.5,763.868229745461
2696.75,765.594194133875
2697,766.347285763004
2697.25,765.95492096355
2697.5,764.264779727108
2697.75,761.617521369776
2698,759.094227860858
2698.25,757.828491580228
2698.5,758.21119133419
2698.75,759.323008571936
2699,760.11582663906
2699.25,760.101593859637
2699.5,759.87003926976
2699.75,760.132046759863
2700,761.365207976641
2700.25,763.545812164756
2700.5,766.585310426231
2700.75,770.42922090945
2701,775.104954870822
2701.25,780.651543322169
2701.5,786.659529107451
2701.75,791.42387256942
2702,793.006964071621
2702.25,790.303521288462
2702.5,785.641506630414
2702.75,782.233983623393
2703,782.749305580087
2703.25,786.05314638487
2703.5,789.390345643208
2703.75,790.247638741735
2704,788.763063436033
2704.25,786.68165101101
2704.5,785.719364805716
2704.75,786.558281743967
2705,788.924606110105
2705.25,792.500858214426
2705.5,796.641913695411
2705.75,800.261233602817
2706,802.245343901871
2706.25,802.163851041103
2706.5,801.018567511308
2706.75,799.991613512384
2707,799.878670447009
2707.25,799.994922481362
2707.5,799.301060815352
2707.75,796.970588742269
2708,793.678668571481
2708.25,790.746641843514
2708.5,789.408935456568
2708.75,789.655640680085
2709,790.564767884411
2709.25,791.214464862089
2709.5,791.277031725538
2709.75,791.086548492383
2710,791.010344325027
2710.25,791.300726272684
2710.5,792.012275486997
2710.75,793.180147485956
2711,794.889189325441
2711.25,797.359207627293
2711.5,800.832702538245
2711.75,805.205283279674
2712,808.803255954052
2712.25,809.509368419531
2712.5,805.609794128757
2712.75,798.842911878874
2713,792.699781049274
2713.25,790.533151038107
2713.5,792.494782021589
2713.75,795.692043829218
2714,797.148783198983
2714.25,795.804506273932
2714.5,793.399042336726
2714.75,791.89211439577
2715,792.481153215148
2715.25,794.499044873248
2715.5,796.998886309302
2715.75,799.1801004183
2716,800.82822085836
2716.25,801.87551099142
2716.5,802.286023563792
2716.75,802.250163966727
2717,802.05652279066
2717.25,801.983897247552
2717.5,802.160845260709
2717.75,802.601406931988
2718,803.316921635901
2718.25,804.325906725399
2718.5,805.656306201356
2718.75,807.336352421151
2719,809.301845550926
2719.25,811.272842173894
2719.5,812.938673350828
2719.75,814.08050545906
2720,814.898652458819
2720.25,815.712942811154
2720.5,816.79912019413
2720.75,817.984314038567
2721,818.833964933444
2721.25,818.919754236903
2721.5,818.108219357869
2721.75,816.610509789378
2722,814.65715700597
2722.25,812.424279173231
2722.5,809.953744923186
2722.75,807.267084270278
2723,804.384506089406
2723.25,801.319170976152
2723.5,798.081898545573
2723.75,794.716869664286
2724,791.642438643227
2724.25,789.512025984716
2724.5,788.951499695611
2724.75,789.829742822206
2725,791.236038792839
2725.25,792.233857388098
2725.5,792.483210483722
2725.75,792.570017303571
2726,793.158916647452
2726.25,794.539447779539
2726.5,796.077091566344
2726.75,796.997568036058
2727,796.713443954046
2727.25,795.400464710493
2727.5,793.429201330162
2727.75,791.189417131105
2728,789.210401987506
2728.25,788.083087085852
2728.5,788.329477050145
2728.75,789.561123385578
2729,790.747583146785
2729.25,790.881312453895
2729.5,789.868701372875
2729.75,788.575654521051
2730,787.907978013591
2730.25,788.395987098711
2730.5,789.962705587473
2730.75,792.475506472272
2731,795.684476636742
2731.25,799.051285108661
2731.5,801.994064778169
2731.75,803.998741923074
2732,804.82432730925
2732.25,804.298583920707
2732.5,802.354594776906
2732.75,799.729921376403
2733,797.533166276103
2733.25,796.807892418741
2733.5,797.483129928274
2733.75,798.569008508986
2734,799.061574395432
2734.25,798.52195575803
2734.5,797.27296780945
2734.75,795.691906925417
2735,794.324873527912
2735.25,794.105231950757
2735.5,796.020435409799
2735.75,800.565908613977
2736,806.30516308805
2736.25,811.327616414317
2736.5,813.951394422911
2736.75,814.068967097689
2737,812.235480976044
2737.25,809.04826635691
2737.5,805.766268293001
2737.75,804.193157599454
2738,806.119307346574
2738.25,811.527450897285
2738.5,817.577254575511
2738.75,821.184219199466
2739,820.450231517417
2739.25,816.894756619385
2739.5,812.64893822737
2739.75,809.69503962467
2740,809.004738117821
2740.25,811.12963872115
2740.5,816.557798852297
2740.75,824.76421641706
2741,834.399441693798
2741.25,844.090326167746
2741.5,852.479626768724
2741.75,858.235178902845
2742,860.027025717844
2742.25,857.128385383731
2742.5,851.508241632152
2742.75,845.888396183653
2743,842.883205893768
2743.25,842.884482746892
2743.5,844.191842493394
2743.75,845.024911738364
2744,844.254935411211
2744.25,842.441455895943
2744.5,840.413854632369
2744.75,838.928625766215
2745,838.143377272151
2745.25,837.921782526674
2745.5,838.122123370188
2745.75,838.477612317329
2746,838.562164965022
2746.25,837.939384972937
2746.5,836.315779443003
2746.75,833.881897286641
2747,830.930673187271
2747.25,827.769159717153
2747.5,824.848275915181
2747.75,822.702965968028
2748,821.855147352621
2748.25,822.223216050672
2748.5,822.907447460515
2748.75,822.950148523773
2749,821.811052523869
2749.25,820.205055754768
2749.5,819.082006071951
2749.75,819.297403907816
2750,821.01845761448
2750.25,824.107365696051
2750.5,828.409898466394
2750.75,833.46722713181
2751,838.537500603879
2751.25,842.868641456074
2751.5,845.790067010961
2751.75,846.801121719852
2752,845.422404525304
2752.25,841.638341807495
2752.5,838.302584355279
2752.75,839.364636140003
2753,848.585775554699
2753.25,864.823573660988
2753.5,881.721683953365
2753.75,892.673383290971
2754,893.597604134329
2754.25,887.817623580618
2754.5,880.00656242118
2754.75,874.666509565711
2755,872.969303309471
2755.25,873.060848956806
2755.5,872.977072968199
2755.75,871.401158214273
2756,869.390950924991
2756.25,868.548742433849
2756.5,870.357211601242
2756.75,873.972365023736
2757,876.437426787451
2757.25,874.719177291061
2757.5,867.179214864333
2757.75,856.827707806125
2758,847.642044595263
2758.25,843.387830874509
2758.5,844.118069009473
2758.75,846.721389510089
2759,847.990009250381
2759.25,846.037021916765
2759.5,842.081889095116
2759.75,837.790238692224
2760,834.725187914449
2760.25,833.665924919856
2760.5,835.029712262009
2760.75,839.19421986586
2761,845.377497959476
2761.25,851.446649367748
2761.5,855.193042294994
2761.75,855.134914485209
2762,851.99100209839
2762.25,846.894859673245
2762.5,840.973819775738
2762.75,835.284710526821
2763,830.839725609521
2763.25,828.638497949691
2763.5,828.716179845562
2763.75,829.445696644019
2764,829.035473539124
2764.25,826.275380884215
2764.5,822.440071972326
2764.75,819.467826805937
2765,819.138764090957
2765.25,821.363305111462
2765.5,824.830732122841
2765.75,828.225121131123
2766,830.899123669725
2766.25,833.106095383511
2766.5,835.162853218902
2766.75,837.161395606025
2767,838.481694424895
2767.25,838.363093556666
2767.5,836.215167025752
2767.75,832.987878706299
2768,830.449944279019
2768.25,830.342550898918
2768.5,832.927095494778
2768.75,836.473143292779
2769,839.110144061953
2769.25,839.926596153693
2769.5,841.155039176098
2769.75,845.671299950616
2770,856.014965135358
2770.25,871.381620825131
2770.5,889.050477651823
2770.75,906.285176441449
2771,920.823338193023
2771.25,931.166300509856
2771.5,935.884613363796
2771.75,933.912289943834
2772,927.745659599182
2772.25,921.899266271884
2772.5,920.91068434482
2772.75,927.992483392242
2773,940.576754469611
2773.25,954.519661728243
2773.5,965.705832727168
2773.75,972.471374426573
2774,977.4540198252
2774.25,983.727116341242
2774.5,994.275331094257
2774.75,1009.25964391998
2775,1025.49782826926
2775.25,1039.61414356179
2775.5,1048.33015638015
2775.75,1050.83698445031
2776,1048.93118635872
2776.25,1044.53383024595
2776.5,1039.55320621237
2776.75,1034.90581546747
2777,1029.82522656327
2777.25,1023.38176632924
2777.5,1014.64667997188
2777.75,1003.22542473235
2778,990.15423233504
2778.25,976.706347640836
2778.5,964.154924983465
2778.75,953.473290512893
2779,944.667024349075
2779.25,937.546824870254
2779.5,931.923525168449
2779.75,927.632588963544
2780,924.562619738082
2780.25,922.609138082508
2780.5,921.662691945083
2780.75,921.48803702721
2781,921.717444001742
2781.25,921.976871215348
2781.5,921.800427717087
2781.75,920.026255650806
2782,915.173725945101
2782.25,905.761541737001
2782.5,891.47516996727
2782.75,875.42288770508
2783,861.337397100443
2783.25,852.832266949675
2783.5,850.453109621262
2783.75,851.483545291097
2784,853.049286210471
2784.25,852.903234989387
2784.5,850.941759380213
2784.75,847.518740544365
2785,843.064459224197
2785.25,838.986482530386
2785.5,837.367967860601
2785.75,840.28941335847
2786,848.005670553908
2786.25,857.291753537013
2786.5,864.531903348543
2786.75,866.810477703708
2787,864.987711371311
2787.25,861.191085684157
2787.5,857.511435784035
2787.75,854.87929423128
2788,852.871829087555
2788.25,850.989732426194
2788.5,848.996008482043
2788.75,847.686753373609
2789,848.112359005565
2789.25,851.206836121229
2789.5,856.171623853712
2789.75,860.878928731669
2790,863.173584442633
2790.25,862.200164472029
2790.5,859.959632563536
2790.75,858.832787592807
2791,860.903388543355
2791.25,865.699919379333
2791.5,871.447808367994
2791.75,876.37185190844
2792,879.354939533629
2792.25,880.343810239691
2792.5,879.382035455912
2792.75,876.656638095539
2793,873.356460692168
2793.25,871.097497091152
2793.5,871.48233544805
2793.75,874.970727697676
2794,880.094923480266
2794.25,885.201675125856
2794.5,888.916934074427
2794.75,891.815056312854
2795,895.300606142553
2795.25,900.769607826721
2795.5,908.497727754563
2795.75,916.723428643019
2796,923.469373172293
2796.25,926.902476656696
2796.5,926.798241805123
2796.75,923.938410365431
2797,919.120132207602
2797.25,913.151042040121
2797.5,906.883531461093
2797.75,901.181932360378
2798,896.902993183171
2798.25,894.328201649812
2798.5,892.77037061524
2798.75,891.449284942314
2799,889.661309667215
2799.25,887.464843180588
2799.5,885.355178528614
2799.75,883.832231920239
2800,883.134542453739
2800.25,882.822301096304
2800.5,882.347081321474
2800.75,881.214956915539
2801,879.713577557825
2801.25,878.715366598529
2801.5,879.106580450943
2801.75,881.183072770866
2802,883.396195487042
2802.25,883.838089735111
2802.5,880.717509687313
2802.75,874.23794500834
2803,866.277184850208
2803.25,858.764916174274
2803.5,853.341853462539
2803.75,850.608377023117
2804,850.930836193913
2804.25,854.563358103748
2804.5,860.076040128911
2804.75,864.740123661382
2805,865.80053808391
2805.25,862.22049149187
2805.5,856.890791677794
2805.75,853.248539410186
2806,854.269469002601
2806.25,858.59743253183
2806.5,862.504259098304
2806.75,862.272951391543
2807,856.610345385764
2807.25,848.16279394023
2807.5,839.937808444835
2807.75,834.582356154142
2808,832.563347980631
2808.25,833.532480619938
2808.5,837.106226614961
2808.75,842.15135728919
2809,846.80011537123
2809.25,849.157295008205
2809.5,848.43251814384
2809.75,846.53385207911
2810,845.773634401223
2810.25,848.172806660321
2810.5,853.394466708835
2810.75,859.959347785354
2811,866.389875710047
2811.25,871.592084135157
2811.5,874.986095872298
2811.75,876.0280245738
2812,874.356685731443
2812.25,870.506793534354
2812.5,865.287228965041
2812.75,859.503366716677
2813,853.842321852758
2813.25,848.848625024566
2813.5,845.058312213448
2813.75,842.8026750657
2814,841.544721432767
2814.25,840.517328435855
2814.5,839.007394358398
2814.75,837.108148661348
2815,835.53250998712
2815.25,835.00630448929
2815.5,835.860134160865
2815.75,837.637208880057
2816,839.787445029471
2816.25,841.849739910433
2816.5,843.843021504815
2816.75,845.947368392614
2817,848.308974754291
2817.25,850.424099374871
2817.5,851.204963985054
2817.75,849.545027627642
2818,845.190305387888
2818.25,840.05933827699
2818.5,836.411680678434
2818.75,836.195547570814
2819,838.677963441868
2819.25,841.757461244257
2819.5,843.358194264937
2819.75,842.751103373094
2820,840.914406931556
2820.25,838.936260981571
2820.5,837.692715546268
2820.75,837.301331741802
2821,837.710193790083
2821.25,838.84024671736
2821.5,840.313361079734
2821.75,841.565976677962
2822,842.034777761623
2822.25,841.342204573331
2822.5,839.401482137344
2822.75,836.151186859316
2823,831.728863771902
2823.25,827.164812831538
2823.5,823.739620331592
2823.75,822.63649081061
2824,823.679586771485
2824.25,825.69496212068
2824.5,827.496448264978
2824.75,828.583047385684
2825,829.536915496694
