1865,38.5226749243241
1865.25,38.5476566577363
1865.5,38.5726383911485
1865.75,38.5976201245607
1866,38.6226018579729
1866.25,38.6475835913851
1866.5,38.6725653247973
1866.75,38.6975470582095
1867,38.7225287916217
1867.25,38.7475105250339
1867.5,38.7724922584461
1867.75,38.7974739918583
1868,38.8089822901082
1868.25,38.8189749834731
1868.5,38.828967676838
1868.75,38.8389603702028
1869,38.8489530635677
1869.25,38.8589457569326
1869.5,38.8689384502975
1869.75,38.8789311436624
1870,38.8889238370272
1870.25,38.8989165303921
1870.5,38.908909223757
1870.75,38.9189019171219
1871,38.9288946104868
1871.25,38.9388873038516
1871.5,38.9488799972165
1871.75,38.9588726905814
1872,38.9688653839463
1872.25,38.9788580773112
1872.5,38.988850770676
1872.75,38.9988434640409
1873,38.9469830555652
1873.25,38.8870268953759
1873.5,38.8270707351867
1873.75,38.7671145749974
1874,38.7071584148081
1874.25,38.6472022546188
1874.5,38.5872460944296
1874.75,38.5272899342403
1875,38.467333774051
1875.25,38.4073776138617
1875.5,38.3474214536725
1875.75,38.2874652934832
1876,38.2275091332939
1876.25,38.1675529731046
1876.5,38.1075968129154
1876.75,38.0476406527261
1877,37.9876844925368
1877.25,37.9277283323475
1877.5,37.8677721721583
1877.75,37.807816011969
1878,37.7217897776695
1878.25,37.6318555373856
1878.5,37.5419212971017
1878.75,37.4519870568178
1879,37.3620528165338
1879.25,37.2721185762499
1879.5,37.1821843359661
1879.75,37.0922500956822
1880,37.0023158553982
1880.25,36.9123816151143
1880.5,36.8224473748304
1880.75,36.7325131345465
1881,36.6425788942625
1881.25,36.5526446539786
1881.5,36.4627104136948
1881.75,36.3727761734109
1882,36.2828419331268
1882.25,36.192907692843
1882.5,36.1029734525591
1882.75,36.0130392122752
1883,35.9786402699975
1883.25,35.9536585365854
1883.5,35.9286768031732
1883.75,35.903695069761
1884,35.8787133363488
1884.25,35.8537316029366
1884.5,35.8287498695244
1884.75,35.8037681361122
1885,35.7787864027
1885.25,35.7538046692878
1885.5,35.7288229358756
1885.75,35.7038412024634
1886,35.6788594690512
1886.25,35.653877735639
1886.5,35.6288960022268
1886.75,35.6039142688146
1887,35.5789325354024
1887.25,35.5539508019902
1887.5,35.528969068578
1887.75,35.5039873351658
1888,35.5041988796493
1888.25,35.5091952263317
1888.5,35.5141915730142
1888.75,35.5191879196966
1889,35.524184266379
1889.25,35.5291806130615
1889.5,35.5341769597439
1889.75,35.5391733064264
1890,35.5441696531088
1890.25,35.5491659997912
1890.5,35.5541623464737
1890.75,35.5591586931561
1891,35.5641550398386
1891.25,35.569151386521
1891.5,35.5741477332034
1891.75,35.5791440798859
1892,35.5841404265683
1892.25,35.5891367732508
1892.5,35.5941331199332
1892.75,35.5991294666156
1893,35.6371323196827
1893.25,35.6820994398246
1893.5,35.7270665599666
1893.75,35.7720336801085
1894,35.8170008002505
1894.25,35.8619679203925
1894.5,35.9069350405344
1894.75,35.9519021606763
1895,35.9968692808184
1895.25,36.0418364009603
1895.5,36.0868035211022
1895.75,36.1317706412442
1896,36.1767377613862
1896.25,36.2217048815281
1896.5,36.2666720016701
1896.75,36.311639121812
1897,36.356606241954
1897.25,36.401573362096
1897.5,36.4465404822379
1897.75,36.4915076023798
1898,36.5770021919906
1898.25,36.6719327789569
1898.5,36.7668633659232
1898.75,36.8617939528895
1899,36.956724539856
1899.25,37.0516551268223
1899.5,37.1465857137886
1899.75,37.2415163007549
1900,37.3364468877214
1900.25,37.4313774746877
1900.5,37.526308061654
1900.75,37.6212386486203
1901,37.7161692355868
1901.25,37.8110998225531
1901.5,37.9060304095195
1901.75,38.0009609964858
1902,38.0958915834523
1902.25,38.1908221704186
1902.5,38.2857527573849
1902.75,38.3806833443512
1903,38.4278577641697
1903.25,38.4628321909467
1903.5,38.4978066177238
1903.75,38.5327810445009
1904,38.567755471278
1904.25,38.602729898055
1904.5,38.6377043248321
1904.75,38.6726787516092
1905,38.7076531783863
1905.25,38.7426276051633
1905.5,38.7776020319404
1905.75,38.8125764587175
1906,38.8475508854946
1906.25,38.8825253122717
1906.5,38.9174997390487
1906.75,38.9524741658258
1907,38.9874485926029
1907.25,39.02242301938
1907.5,39.057397446157
1907.75,39.0923718729341
1908,39.150785985178
1908.25,39.2157384920497
1908.5,39.2806909989214
1908.75,39.345643505793
1909,39.4105960126649
1909.25,39.4755485195365
1909.5,39.5405010264082
1909.75,39.6054535332799
1910,39.6704060401517
1910.25,39.7353585470234
1910.5,39.8003110538951
1910.75,39.8652635607668
1911,39.9302160676386
1911.25,39.9951685745103
1911.5,40.060121081382
1911.75,40.1250735882536
1912,40.1900260951254
1912.25,40.2549786019971
1912.5,40.3199311088688
1912.75,40.3848836157405
1913,40.3463303294944
1913.25,40.2763814759403
1913.5,40.2064326223862
1913.75,40.1364837688321
1914,40.0665349152778
1914.25,39.9965860617237
1914.5,39.9266372081696
1914.75,39.8566883546154
1915,39.7867395010612
1915.25,39.7167906475071
1915.5,39.6468417939529
1915.75,39.5768929403988
1916,39.5069440868446
1916.25,39.4369952332904
1916.5,39.3670463797363
1916.75,39.2970975261822
1917,39.2271486726279
1917.25,39.1571998190738
1917.5,39.0872509655197
1917.75,39.0173021119654
1918,39.0150419261682
1918.25,39.0350273128979
1918.5,39.0550126996277
1918.75,39.0749980863575
1919,39.0949834730872
1919.25,39.114968859817
1919.5,39.1349542465467
1919.75,39.1549396332765
1920,39.1749250200063
1920.25,39.194910406736
1920.5,39.2148957934658
1920.75,39.2348811801956
1921,39.2548665669253
1921.25,39.2748519536551
1921.5,39.2948373403848
1921.75,39.3148227271146
1922,39.3348081138443
1922.25,39.3547935005741
1922.5,39.3747788873038
1922.75,39.3947642740336
1923,39.4331867367176
1923.25,39.4781538568595
1923.5,39.5231209770015
1923.75,39.5680880971435
1924,39.6130552172854
1924.25,39.6580223374274
1924.5,39.7029894575693
1924.75,39.7479565777113
1925,39.7929236978532
1925.25,39.8378908179952
1925.5,39.8828579381371
1925.75,39.9278250582791
1926,39.9727921784211
1926.25,40.017759298563
1926.5,40.0627264187049
1926.75,40.107693538847
1927,40.1526606589889
1927.25,40.1976277791308
1927.5,40.2425948992728
1927.75,40.2875620194148
1928,40.2746995581225
1928.25,40.2397251313455
1928.5,40.2047507045684
1928.75,40.1697762777913
1929,40.1348018510142
1929.25,40.0998274242372
1929.5,40.0648529974601
1929.75,40.029878570683
1930,39.9949041439059
1930.25,39.9599297171289
1930.5,39.9249552903518
1930.75,39.8899808635747
1931,39.8550064367976
1931.25,39.8200320100205
1931.5,39.7850575832435
1931.75,39.7500831564664
1932,39.7151087296893
1932.25,39.6801343029122
1932.5,39.6451598761352
1932.75,39.610185449358
1933,39.5220917852545
1933.25,39.4121721582409
1933.5,39.3022525312273
1933.75,39.1923329042134
1934,39.0824132771998
1934.25,38.9724936501862
1934.5,38.8625740231726
1934.75,38.7526543961587
1935,38.6427347691451
1935.25,38.5328151421315
1935.5,38.4228955151179
1935.75,38.312975888104
1936,38.2030562610904
1936.25,38.0931366340768
1936.5,37.9832170070632
1936.75,37.8732973800494
1937,37.7633777530357
1937.25,37.6534581260221
1937.5,37.5435384990085
1937.75,37.4336188719947
1938,37.2959535158832
1938.25,37.1460631154101
1938.5,36.996172714937
1938.75,36.8462823144636
1939,36.6963919139905
1939.25,36.5465015135173
1939.5,36.3966111130442
1939.75,36.2467207125708
1940,36.0968303120977
1940.25,35.9469399116246
1940.5,35.7970495111515
1940.75,35.6471591106781
1941,35.4972687102049
1941.25,35.3473783097318
1941.5,35.1974879092587
1941.75,35.0475975087853
1942,34.8977071083122
1942.25,34.747816707839
1942.5,34.5979263073659
1942.75,34.4480359068925
1943,34.3660485021398
1943.25,34.3160850353154
1943.5,34.2661215684911
1943.75,34.2161581016666
1944,34.1661946348422
1944.25,34.1162311680178
1944.5,34.0662677011935
1944.75,34.016304234369
1945,33.9663407675446
1945.25,33.9163773007202
1945.5,33.8664138338959
1945.75,33.8164503670714
1946,33.766486900247
1946.25,33.7165234334227
1946.5,33.6665599665983
1946.75,33.6165964997738
1947,33.5666330329494
1947.25,33.5166695661251
1947.5,33.4667060993007
1947.75,33.4167426324762
1948,33.5395275042622
1948.25,33.7493740649246
1948.5,33.9592206255869
1948.75,34.1690671862497
1949,34.3789137469121
1949.25,34.5887603075744
1949.5,34.7986068682368
1949.75,35.0084534288996
1950,35.2182999895619
1950.25,35.4281465502243
1950.5,35.6379931108867
1950.75,35.8478396715494
1951,36.0576862322118
1951.25,36.2675327928742
1951.5,36.4773793535365
1951.75,36.6872259141993
1952,36.8970724748617
1952.25,37.106919035524
1952.5,37.3167655961864
1952.75,37.5266121568492
1953,37.6357391879197
1953.25,37.6906990014265
1953.5,37.7456588149333
1953.75,37.8006186284402
1954,37.855578441947
1954.25,37.9105382554539
1954.5,37.9654980689607
1954.75,38.0204578824676
1955,38.0754176959744
1955.25,38.1303775094812
1955.5,38.185337322988
1955.75,38.2402971364949
1956,38.2952569500017
1956.25,38.3502167635085
1956.5,38.4051765770154
1956.75,38.4601363905223
1957,38.5150962040291
1957.25,38.5700560175359
1957.5,38.6250158310427
1957.75,38.6799756445496
1958,38.747639260986
1958.25,38.8225844612226
1958.5,38.8975296614592
1958.75,38.9724748616959
1959,39.0474200619324
1959.25,39.122365262169
1959.5,39.1973104624055
1959.75,39.2722556626422
1960,39.3472008628788
1960.25,39.4221460631154
1960.5,39.4970912633519
1960.75,39.5720364635886
1961,39.6469816638252
1961.25,39.7219268640617
1961.5,39.7968720642983
1961.75,39.871817264535
1962,39.9467624647716
1962.25,40.0217076650081
1962.5,40.0966528652448
1962.75,40.1715980654814
1963,40.1410451967573
1963.25,40.046114609791
1963.5,39.9511840228245
1963.75,39.8562534358582
1964,39.7613228488919
1964.25,39.6663922619255
1964.5,39.5714616749591
1964.75,39.4765310879927
1965,39.3816005010264
1965.25,39.2866699140601
1965.5,39.1917393270936
1965.75,39.0968087401273
1966,39.001878153161
1966.25,38.9069475661947
1966.5,38.8120169792282
1966.75,38.7170863922619
1967,38.6221558052956
1967.25,38.5272252183293
1967.5,38.4322946313628
1967.75,38.3373640443965
1968,38.30605963606
1968.25,38.3160523294249
1968.5,38.3260450227897
1968.75,38.3360377161546
1969,38.3460304095195
1969.25,38.3560231028844
1969.5,38.3660157962493
1969.75,38.3760084896141
1970,38.386001182979
1970.25,38.3959938763439
1970.5,38.4059865697088
1970.75,38.4159792630737
1971,38.4259719564385
1971.25,38.4359646498034
1971.5,38.4459573431683
1971.75,38.4559500365332
1972,38.4659427298981
1972.25,38.4759354232629
1972.5,38.4859281166278
1972.75,38.4959208099927
1973,38.4615622281758
1973.25,38.3966097213041
1973.5,38.3316572144323
1973.75,38.2667047075606
1974,38.2017522006889
1974.25,38.1367996938172
1974.5,38.0718471869454
1974.75,38.0068946800738
1975,37.9419421732021
1975.25,37.8769896663304
1975.5,37.8120371594586
1975.75,37.7470846525869
1976,37.6821321457152
1976.25,37.6171796388435
1976.5,37.5522271319717
1976.75,37.4872746251
1977,37.4223221182283
1977.25,37.3573696113567
1977.5,37.2924171044848
1977.75,37.2274645976132
1978,37.1942326293448
1978.25,37.18423993598
1978.5,37.1742472426151
1978.75,37.1642545492502
1979,37.1542618558853
1979.25,37.1442691625205
1979.5,37.1342764691556
1979.75,37.1242837757907
1980,37.1142910824258
1980.25,37.1042983890609
1980.5,37.094305695696
1980.75,37.0843130023312
1981,37.0743203089663
1981.25,37.0643276156014
1981.5,37.0543349222365
1981.75,37.0443422288716
1982,37.0343495355068
1982.25,37.0243568421419
1982.5,37.014364148777
1982.75,37.0043714554121
1983,37.0590229985038
1983.25,37.163946278835
1983.5,37.2688695591664
1983.75,37.3737928394976
1984,37.4787161198288
1984.25,37.58363940016
1984.5,37.6885626804913
1984.75,37.7934859608225
1985,37.8984092411537
1985.25,38.0033325214849
1985.5,38.1082558018163
1985.75,38.2131790821475
1986,38.3181023624786
1986.25,38.4230256428098
1986.5,38.5279489231412
1986.75,38.6328722034724
1987,38.7377954838036
1987.25,38.8427187641348
1987.5,38.9476420444661
1987.75,39.0525653247973
1988,39.1219004210013
1988.25,39.1618711944608
1988.5,39.2018419679204
1988.75,39.2418127413799
1989,39.2817835148394
1989.25,39.3217542882989
1989.5,39.3617250617585
1989.75,39.401695835218
1990,39.4416666086775
1990.25,39.481637382137
1990.5,39.5216081555966
1990.75,39.561578929056
1991,39.6015497025155
1991.25,39.641520475975
1991.5,39.6814912494346
1991.75,39.7214620228941
1992,39.7614327963536
1992.25,39.8014035698131
1992.5,39.8413743432727
1992.75,39.8813451167322
1993,39.9905925333147
1993.25,40.1604683205176
1993.5,40.3303441077207
1993.75,40.5002198949236
1994,40.6700956821265
1994.25,40.8399714693294
1994.5,41.0098472565325
1994.75,41.1797230437354
1995,41.3495988309383
1995.25,41.5194746181412
1995.5,41.6893504053443
1995.75,41.8592261925472
1996,42.0291019797501
1996.25,42.198977766953
1996.5,42.3688535541561
1996.75,42.538729341359
1997,42.7086051285619
1997.25,42.8784809157648
1997.5,43.0483567029679
1997.75,43.2182324901708
1998,43.1963432030898
1998.25,42.9964893357923
1998.5,42.7966354684944
1998.75,42.5967816011969
1999,42.3969277338994
1999.25,42.1970738666019
1999.5,41.9972199993041
1999.75,41.7973661320066
2000,41.5975122647091
2000.25,41.3976583974116
2000.5,41.1978045301137
2000.75,40.9979506628162
2001,40.7980967955187
2001.25,40.5982429282212
2001.5,40.3983890609234
2001.75,40.1985351936259
2002,39.9986813263284
2002.25,39.7988274590309
2002.5,39.598973591733
2002.75,39.3991197244355
2003,39.2748164642845
2003.25,39.2248529974601
2003.5,39.1748895306357
2003.75,39.1249260638113
2004,39.0749625969869
2004.25,39.0249991301625
2004.5,38.9750356633381
2004.75,38.9250721965137
2005,38.8751087296893
2005.25,38.825145262865
2005.5,38.7751817960405
2005.75,38.7252183292161
2006,38.6752548623917
2006.25,38.6252913955674
2006.5,38.5753279287429
2006.75,38.5253644619185
2007,38.4754009950941
2007.25,38.4254375282697
2007.5,38.3754740614453
2007.75,38.3255105946209
2008,38.2902188511186
2008.25,38.2702334643888
2008.5,38.2502480776591
2008.75,38.2302626909293
2009,38.2102773041996
2009.25,38.1902919174698
2009.5,38.17030653074
2009.75,38.1503211440103
2010,38.1303357572806
2010.25,38.1103503705508
2010.5,38.090364983821
2010.75,38.0703795970913
2011,38.0503942103615
2011.25,38.0304088236317
2011.5,38.010423436902
2011.75,37.9904380501722
2012,37.9704526634425
2012.25,37.9504672767127
2012.5,37.930481889983
2012.75,37.9104965032532
2013,37.9450721965136
2013.25,38.0400027834801
2013.5,38.1349333704464
2013.75,38.2298639574127
2014,38.324794544379
2014.25,38.4197251313455
2014.5,38.5146557183118
2014.75,38.6095863052781
2015,38.7045168922445
2015.25,38.7994474792109
2015.5,38.8943780661772
2015.75,38.9893086531436
2016,39.0842392401099
2016.25,39.1791698270764
2016.5,39.2741004140427
2016.75,39.369031001009
2017,39.4639615879753
2017.25,39.5588921749418
2017.5,39.6538227619081
2017.75,39.7487533488744
2018,39.8252906996972
2018.25,39.8802505132042
2018.5,39.935210326711
2018.75,39.9901701402178
2019,40.0451299537246
2019.25,40.1000897672315
2019.5,40.1550495807383
2019.75,40.2100093942451
2020,40.2649692077519
2020.25,40.3199290212589
2020.5,40.3748888347657
2020.75,40.4298486482725
2021,40.4848084617793
2021.25,40.5397682752862
2021.5,40.594728088793
2021.75,40.6496879022998
2022,40.7046477158066
2022.25,40.7596075293135
2022.5,40.8145673428204
2022.75,40.8695271563272
2023,40.8821912946662
2023.25,40.8422205212066
2023.5,40.8022497477471
2023.75,40.7622789742876
2024,40.7223082008281
2024.25,40.6823374273685
2024.5,40.6423666539091
2024.75,40.6023958804495
2025,40.56242510699
2025.25,40.5224543335305
2025.5,40.482483560071
2025.75,40.4425127866115
2026,40.402542013152
2026.25,40.3625712396924
2026.5,40.3226004662329
2026.75,40.2826296927734
2027,40.2426589193139
2027.25,40.2026881458543
2027.5,40.1627173723948
2027.75,40.1227465989353
2028,40.0763167600293
2028.25,40.0213569465224
2028.5,39.9663971330156
2028.75,39.9114373195087
2029,39.8564775060019
2029.25,39.801517692495
2029.5,39.7465578789882
2029.75,39.6915980654814
2030,39.6366382519746
2030.25,39.5816784384677
2030.5,39.5267186249609
2030.75,39.471758811454
2031,39.4167989979472
2031.25,39.3618391844403
2031.5,39.3068793709335
2031.75,39.2519195574267
2032,39.1969597439199
2032.25,39.141999930413
2032.5,39.0870401169062
2032.75,39.0320803033994
2033,38.9979200445357
2033.25,38.9929236978532
2033.5,38.9879273511708
2033.75,38.9829310044884
2034,38.9779346578059
2034.25,38.9729383111235
2034.5,38.967941964441
2034.75,38.9629456177586
2035,38.9579492710762
2035.25,38.9529529243937
2035.5,38.9479565777113
2035.75,38.9429602310288
2036,38.9379638843464
2036.25,38.932967537664
2036.5,38.9279711909815
2036.75,38.9229748442991
2037,38.9179784976167
2037.25,38.9129821509342
2037.5,38.9079858042518
2037.75,38.9029894575693
2038,38.8859517762082
2038.25,38.8509773494311
2038.5,38.8160029226541
2038.75,38.781028495877
2039,38.7460540690999
2039.25,38.7110796423228
2039.5,38.6761052155457
2039.75,38.6411307887687
2040,38.6061563619916
2040.25,38.5711819352145
2040.5,38.5362075084374
2040.75,38.5012330816604
2041,38.4662586548833
2041.25,38.4312842281062
2041.5,38.3963098013291
2041.75,38.3613353745521
2042,38.326360947775
2042.25,38.2913865209979
2042.5,38.2564120942208
2042.75,38.2214376674437
2043,38.1787279496191
2043.25,38.1237681361122
2043.5,38.0688083226053
2043.75,38.0138485090985
2044,37.9588886955917
2044.25,37.9039288820848
2044.5,37.848969068578
2044.75,37.7940092550712
2045,37.7390494415644
2045.25,37.6840896280575
2045.5,37.6291298145507
2045.75,37.5741700010438
2046,37.519210187537
2046.25,37.4642503740301
2046.5,37.4092905605233
2046.75,37.3543307470165
2047,37.2993709335097
2047.25,37.2444111200028
2047.5,37.189451306496
2047.75,37.1344914929891
2048,37.1037215128214
2048.25,37.1137142061863
2048.5,37.1237068995512
2048.75,37.133699592916
2049,37.1436922862809
2049.25,37.1536849796458
2049.5,37.1636776730107
2049.75,37.1736703663756
2050,37.1836630597404
2050.25,37.1936557531053
2050.5,37.2036484464702
2050.75,37.2136411398351
2051,37.2236338332
2051.25,37.2336265265648
2051.5,37.2436192199297
2051.75,37.2536119132946
2052,37.2636046066595
2052.25,37.2735973000244
2052.5,37.2835899933892
2052.75,37.2935826867541
2053,37.3160892105355
2053.25,37.3610563306774
2053.5,37.4060234508194
2053.75,37.4509905709613
2054,37.4959576911033
2054.25,37.5409248112453
2054.5,37.5858919313872
2054.75,37.6308590515291
2055,37.6758261716712
2055.25,37.7207932918131
2055.5,37.765760411955
2055.75,37.810727532097
2056,37.855694652239
2056.25,37.9006617723809
2056.5,37.9456288925229
2056.75,37.9905960126648
2057,38.0355631328068
2057.25,38.0805302529488
2057.5,38.1254973730907
2057.75,38.1704644932326
2058,38.2222901082078
2058.25,38.2872426150795
2058.5,38.3521951219512
2058.75,38.4171476288229
2059,38.4821001356947
2059.25,38.5470526425664
2059.5,38.6120051494381
2059.75,38.6769576563098
2060,38.7419101631816
2060.25,38.8068626700532
2060.5,38.8718151769249
2060.75,38.9367676837966
2061,39.0017201906684
2061.25,39.0666726975401
2061.5,39.1316252044118
2061.75,39.1965777112835
2062,39.2615302181553
2062.25,39.326482725027
2062.5,39.3914352318987
2062.75,39.4563877387703
2063,39.481942869072
2063.25,39.4269830555652
2063.5,39.3720232420584
2063.75,39.3170634285516
2064,39.2621036150447
2064.25,39.2071438015379
2064.5,39.1521839880311
2064.75,39.0972241745242
2065,39.0422643610173
2065.25,38.9873045475105
2065.5,38.9323447340037
2065.75,38.8773849204969
2066,38.82242510699
2066.25,38.7674652934832
2066.5,38.7125054799764
2066.75,38.6575456664696
2067,38.6025858529626
2067.25,38.5476260394558
2067.5,38.492666225949
2067.75,38.4377064124422
2068,38.3843150899412
2068.25,38.3343516231168
2068.5,38.2843881562924
2068.75,38.2344246894681
2069,38.1844612226436
2069.25,38.1344977558192
2069.5,38.0845342889948
2069.75,38.0345708221705
2070,37.984607355346
2070.25,37.9346438885216
2070.5,37.8846804216972
2070.75,37.8347169548729
2071,37.7847534880484
2071.25,37.734790021224
2071.5,37.6848265543997
2071.75,37.6348630875753
2072,37.5848996207508
2072.25,37.5349361539264
2072.5,37.4849726871021
2072.75,37.4350092202777
2073,37.4149542465468
2073.25,37.4649177133711
2073.5,37.5148811801955
2073.75,37.5648446470199
2074,37.6148081138444
2074.25,37.6647715806687
2074.5,37.7147350474931
2074.75,37.7646985143175
2075,37.8146619811419
2075.25,37.8646254479663
2075.5,37.9145889147907
2075.75,37.9645523816151
2076,38.0145158484395
2076.25,38.0644793152639
2076.5,38.1144427820883
2076.75,38.1644062489127
2077,38.2143697157371
2077.25,38.2643331825615
2077.5,38.3142966493859
2077.75,38.3642601162102
2078,38.3957329250896
2078.25,38.3807438850423
2078.5,38.365754844995
2078.75,38.3507658049476
2079,38.3357767649003
2079.25,38.320787724853
2079.5,38.3057986848057
2079.75,38.2908096447584
2080,38.275820604711
2080.25,38.2608315646637
2080.5,38.2458425246164
2080.75,38.2308534845691
2081,38.2158644445218
2081.25,38.2008754044744
2081.5,38.1858863644271
2081.75,38.1708973243798
2082,38.1559082843325
2082.25,38.1409192442852
2082.5,38.1259302042379
2082.75,38.1109411641905
2083,38.1175407953794
2083.25,38.1824933022511
2083.5,38.2474458091228
2083.75,38.3123983159945
2084,38.3773508228663
2084.25,38.442303329738
2084.5,38.5072558366097
2084.75,38.5722083434814
2085,38.6371608503532
2085.25,38.7021133572249
2085.5,38.7670658640966
2085.75,38.8320183709682
2086,38.89697087784
2086.25,38.9619233847117
2086.5,39.0268758915834
2086.75,39.0918283984551
2087,39.1567809053269
2087.25,39.2217334121986
2087.5,39.2866859190703
2087.75,39.351638425942
2088,39.4127622560106
2088.25,39.462725722835
2088.5,39.5126891896593
2088.75,39.5626526564837
2089,39.6126161233082
2089.25,39.6625795901326
2089.5,39.7125430569569
2089.75,39.7625065237813
2090,39.8124699906058
2090.25,39.8624334574301
2090.5,39.9123969242545
2090.75,39.9623603910789
2091,40.0123238579034
2091.25,40.0622873247277
2091.5,40.1122507915521
2091.75,40.1622142583765
2092,40.2121777252009
2092.25,40.2621411920253
2092.5,40.3121046588497
2092.75,40.3620681256741
2093,40.4132347517484
2093.25,40.4681945652552
2093.5,40.523154378762
2093.75,40.5781141922688
2094,40.6330740057757
2094.25,40.6880338192825
2094.5,40.7429936327894
2094.75,40.7979534462962
2095,40.8529132598031
2095.25,40.9078730733099
2095.5,40.9628328868167
2095.75,41.0177927003236
2096,41.0727525138304
2096.25,41.1277123273372
2096.5,41.182672140844
2096.75,41.237631954351
2097,41.2925917678578
2097.25,41.3475515813646
2097.5,41.4025113948714
2097.75,41.4574712083783
2098,41.5022601857973
2098.25,41.5122528791622
2098.5,41.522245572527
2098.75,41.5322382658919
2099,41.5422309592568
2099.25,41.5522236526217
2099.5,41.5622163459866
2099.75,41.5722090393515
2100,41.5822017327163
2100.25,41.5921944260812
2100.5,41.6021871194461
2100.75,41.612179812811
2101,41.6221725061759
2101.25,41.6321651995407
2101.5,41.6421578929056
2101.75,41.6521505862705
2102,41.6621432796354
2102.25,41.6721359730002
2102.5,41.6821286663651
2102.75,41.69212135973
2103,41.6714602832191
2103.25,41.5365589227933
2103.5,41.4016575623675
2103.75,41.2667562019414
2104,41.1318548415156
2104.25,40.9969534810898
2104.5,40.862052120664
2104.75,40.7271507602379
2105,40.5922493998121
2105.25,40.4573480393863
2105.5,40.3224466789605
2105.75,40.1875453185344
2106,40.0526439581086
2106.25,39.9177425976828
2106.5,39.782841237257
2106.75,39.6479398768309
2107,39.5130385164051
2107.25,39.3781371559793
2107.5,39.2432357955535
2107.75,39.1083344351274
2108,38.9940962388226
2108.25,38.964118158728
2108.5,38.9341400786333
2108.75,38.9041619985387
2109,38.874183918444
2109.25,38.8442058383494
2109.5,38.8142277582548
2109.75,38.7842496781601
2110,38.7542715980655
2110.25,38.7242935179709
2110.5,38.6943154378762
2110.75,38.6643373577815
2111,38.6343592776869
2111.25,38.6043811975923
2111.5,38.5744031174977
2111.75,38.544425037403
2112,38.5144469573084
2112.25,38.4844688772138
2112.5,38.4544907971191
2112.75,38.4245127170244
2113,38.3781385477193
2113.25,38.2582262273408
2113.5,38.1383139069623
2113.75,38.0184015865836
2114,37.8984892662051
2114.25,37.7785769458266
2114.5,37.6586646254481
2114.75,37.5387523050694
2115,37.4188399846909
2115.25,37.2989276643124
2115.5,37.1790153439339
2115.75,37.0591030235551
2116,36.9391907031766
2116.25,36.8192783827981
2116.5,36.6993660624196
2116.75,36.5794537420409
2117,36.4595414216624
2117.25,36.3396291012839
2117.5,36.2197167809054
2117.75,36.0998044605267
2118,36.0209456873456
2118.25,36.1458543544065
2118.5,36.2707630214675
2118.75,36.3956716885286
2119,36.5205803555896
2119.25,36.6454890226505
2119.5,36.7703976897114
2119.75,36.8953063567726
2120,37.0202150238335
2120.25,37.1451236908945
2120.5,37.2700323579554
2120.75,37.3949410250166
2121,37.5198496920775
2121.25,37.6447583591385
2121.5,37.7696670261994
2121.75,37.8945756932605
2122,38.0194843603215
2122.25,38.1443930273824
2122.5,38.2693016944434
2122.75,38.3942103615045
2123,38.5
2123.25,38.5
2123.5,38.5
2123.75,38.5
2124,38.5
2124.25,38.5
2124.5,38.5
2124.75,38.5
2125,38.5
2125.25,38.5
2125.5,38.5
2125.75,38.5
2126,38.5
2126.25,38.5
2126.5,38.5
2126.75,38.5
2127,38.5
2127.25,38.5
2127.5,38.5
2127.75,38.5
2128,38.4972332208344
2128.25,38.4772478341046
2128.5,38.4572624473749
2128.75,38.4372770606451
2129,38.4172916739153
2129.25,38.3973062871856
2129.5,38.3773209004558
2129.75,38.357335513726
2130,38.3373501269963
2130.25,38.3173647402665
2130.5,38.2973793535368
2130.75,38.277393966807
2131,38.2574085800772
2131.25,38.2374231933475
2131.5,38.2174378066177
2131.75,38.197452419888
2132,38.1774670331582
2132.25,38.1574816464285
2132.5,38.1374962596987
2132.75,38.1175108729689
2133,38.0913392018371
2133.25,38.021390348283
2133.5,37.9514414947289
2133.75,37.8814926411746
2134,37.8115437876205
2134.25,37.7415949340664
2134.5,37.6716460805122
2134.75,37.601697226958
2135,37.5317483734039
2135.25,37.4617995198497
2135.5,37.3918506662956
2135.75,37.3219018127414
2136,37.2519529591872
2136.25,37.1820041056331
2136.5,37.112055252079
2136.75,37.0421063985247
2137,36.9721575449706
2137.25,36.9022086914165
2137.5,36.8322598378624
2137.75,36.7623109843081
2138,36.691816568665
2138.25,36.6168713684284
2138.5,36.5419261681919
2138.75,36.4669809679552
2139,36.3920357677186
2139.25,36.317090567482
2139.5,36.2421453672455
2139.75,36.1672001670088
2140,36.0922549667722
2140.25,36.0173097665357
2140.5,35.942364566299
2140.75,35.8674193660624
2141,35.7924741658258
2141.25,35.7175289655893
2141.5,35.6425837653526
2141.75,35.567638565116
2142,35.4926933648795
2142.25,35.4177481646429
2142.5,35.3428029644062
2142.75,35.2678577641696
2143,35.1981100170488
2143.25,35.1781246303191
2143.5,35.1581392435893
2143.75,35.1381538568595
2144,35.1181684701298
2144.25,35.0981830834
2144.5,35.0781976966703
2144.75,35.0582123099405
2145,35.0382269232108
2145.25,35.018241536481
2145.5,34.9982561497512
2145.75,34.9782707630215
2146,34.9582853762917
2146.25,34.938299989562
2146.5,34.9183146028322
2146.75,34.8983292161024
2147,34.8783438293727
2147.25,34.8583584426429
2147.5,34.8383730559131
2147.75,34.8183876691834
2148,34.8047931526391
2148.25,34.8647493128283
2148.5,34.9247054730177
2148.75,34.9846616332069
2149,35.0446177933962
2149.25,35.1045739535854
2149.5,35.1645301137748
2149.75,35.224486273964
2150,35.2844424341533
2150.25,35.3443985943425
2150.5,35.4043547545319
2150.75,35.4643109147211
2151,35.5242670749104
2151.25,35.5842232350996
2151.5,35.644179395289
2151.75,35.7041355554782
2152,35.7640917156675
2152.25,35.8240478758567
2152.5,35.8840040360461
2152.75,35.9439601962353
2153,36.0048954455307
2153.25,36.0798406457673
2153.5,36.154785846004
2153.75,36.2297310462406
2154,36.3046762464771
2154.25,36.3796214467137
2154.5,36.4545666469504
2154.75,36.529511847187
2155,36.6044570474235
2155.25,36.6794022476601
2155.5,36.7543474478968
2155.75,36.8292926481333
2156,36.9042378483699
2156.25,36.9791830486065
2156.5,37.0541282488432
2156.75,37.1290734490797
2157,37.2040186493163
2157.25,37.2789638495528
2157.5,37.3539090497895
2157.75,37.4288542500261
2158,37.5035461535785
2158.25,37.5734950071326
2158.5,37.6434438606869
2158.75,37.713392714241
2159,37.7833415677951
2159.25,37.8532904213492
2159.5,37.9232392749035
2159.75,37.9931881284576
2160,38.0631369820117
2160.25,38.1330858355659
2160.5,38.2030346891201
2160.75,38.2729835426742
2161,38.3429323962283
2161.25,38.4128812497825
2161.5,38.4828301033367
2161.75,38.5527789568908
2162,38.622727810445
2162.25,38.6926766639991
2162.5,38.7626255175534
2162.75,38.8325743711075
2163,38.8994593090011
2163.25,38.8844702689538
2163.5,38.8694812289064
2163.75,38.8544921888591
2164,38.8395031488118
2164.25,38.8245141087645
2164.5,38.8095250687172
2164.75,38.7945360286698
2165,38.7795469886225
2165.25,38.7645579485752
2165.5,38.7495689085279
2165.75,38.7345798684806
2166,38.7195908284333
2166.25,38.7046017883859
2166.5,38.6896127483386
2166.75,38.6746237082913
2167,38.659634668244
2167.25,38.6446456281967
2167.5,38.6296565881493
2167.75,38.614667548102
2168,38.601393131763
2168.25,38.6663456386346
2168.5,38.7312981455064
2168.75,38.7962506523781
2169,38.8612031592498
2169.25,38.9261556661215
2169.5,38.9911081729933
2169.75,39.056060679865
2170,39.1210131867367
2170.25,39.1859656936084
2170.5,39.2509182004802
2170.75,39.3158707073519
2171,39.3808232142235
2171.25,39.4457757210952
2171.5,39.510728227967
2171.75,39.5756807348387
2172,39.6406332417104
2172.25,39.7055857485821
2172.5,39.7705382554539
2172.75,39.8354907623256
2173,39.9000681952611
2173.25,39.910060888626
2173.5,39.9200535819909
2173.75,39.9300462753558
2174,39.9400389687206
2174.25,39.9500316620855
2174.5,39.9600243554504
2174.75,39.9700170488153
2175,39.9800097421802
2175.25,39.990002435545
2175.5,39.9999951289099
2175.75,40.0099878222748
2176,40.0199805156397
2176.25,40.0299732090045
2176.5,40.0399659023694
2176.75,40.0499585957343
2177,40.0599512890992
2177.25,40.0699439824641
2177.5,40.079936675829
2177.75,40.0899293691938
2178,40.0999220625587
2178.25,40.194190181274
2178.5,40.2891207682405
2178.75,40.3840513552068
2179,40.4789819421731
2179.25,40.5739125291395
2179.5,40.6688431161059
2179.75,40.7637737030722
2180,40.8587042900386
2180.25,40.9536348770049
2180.5,41.0485654639714
2180.75,41.1434960509377
2181,41.238426637904
2181.25,41.3333572248703
2181.5,41.4282878118368
2181.75,41.5232183988031
2182,41.6181489857694
2182.25,41.7130795727357
2182.5,41.8080101597022
2182.75,41.9029407466685
2183,41.9978713336348
2183.25,41.9853470651682
2183.5,41.9703580251209
2183.75,41.9553689850736
2184,41.9403799450263
2184.25,41.925390904979
2184.5,41.9104018649316
2184.75,41.8954128248843
2185,41.880423784837
2185.25,41.8654347447897
2185.5,41.8504457047424
2185.75,41.835456664695
2186,41.8204676246477
2186.25,41.8054785846004
2186.5,41.7904895445531
2186.75,41.7755005045058
2187,41.7605114644585
2187.25,41.7455224244111
2187.5,41.7305333843638
2187.75,41.7155443443165
2188,41.7005553042692
2188.25,41.5893413590341
2188.5,41.474425385338
2188.75,41.3595094116419
2189,41.2445934379459
2189.25,41.1296774642496
2189.5,41.0147614905535
2189.75,40.8998455168575
2190,40.7849295431614
2190.25,40.6700135694652
2190.5,40.5550975957691
2190.75,40.440181622073
2191,40.325265648377
2191.25,40.2103496746807
2191.5,40.0954337009846
2191.75,39.9805177272886
2192,39.8656017535925
2192.25,39.7506857798962
2192.5,39.6357698062002
2192.75,39.5208538325041
2193,39.4059378588081
2193.25,39.3573563898264
2193.5,39.3123892696844
2193.75,39.2674221495425
2194,39.2224550294005
2194.25,39.1774879092585
2194.5,39.1325207891166
2194.75,39.0875536689747
2195,39.0425865488327
2195.25,38.9976194286907
2195.5,38.9526523085488
2195.75,38.9076851884068
2196,38.8627180682649
2196.25,38.8177509481229
2196.5,38.7727838279809
2196.75,38.727816707839
2197,38.6828495876971
2197.25,38.637882467555
2197.5,38.5929153474131
2197.75,38.5479482272712
2198,38.5029811071292
2198.25,38.3740419609616
2198.5,38.2391406005358
2198.75,38.10423924011
2199,37.9693378796842
2199.25,37.8344365192581
2199.5,37.6995351588323
2199.75,37.5646337984065
2200,37.4297324379807
2200.25,37.2948310775546
2200.5,37.1599297171288
2200.75,37.025028356703
2201,36.8901269962772
2201.25,36.7552256358512
2201.5,36.6203242754253
2201.75,36.4854229149995
2202,36.3505215545737
2202.25,36.2156201941477
2202.5,36.0807188337219
2202.75,35.945817473296
2203,35.8109161128702
2203.25,35.7311193069134
2203.5,35.6561741066769
2203.75,35.5812289064403
2204,35.5062837062037
2204.25,35.431338505967
2204.5,35.3563933057305
2204.75,35.2814481054939
2205,35.2065029052574
2205.25,35.1315577050207
2205.5,35.0566125047841
2205.75,34.9816673045475
2206,34.906722104311
2206.25,34.8317769040743
2206.5,34.7568317038377
2206.75,34.6818865036012
2207,34.6069413033646
2207.25,34.5319961031279
2207.5,34.4570509028913
2207.75,34.3821057026548
2208,34.3071605024182
2208.25,34.2728861208726
2208.5,34.242908040778
2208.75,34.2129299606834
2209,34.1829518805887
2209.25,34.1529738004941
2209.5,34.1229957203994
2209.75,34.0930176403048
2210,34.0630395602102
2210.25,34.0330614801155
2210.5,34.0030834000209
2210.75,33.9731053199263
2211,33.9431272398316
2211.25,33.913149159737
2211.5,33.8831710796423
2211.75,33.8531929995477
2212,33.8232149194531
2212.25,33.7932368393584
2212.5,33.7632587592638
2212.75,33.7332806791691
2213,33.7033025990745
2213.25,33.7755805295571
2213.5,33.8605184231585
2213.75,33.94545631676
2214,34.0303942103614
2214.25,34.115332103963
2214.5,34.2002699975644
2214.75,34.2852078911659
2215,34.3701457847673
2215.25,34.4550836783689
2215.5,34.5400215719704
2215.75,34.6249594655718
2216,34.7098973591732
2216.25,34.7948352527748
2216.5,34.8797731463762
2216.75,34.9647110399777
2217,35.0496489335791
2217.25,35.1345868271807
2217.5,35.2195247207821
2217.75,35.3044626143836
2218,35.389400507985
2218.25,35.4612198601302
2218.5,35.5311687136843
2218.75,35.6011175672384
2219,35.6710664207925
2219.25,35.7410152743468
2219.5,35.8109641279009
2219.75,35.880912981455
2220,35.9508618350091
2220.25,36.0208106885634
2220.5,36.0907595421175
2220.75,36.1607083956716
2221,36.2306572492258
2221.25,36.30060610278
2221.5,36.3705549563341
2221.75,36.4405038098883
2222,36.5104526634424
2222.25,36.5804015169966
2222.5,36.6503503705508
2222.75,36.7202992241049
2223,36.790248077659
2223.25,36.9074945200237
2223.5,37.0324031870846
2223.75,37.1573118541456
2224,37.2822205212065
2224.25,37.4071291882677
2224.5,37.5320378553286
2224.75,37.6569465223895
2225,37.7818551894505
2225.25,37.9067638565116
2225.5,38.0316725235726
2225.75,38.1565811906335
2226,38.2814898576944
2226.25,38.4063985247556
2226.5,38.5313071918165
2226.75,38.6562158588775
2227,38.7811245259384
2227.25,38.9060331929996
2227.5,39.0309418600605
2227.75,39.1558505271214
2228,39.2807591941824
2228.25,39.3084534288995
2228.5,39.3184461222644
2228.75,39.3284388156292
2229,39.3384315089941
2229.25,39.348424202359
2229.5,39.3584168957239
2229.75,39.3684095890887
2230,39.3784022824536
2230.25,39.3883949758185
2230.5,39.3983876691834
2230.75,39.4083803625483
2231,39.4183730559132
2231.25,39.428365749278
2231.5,39.4383584426429
2231.75,39.4483511360078
2232,39.4583438293727
2232.25,39.4683365227376
2232.5,39.4783292161024
2232.75,39.4883219094673
2233,39.4983146028322
2233.25,39.4501562228176
2233.5,39.3902000626283
2233.75,39.3302439024391
2234,39.2702877422497
2234.25,39.2103315820605
2234.5,39.1503754218712
2234.75,39.090419261682
2235,39.0304631014926
2235.25,38.9705069413034
2235.5,38.9105507811141
2235.75,38.8505946209249
2236,38.7906384607355
2236.25,38.7306823005462
2236.5,38.670726140357
2236.75,38.6107699801678
2237,38.5508138199784
2237.25,38.4908576597891
2237.5,38.4309014995999
2237.75,38.3709453394106
2238,38.3109891792213
2238.25,38.2469524372847
2238.5,38.181999930413
2238.75,38.1170474235413
2239,38.0520949166695
2239.25,37.9871424097978
2239.5,37.9221899029262
2239.75,37.8572373960545
2240,37.7922848891827
2240.25,37.727332382311
2240.5,37.6623798754393
2240.75,37.5974273685676
2241,37.5324748616958
2241.25,37.4675223548241
2241.5,37.4025698479524
2241.75,37.3376173410807
2242,37.2726648342089
2242.25,37.2077123273372
2242.5,37.1427598204656
2242.75,37.0778073135939
2243,37.0128548067221
2243.25,36.967939876831
2243.5,36.9279691033715
2243.75,36.887998329912
2244,36.8480275564524
2244.25,36.8080567829929
2244.5,36.7680860095334
2244.75,36.7281152360739
2245,36.6881444626144
2245.25,36.6481736891549
2245.5,36.6082029156954
2245.75,36.5682321422359
2246,36.5282613687763
2246.25,36.4882905953168
2246.5,36.4483198218573
2246.75,36.4083490483978
2247,36.3683782749382
2247.25,36.3284075014787
2247.5,36.2884367280192
2247.75,36.2484659545597
2248,36.2084951811002
2248.25,36.1842622038203
2248.5,36.1642768170906
2248.75,36.1442914303608
2249,36.124306043631
2249.25,36.1043206569013
2249.5,36.0843352701715
2249.75,36.0643498834418
2250,36.044364496712
2250.25,36.0243791099823
2250.5,36.0043937232525
2250.75,35.9844083365228
2251,35.964422949793
2251.25,35.9444375630632
2251.5,35.9244521763335
2251.75,35.9044667896037
2252,35.8844814028739
2252.25,35.8644960161442
2252.5,35.8445106294144
2252.75,35.8245252426847
2253,35.8045398559549
2253.25,35.8579207404057
2253.5,35.9328659406422
2253.75,36.0078111408788
2254,36.0827563411155
2254.25,36.1577015413521
2254.5,36.2326467415886
2254.75,36.3075919418252
2255,36.3825371420619
2255.25,36.4574823422984
2255.5,36.532427542535
2255.75,36.6073727427716
2256,36.6823179430083
2256.25,36.7572631432448
2256.5,36.8322083434814
2256.75,36.907153543718
2257,36.9820987439547
2257.25,37.0570439441912
2257.5,37.1319891444278
2257.75,37.2069343446643
2258,37.281879544901
2258.25,37.2962116836575
2258.5,37.2912153369751
2258.75,37.2862189902926
2259,37.2812226436102
2259.25,37.2762262969277
2259.5,37.2712299502453
2259.75,37.2662336035629
2260,37.2612372568804
2260.25,37.256240910198
2260.5,37.2512445635155
2260.75,37.2462482168331
2261,37.2412518701507
2261.25,37.2362555234682
2261.5,37.2312591767858
2261.75,37.2262628301033
2262,37.2212664834209
2262.25,37.2162701367385
2262.5,37.211273790056
2262.75,37.2062774433736
2263,37.2012810966911
2263.25,37.2
2263.5,37.2
2263.75,37.2
2264,37.2
2264.25,37.2
2264.5,37.2
2264.75,37.2
2265,37.2
2265.25,37.2
2265.5,37.2
2265.75,37.2
2266,37.2
2266.25,37.2
2266.5,37.2
2266.75,37.2
2267,37.2
2267.25,37.2
2267.5,37.2
2267.75,37.2
2268,37.2
2268.25,37.1672203472391
2268.5,37.1222532270972
2268.75,37.0772861069553
2269,37.0323189868133
2269.25,36.9873518666713
2269.5,36.9423847465294
2269.75,36.8974176263874
2270,36.8524505062454
2270.25,36.8074833861035
2270.5,36.7625162659616
2270.75,36.7175491458196
2271,36.6725820256776
2271.25,36.6276149055357
2271.5,36.5826477853937
2271.75,36.5376806652518
2272,36.4927135451098
2272.25,36.4477464249678
2272.5,36.4027793048259
2272.75,36.357812184684
2273,36.3128450645419
2273.25,36.3642441112
2273.5,36.4541783514839
2273.75,36.5441125917679
2274,36.6340468320518
2274.25,36.7239810723357
2274.5,36.8139153126195
2274.75,36.9038495529036
2275,36.9937837931874
2275.25,37.0837180334713
2275.5,37.1736522737552
2275.75,37.2635865140392
2276,37.3535207543231
2276.25,37.443454994607
2276.5,37.5333892348909
2276.75,37.6233234751749
2277,37.7132577154588
2277.25,37.8031919557426
2277.5,37.8931261960265
2277.75,37.9830604363106
2278,38.0729946765944
2278.25,38.0895118471869
2278.5,38.0745228071396
2278.75,38.0595337670923
2279,38.044544727045
2279.25,38.0295556869977
2279.5,38.0145666469504
2279.75,37.999577606903
2280,37.9845885668557
2280.25,37.9695995268084
2280.5,37.9546104867611
2280.75,37.9396214467137
2281,37.9246324066664
2281.25,37.9096433666191
2281.5,37.8946543265718
2281.75,37.8796652865245
2282,37.8646762464772
2282.25,37.8496872064298
2282.5,37.8346981663825
2282.75,37.8197091263352
2283,37.8047200862879
2283.25,37.7075794161651
2283.5,37.5726780557393
2283.75,37.4377766953132
2284,37.3028753348874
2284.25,37.1679739744616
2284.5,37.0330726140358
2284.75,36.8981712536098
2285,36.7632698931839
2285.25,36.6283685327581
2285.5,36.4934671723323
2285.75,36.3585658119063
2286,36.2236644514805
2286.25,36.0887630910546
2286.5,35.9538617306288
2286.75,35.8189603702028
2287,35.684059009777
2287.25,35.5491576493512
2287.5,35.4142562889253
2287.75,35.2793549284993
2288,35.1444535680735
2288.25,35.0062022894124
2288.5,34.8663045823041
2288.75,34.7264068751956
2289,34.5865091680874
2289.25,34.4466114609791
2289.5,34.3067137538709
2289.75,34.1668160467624
2290,34.0269183396541
2290.25,33.8870206325459
2290.5,33.7471229254377
2290.75,33.6072252183291
2291,33.4673275112209
2291.25,33.3274298041127
2291.5,33.1875320970044
2291.75,33.0476343898959
2292,32.9077366827877
2292.25,32.7678389756794
2292.5,32.6279412685712
2292.75,32.4880435614627
2293,32.3481458543544
2293.25,32.3360453707247
2293.5,32.3910051842315
2293.75,32.4459649977384
2294,32.5009248112453
2294.25,32.5558846247521
2294.5,32.6108444382589
2294.75,32.6658042517658
2295,32.7207640652726
2295.25,32.7757238787794
2295.5,32.8306836922862
2295.75,32.8856435057931
2296,32.9406033193
2296.25,32.9955631328068
2296.5,33.0505229463136
2296.75,33.1054827598205
2297,33.1604425733273
2297.25,33.2154023868341
2297.5,33.2703622003409
2297.75,33.3253220138478
2298,33.3802818273546
2298.25,33.4704832817229
2298.5,33.5804029087365
2298.75,33.6903225357504
2299,33.800242162764
2299.25,33.9101617897776
2299.5,34.0200814167912
2299.75,34.1300010438051
2300,34.2399206708187
2300.25,34.3498402978323
2300.5,34.4597599248459
2300.75,34.5696795518598
2301,34.6795991788734
2301.25,34.789518805887
2301.5,34.8994384329006
2301.75,35.0093580599144
2302,35.1192776869281
2302.25,35.2291973139417
2302.5,35.3391169409553
2302.75,35.4490365679691
2303,35.5589561949828
2303.25,35.590607842455
2303.5,35.5756188024077
2303.75,35.5606297623604
2304,35.5456407223131
2304.25,35.5306516822658
2304.5,35.5156626422185
2304.75,35.5006736021711
2305,35.4856845621238
2305.25,35.4706955220765
2305.5,35.4557064820292
2305.75,35.4407174419818
2306,35.4257284019345
2306.25,35.4107393618872
2306.5,35.3957503218399
2306.75,35.3807612817926
2307,35.3657722417452
2307.25,35.3507832016979
2307.5,35.3357941616506
2307.75,35.3208051216033
2308,35.305816081556
2308.25,35.238846943391
2308.5,35.1389200097423
2308.75,35.0389930760934
2309,34.9390661424446
2309.25,34.8391392087959
2309.5,34.7392122751471
2309.75,34.6392853414982
2310,34.5393584078494
2310.25,34.4394314742007
2310.5,34.3395045405519
2310.75,34.239577606903
2311,34.1396506732543
2311.25,34.0397237396055
2311.5,33.9397968059568
2311.75,33.8398698723078
2312,33.7399429386591
2312.25,33.6400160050103
2312.5,33.5400890713616
2312.75,33.4401621377126
2313,33.3402352040639
2313.25,33.3059691729585
2313.5,33.3159618663234
2313.75,33.3259545596882
2314,33.3359472530531
2314.25,33.345939946418
2314.5,33.3559326397829
2314.75,33.3659253331478
2315,33.3759180265126
2315.25,33.3859107198775
2315.5,33.3959034132424
2315.75,33.4058961066073
2316,33.4158887999722
2316.25,33.425881493337
2316.5,33.4358741867019
2316.75,33.4458668800668
2317,33.4558595734317
2317.25,33.4658522667966
2317.5,33.4758449601614
2317.75,33.4858376535263
2318,33.4958303468912
2318.25,33.4737963188477
2318.5,33.4288291987057
2318.75,33.3838620785637
2319,33.3388949584218
2319.25,33.2939278382798
2319.5,33.2489607181378
2319.75,33.2039935979959
2320,33.1590264778539
2320.25,33.114059357712
2320.5,33.06909223757
2320.75,33.0241251174281
2321,32.9791579972861
2321.25,32.9341908771442
2321.5,32.8892237570022
2321.75,32.8442566368602
2322,32.7992895167183
2322.25,32.7543223965764
2322.5,32.7093552764343
2322.75,32.6643881562924
2323,32.6194210361505
2323.25,32.6596075293134
2323.5,32.7645308096448
2323.75,32.869454089976
2324,32.9743773703072
2324.25,33.0793006506384
2324.5,33.1842239309698
2324.75,33.2891472113009
2325,33.3940704916321
2325.25,33.4989937719633
2325.5,33.6039170522947
2325.75,33.7088403326259
2326,33.8137636129571
2326.25,33.9186868932883
2326.5,34.0236101736196
2326.75,34.1285334539508
2327,34.233456734282
2327.25,34.3383800146132
2327.5,34.4433032949446
2327.75,34.5482265752757
2328,34.6531498556069
2328.25,34.6640499634669
2328.5,34.5990974565951
2328.75,34.5341449497234
2329,34.4691924428517
2329.25,34.40423993598
2329.5,34.3392874291082
2329.75,34.2743349222365
2330,34.2093824153648
2330.25,34.1444299084932
2330.5,34.0794774016213
2330.75,34.0145248947497
2331,33.949572387878
2331.25,33.8846198810063
2331.5,33.8196673741345
2331.75,33.7547148672628
2332,33.6897623603911
2332.25,33.6248098535194
2332.5,33.5598573466476
2332.75,33.4949048397759
2333,33.4299523329042
2333.25,33.3919230367767
2333.5,33.3769339967294
2333.75,33.3619449566821
2334,33.3469559166348
2334.25,33.3319668765875
2334.5,33.3169778365401
2334.75,33.3019887964928
2335,33.2869997564455
2335.25,33.2720107163982
2335.5,33.2570216763509
2335.75,33.2420326363035
2336,33.2270435962562
2336.25,33.2120545562089
2336.5,33.1970655161616
2336.75,33.1820764761143
2337,33.167087436067
2337.25,33.1520983960196
2337.5,33.1371093559723
2337.75,33.122120315925
2338,33.1071312758777
2338.25,33.0895229811072
2338.5,33.0695375943774
2338.75,33.0495522076476
2339,33.0295668209179
2339.25,33.0095814341881
2339.5,32.9895960474583
2339.75,32.9696106607286
2340,32.9496252739988
2340.25,32.9296398872691
2340.5,32.9096545005393
2340.75,32.8896691138095
2341,32.8696837270798
2341.25,32.84969834035
2341.5,32.8297129536203
2341.75,32.8097275668905
2342,32.7897421801608
2342.25,32.769756793431
2342.5,32.7497714067012
2342.75,32.7297860199715
2343,32.7098006332417
2343.25,32.7229156953481
2343.5,32.7678828154901
2343.75,32.812849935632
2344,32.857817055774
2344.25,32.9027841759159
2344.5,32.9477512960579
2344.75,32.9927184161999
2345,33.0376855363418
2345.25,33.0826526564837
2345.5,33.1276197766257
2345.75,33.1725868967677
2346,33.2175540169096
2346.25,33.2625211370516
2346.5,33.3074882571936
2346.75,33.3524553773355
2347,33.3974224974775
2347.25,33.4423896176194
2347.5,33.4873567377614
2347.75,33.5323238579033
2348,33.5772909780453
2348.25,33.562903169688
2348.5,33.4879579694513
2348.75,33.4130127692147
2349,33.3380675689782
2349.25,33.2631223687416
2349.5,33.1881771685049
2349.75,33.1132319682683
2350,33.0382867680318
2350.25,32.9633415677952
2350.5,32.8883963675585
2350.75,32.813451167322
2351,32.7385059670854
2351.25,32.6635607668488
2351.5,32.5886155666121
2351.75,32.5136703663756
2352,32.438725166139
2352.25,32.3637799659025
2352.5,32.2888347656658
2352.75,32.2138895654292
2353,32.1389443651926
2353.25,32.1024000556696
2353.5,32.107396402352
2353.75,32.1123927490345
2354,32.1173890957169
2354.25,32.1223854423994
2354.5,32.1273817890818
2354.75,32.1323781357642
2355,32.1373744824467
2355.25,32.1423708291291
2355.5,32.1473671758116
2355.75,32.152363522494
2356,32.1573598691764
2356.25,32.1623562158589
2356.5,32.1673525625413
2356.75,32.1723489092238
2357,32.1773452559062
2357.25,32.1823416025886
2357.5,32.1873379492711
2357.75,32.1923342959535
2358,32.197330642636
2358.25,32.2232698931839
2358.5,32.2732333600084
2358.75,32.3231968268327
2359,32.3731602936571
2359.25,32.4231237604815
2359.5,32.473087227306
2359.75,32.5230506941303
2360,32.5730141609547
2360.25,32.6229776277791
2360.5,32.6729410946035
2360.75,32.7229045614279
2361,32.7728680282523
2361.25,32.8228314950767
2361.5,32.8727949619011
2361.75,32.9227584287255
2362,32.9727218955499
2362.25,33.0226853623743
2362.5,33.0726488291987
2362.75,33.1226122960231
2363,33.1725757628475
2363.25,33.211269614836
2363.5,33.2362513482482
2363.75,33.2612330816603
2364,33.2862148150725
2364.25,33.3111965484848
2364.5,33.3361782818969
2364.75,33.3611600153091
2365,33.3861417487213
2365.25,33.4111234821336
2365.5,33.4361052155457
2365.75,33.4610869489579
2366,33.4860686823701
2366.25,33.5110504157824
2366.5,33.5360321491945
2366.75,33.5610138826067
2367,33.5859956160189
2367.25,33.6109773494311
2367.5,33.6359590828433
2367.75,33.6609408162555
2368,33.6859225496677
2368.25,33.702180856616
2368.5,33.7071772032984
2368.75,33.7121735499809
2369,33.7171698966633
2369.25,33.7221662433457
2369.5,33.7271625900282
2369.75,33.7321589367106
2370,33.7371552833931
2370.25,33.7421516300755
2370.5,33.7471479767579
2370.75,33.7521443234404
2371,33.7571406701228
2371.25,33.7621370168053
2371.5,33.7671333634877
2371.75,33.7721297101701
2372,33.7771260568526
2372.25,33.782122403535
2372.5,33.7871187502175
2372.75,33.7921150968999
2373,33.7971114435823
2373.25,33.7978922097352
2373.5,33.7928958630528
2373.75,33.7878995163703
2374,33.7829031696879
2374.25,33.7779068230055
2374.5,33.772910476323
2374.75,33.7679141296406
2375,33.7629177829581
2375.25,33.7579214362757
2375.5,33.7529250895933
2375.75,33.7479287429108
2376,33.7429323962284
2376.25,33.7379360495459
2376.5,33.7329397028635
2376.75,33.7279433561811
2377,33.7229470094986
2377.25,33.7179506628162
2377.5,33.7129543161337
2377.75,33.7079579694513
2378,33.7029616227689
2378.25,33.7386597543579
2378.5,33.8335903413242
2378.75,33.9285209282906
2379,34.0234515152569
2379.25,34.1183821022234
2379.5,34.2133126891897
2379.75,34.308243276156
2380,34.4031738631223
2380.25,34.4981044500888
2380.5,34.5930350370551
2380.75,34.6879656240214
2381,34.7828962109877
2381.25,34.8778267979542
2381.5,34.9727573849205
2381.75,35.0676879718868
2382,35.1626185588531
2382.25,35.2575491458196
2382.5,35.3524797327859
2382.75,35.4474103197522
2383,35.5423409067185
2383.25,35.5764601092516
2383.5,35.5165039490623
2383.75,35.4565477888731
2384,35.3965916286838
2384.25,35.3366354684945
2384.5,35.2766793083052
2384.75,35.216723148116
2385,35.1567669879267
2385.25,35.0968108277374
2385.5,35.0368546675481
2385.75,34.9768985073589
2386,34.9169423471696
2386.25,34.8569861869803
2386.5,34.797030026791
2386.75,34.7370738666017
2387,34.6771177064125
2387.25,34.6171615462231
2387.5,34.5572053860339
2387.75,34.4972492258446
2388,34.4372930656554
2388.25,34.3981114087888
2388.5,34.3931150621064
2388.75,34.388118715424
2389,34.3831223687415
2389.25,34.3781260220591
2389.5,34.3731296753766
2389.75,34.3681333286942
2390,34.3631369820118
2390.25,34.3581406353293
2390.5,34.3531442886469
2390.75,34.3481479419644
2391,34.343151595282
2391.25,34.3381552485996
2391.5,34.3331589019171
2391.75,34.3281625552347
2392,34.3231662085522
2392.25,34.3181698618698
2392.5,34.3131735151874
2392.75,34.3081771685049
2393,34.3031808218225
2393.25,34.3272328728994
2393.5,34.4021780731359
2393.75,34.4771232733725
2394,34.552068473609
2394.25,34.6270136738457
2394.5,34.7019588740823
2394.75,34.7769040743189
2395,34.8518492745554
2395.25,34.9267944747921
2395.5,35.0017396750287
2395.75,35.0766848752653
2396,35.1516300755018
2396.25,35.2265752757385
2396.5,35.3015204759751
2396.75,35.3764656762116
2397,35.4514108764482
2397.25,35.5263560766849
2397.5,35.6013012769215
2397.75,35.676246477158
2398,35.7511916773946
2398.25,35.765150829825
2398.5,35.6652238961762
2398.75,35.5652969625275
2399,35.4653700288787
2399.25,35.3654430952298
2399.5,35.265516161581
2399.75,35.1655892279323
2400,35.0656622942835
2400.25,34.9657353606346
2400.5,34.8658084269859
2400.75,34.7658814933371
2401,34.6659545596884
2401.25,34.5660276260394
2401.5,34.4661006923907
2401.75,34.3661737587419
2402,34.2662468250932
2402.25,34.1663198914443
2402.5,34.0663929577955
2402.75,33.9664660241468
2403,33.866539090498
2403.25,33.8083469607877
2403.5,33.8333286941999
2403.75,33.8583104276121
2404,33.8832921610243
2404.25,33.9082738944365
2404.5,33.9332556278487
2404.75,33.9582373612609
2405,33.9832190946731
2405.25,34.0082008280853
2405.5,34.0331825614975
2405.75,34.0581642949097
2406,34.0831460283219
2406.25,34.1081277617341
2406.5,34.1331094951463
2406.75,34.1580912285585
2407,34.1830729619707
2407.25,34.2080546953829
2407.5,34.2330364287951
2407.75,34.2580181622073
2408,34.2829998956195
2408.25,34.2872293935493
2408.5,34.2472586200898
2408.75,34.2072878466303
2409,34.1673170731707
2409.25,34.1273462997112
2409.5,34.0873755262517
2409.75,34.0474047527922
2410,34.0074339793326
2410.25,33.9674632058731
2410.5,33.9274924324136
2410.75,33.8875216589541
2411,33.8475508854946
2411.25,33.8075801120351
2411.5,33.7676093385756
2411.75,33.7276385651161
2412,33.6876677916565
2412.25,33.647697018197
2412.5,33.6077262447375
2412.75,33.567755471278
2413,33.5277846978184
2413.25,33.4893371838141
2413.5,33.454362757037
2413.75,33.4193883302599
2414,33.3844139034828
2414.25,33.3494394767057
2414.5,33.3144650499287
2414.75,33.2794906231516
2415,33.2445161963745
2415.25,33.2095417695974
2415.5,33.1745673428204
2415.75,33.1395929160433
2416,33.1046184892662
2416.25,33.0696440624891
2416.5,33.0346696357121
2416.75,32.999695208935
2417,32.9647207821579
2417.25,32.9297463553808
2417.5,32.8947719286037
2417.75,32.8597975018267
2418,32.8248230750496
2418.25,32.8058007724157
2418.5,32.8257861591455
2418.75,32.8457715458752
2419,32.865756932605
2419.25,32.8857423193347
2419.5,32.9057277060645
2419.75,32.9257130927942
2420,32.945698479524
2420.25,32.9656838662538
2420.5,32.9856692529835
2420.75,33.0056546397133
2421,33.0256400264431
2421.25,33.0456254131728
2421.5,33.0656107999026
2421.75,33.0855961866323
2422,33.1055815733621
2422.25,33.1255669600919
2422.5,33.1455523468216
2422.75,33.1655377335514
2423,33.1855231202811
2423.25,33.1807202254619
2423.5,33.1107713719078
2423.75,33.0408225183536
2424,32.9708736647994
2424.25,32.9009248112453
2424.5,32.8309759576911
2424.75,32.761027104137
2425,32.6910782505828
2425.25,32.6211293970286
2425.5,32.5511805434745
2425.75,32.4812316899204
2426,32.4112828363661
2426.25,32.341333982812
2426.5,32.2713851292579
2426.75,32.2014362757038
2427,32.1314874221495
2427.25,32.0615385685954
2427.5,31.9915897150413
2427.75,31.9216408614871
2428,31.8516920079329
2428.25,31.8104324832121
2428.5,31.8504032566716
2428.75,31.8903740301311
2429,31.9303448035907
2429.25,31.9703155770502
2429.5,32.0102863505097
2429.75,32.0502571239692
2430,32.0902278974288
2430.25,32.1301986708883
2430.5,32.1701694443478
2430.75,32.2101402178073
2431,32.2501109912669
2431.25,32.2900817647263
2431.5,32.3300525381858
2431.75,32.3700233116453
2432,32.4099940851049
2432.25,32.4499648585644
2432.5,32.4899356320239
2432.75,32.5299064054834
2433,32.569877178943
2433.25,32.6172339167044
2433.5,32.6871827702585
2433.75,32.7571316238126
2434,32.8270804773669
2434.25,32.897029330921
2434.5,32.9669781844751
2434.75,33.0369270380292
2435,33.1068758915835
2435.25,33.1768247451376
2435.5,33.2467735986917
2435.75,33.3167224522458
2436,33.3866713058001
2436.25,33.4566201593542
2436.5,33.5265690129083
2436.75,33.5965178664625
2437,33.6664667200167
2437.25,33.7364155735708
2437.5,33.806364427125
2437.75,33.8763132806791
2438,33.9462621342334
2438.25,34.0347378309732
2438.5,34.1846282314463
2438.75,34.3345186319194
2439,34.4844090323928
2439.25,34.6342994328659
2439.5,34.784189833339
2439.75,34.9340802338122
2440,35.0839706342856
2440.25,35.2338610347587
2440.5,35.3837514352318
2440.75,35.5336418357049
2441,35.6835322361783
2441.25,35.8334226366514
2441.5,35.9833130371246
2441.75,36.1332034375977
2442,36.2830938380711
2442.25,36.4329842385442
2442.5,36.5828746390173
2442.75,36.7327650394905
2443,36.8826554399639
2443.25,36.9967454159563
2443.5,36.981756375909
2443.75,36.9667673358617
2444,36.9517782958143
2444.25,36.936789255767
2444.5,36.9218002157197
2444.75,36.9068111756724
2445,36.8918221356251
2445.25,36.8768330955778
2445.5,36.8618440555304
2445.75,36.8468550154831
2446,36.8318659754358
2446.25,36.8168769353885
2446.5,36.8018878953412
2446.75,36.7868988552938
2447,36.7719098152465
2447.25,36.7569207751992
2447.5,36.7419317351519
2447.75,36.7269426951046
2448,36.7119536550572
2448.25,36.7182123099405
2448.5,36.8081465502244
2448.75,36.8980807905082
2449,36.9880150307923
2449.25,37.0779492710761
2449.5,37.16788351136
2449.75,37.2578177516439
2450,37.3477519919279
2450.25,37.4376862322118
2450.5,37.5276204724957
2450.75,37.6175547127796
2451,37.7074889530636
2451.25,37.7974231933475
2451.5,37.8873574336313
2451.75,37.9772916739154
2452,38.0672259141992
2452.25,38.1571601544831
2452.5,38.247094394767
2452.75,38.337028635051
2453,38.4269628753349
2453.25,38.4859190703177
2453.5,38.4109738700811
2453.75,38.3360286698444
2454,38.2610834696079
2454.25,38.1861382693713
2454.5,38.1111930691347
2454.75,38.036247868898
2455,37.9613026686615
2455.25,37.8863574684249
2455.5,37.8114122681884
2455.75,37.7364670679517
2456,37.6615218677151
2456.25,37.5865766674785
2456.5,37.511631467242
2456.75,37.4366862670053
2457,37.3617410667687
2457.25,37.2867958665322
2457.5,37.2118506662956
2457.75,37.1369054660589
2458,37.0619602658223
2458.25,37.0155819212971
2458.5,37.1055161615809
2458.75,37.195450401865
2459,37.2853846421489
2459.25,37.3753188824327
2459.5,37.4652531227166
2459.75,37.5551873630006
2460,37.6451216032845
2460.25,37.7350558435684
2460.5,37.8249900838523
2460.75,37.9149243241363
2461,38.0048585644202
2461.25,38.094792804704
2461.5,38.1847270449879
2461.75,38.274661285272
2462,38.3645955255558
2462.25,38.4545297658397
2462.5,38.5444640061236
2462.75,38.6343982464076
2463,38.7243324866915
2463.25,38.7904888486831
2463.5,38.7305326884938
2463.75,38.6705765283045
2464,38.6106203681152
2464.25,38.550664207926
2464.5,38.4907080477367
2464.75,38.4307518875474
2465,38.3707957273581
2465.25,38.3108395671689
2465.5,38.2508834069796
2465.75,38.1909272467903
2466,38.130971086601
2466.25,38.0710149264118
2466.5,38.0110587662225
2466.75,37.9511026060332
2467,37.8911464458439
2467.25,37.8311902856547
2467.5,37.7712341254654
2467.75,37.7112779652761
2468,37.6513218050868
2468.25,37.6064757663268
2468.5,37.6514428864688
2468.75,37.6964100066108
2469,37.7413771267527
2469.25,37.7863442468947
2469.5,37.8313113670366
2469.75,37.8762784871786
2470,37.9212456073206
2470.25,37.9662127274625
2470.5,38.0111798476044
2470.75,38.0561469677464
2471,38.1011140878884
2471.25,38.1460812080303
2471.5,38.1910483281723
2471.75,38.2360154483143
2472,38.2809825684562
2472.25,38.3259496885982
2472.5,38.3709168087401
2472.75,38.4158839288821
2473,38.460851049024
2473.25,38.4870707351867
2473.5,38.387143801538
2473.75,38.287216867889
2474,38.1872899342403
2474.25,38.0873630005915
2474.5,37.9874360669428
2474.75,37.8875091332939
2475,37.7875821996451
2475.25,37.6876552659964
2475.5,37.5877283323476
2475.75,37.4878013986987
2476,37.3878744650499
2476.25,37.2879475314012
2476.5,37.1880205977524
2476.75,37.0880936641035
2477,36.9881667304548
2477.25,36.888239796806
2477.5,36.7883128631573
2477.75,36.6883859295083
2478,36.5884589958596
2478.25,36.4954128248843
2478.5,36.4554420514248
2478.75,36.4154712779653
2479,36.3755005045058
2479.25,36.3355297310463
2479.5,36.2955589575868
2479.75,36.2555881841272
2480,36.2156174106677
2480.25,36.1756466372082
2480.5,36.1356758637487
2480.75,36.0957050902891
2481,36.0557343168296
2481.25,36.0157635433701
2481.5,35.9757927699106
2481.75,35.9358219964511
2482,35.8958512229916
2482.25,35.8558804495321
2482.5,35.8159096760726
2482.75,35.775938902613
2483,35.7359681291535
2483.25,35.6954970251557
2483.5,35.6505299050138
2483.75,35.6055627848718
2484,35.5605956647298
2484.25,35.5156285445879
2484.5,35.470661424446
2484.75,35.4256943043039
2485,35.380727184162
2485.25,35.3357600640201
2485.5,35.2907929438781
2485.75,35.2458258237361
2486,35.2008587035942
2486.25,35.1558915834522
2486.5,35.1109244633103
2486.75,35.0659573431683
2487,35.0209902230263
2487.25,34.9760231028844
2487.5,34.9310559827425
2487.75,34.8860888626005
2488,34.8411217424585
2488.25,34.8025635851223
2488.5,34.8325416652169
2488.75,34.8625197453116
2489,34.8924978254062
2489.25,34.9224759055008
2489.5,34.9524539855955
2489.75,34.9824320656901
2490,35.0124101457848
2490.25,35.0423882258794
2490.5,35.072366305974
2490.75,35.1023443860687
2491,35.1323224661633
2491.25,35.1623005462579
2491.5,35.1922786263526
2491.75,35.2222567064472
2492,35.2522347865419
2492.25,35.2822128666365
2492.5,35.3121909467311
2492.75,35.3421690268258
2493,35.3721471069204
2493.25,35.4007083956717
2493.5,35.4107010890366
2493.75,35.4206937824015
2494,35.4306864757663
2494.25,35.4406791691312
2494.5,35.4506718624961
2494.75,35.460664555861
2495,35.4706572492258
2495.25,35.4806499425907
2495.5,35.4906426359556
2495.75,35.5006353293205
2496,35.5106280226854
2496.25,35.5206207160502
2496.5,35.5306134094151
2496.75,35.54060610278
2497,35.5505987961449
2497.25,35.5605914895098
2497.5,35.5705841828746
2497.75,35.5805768762395
2498,35.5905695696044
2498.25,35.5997188685154
2498.5,35.5947225218329
2498.75,35.5897261751505
2499,35.584729828468
2499.25,35.5797334817856
2499.5,35.5747371351032
2499.75,35.5697407884207
2500,35.5647444417383
2500.25,35.5597480950558
2500.5,35.5547517483734
2500.75,35.549755401691
2501,35.5447590550085
2501.25,35.5397627083261
2501.5,35.5347663616436
2501.75,35.5297700149612
2502,35.5247736682788
2502.25,35.5197773215963
2502.5,35.5147809749139
2502.75,35.5097846282314
2503,35.504788281549
2503.25,35.5039532375352
2503.5,35.5988838245016
2503.75,35.6938144114679
2504,35.7887449984343
2504.25,35.8836755854006
2504.5,35.9786061723671
2504.75,36.0735367593334
2505,36.1684673462997
2505.25,36.263397933266
2505.5,36.3583285202325
2505.75,36.4532591071988
2506,36.5481896941651
2506.25,36.6431202811314
2506.5,36.7380508680979
2506.75,36.8329814550642
2507,36.9279120420305
2507.25,37.0228426289968
2507.5,37.1177732159633
2507.75,37.2127038029296
2508,37.3076343898959
2508.25,37.4047249573778
2508.5,37.5795970912634
2508.75,37.7544692251487
2509,37.9293413590341
2509.25,38.1042134929194
2509.5,38.279085626805
2509.75,38.4539577606903
2510,38.6288298945756
2510.25,38.8037020284609
2510.5,38.9785741623466
2510.75,39.1534462962319
2511,39.3283184301172
2511.25,39.5031905640025
2511.5,39.6780626978881
2511.75,39.8529348317734
2512,40.0278069656587
2512.25,40.202679099544
2512.5,40.3775512334297
2512.75,40.552423367315
2513,40.7272955012003
2513.25,40.899938067569
2513.5,40.8949417208865
2513.75,40.8899453742041
2514,40.8849490275217
2514.25,40.8799526808392
2514.5,40.8749563341568
2514.75,40.8699599874743
2515,40.8649636407919
2515.25,40.8599672941095
2515.5,40.854970947427
2515.75,40.8499746007446
2516,40.8449782540621
2516.25,40.8399819073797
2516.5,40.8349855606973
2516.75,40.8299892140148
2517,40.8249928673324
2517.25,40.8199965206499
2517.5,40.8150001739675
2517.75,40.8100038272851
2518,40.8050074806026
2518.25,40.8000111339202
2518.5,40.7102661702794
2518.75,40.6203319299955
2519,40.5303976897116
2519.25,40.4404634494277
2519.5,40.3505292091437
2519.75,40.2605949688598
2520,40.1706607285759
2520.25,40.0807264882921
2520.5,39.990792248008
2520.75,39.9008580077242
2521,39.8109237674403
2521.25,39.7209895271564
2521.5,39.6310552868724
2521.75,39.5411210465885
2522,39.4511868063046
2522.25,39.3612525660208
2522.5,39.2713183257367
2522.75,39.1813840854528
2523,39.091449845169
2523.25,39.0015156048851
2523.5,39.0442093176995
2523.75,39.0891764378414
2524,39.1341435579833
2524.25,39.1791106781253
2524.5,39.2240777982673
2524.75,39.2690449184092
2525,39.3140120385512
2525.25,39.3589791586931
2525.5,39.4039462788351
2525.75,39.4489133989771
2526,39.493880519119
2526.25,39.5388476392609
2526.5,39.583814759403
2526.75,39.6287818795449
2527,39.6737489996868
2527.25,39.7187161198288
2527.5,39.7636832399708
2527.75,39.8086503601127
2528,39.8536174802547
2528.25,39.8985846003966
2528.5,39.8274137991023
2528.75,39.7524685988657
2529,39.6775233986292
2529.25,39.6025781983926
2529.5,39.5276329981559
2529.75,39.4526877979194
2530,39.3777425976828
2530.25,39.3027973974462
2530.5,39.2278521972095
2530.75,39.152906996973
2531,39.0779617967364
2531.25,39.0030165964999
2531.5,38.9280713962632
2531.75,38.8531261960266
2532,38.77818099579
2532.25,38.7032357955535
2532.5,38.6282905953168
2532.75,38.5533453950802
2533,38.4784001948437
2533.25,38.4034549946071
2533.5,38.2999137121185
2533.75,38.1949904317874
2534,38.0900671514562
2534.25,37.985143871125
2534.5,37.8802205907936
2534.75,37.7752973104624
2535,37.6703740301312
2535.25,37.5654507498001
2535.5,37.4605274694687
2535.75,37.3556041891375
2536,37.2506809088063
2536.25,37.1457576284751
2536.5,37.0408343481437
2536.75,36.9359110678126
2537,36.8309877874814
2537.25,36.7260645071502
2537.5,36.6211412268188
2537.75,36.5162179464876
2538,36.4112946661564
2538.25,36.3063713858252
2538.5,36.2061410528513
2538.75,36.1062141192026
2539,36.0062871855538
2539.25,35.9063602519051
2539.5,35.8064333182561
2539.75,35.7065063846074
2540,35.6065794509586
2540.25,35.5066525173099
2540.5,35.406725583661
2540.75,35.3067986500122
2541,35.2068717163635
2541.25,35.1069447827145
2541.5,35.0070178490658
2541.75,34.907090915417
2542,34.8071639817683
2542.25,34.7072370481193
2542.5,34.6073101144706
2542.75,34.5073831808218
2543,34.4074562471731
2543.25,34.3075293135242
2543.5,34.3554385720747
2543.75,34.415394732264
2544,34.4753508924532
2544.25,34.5353070526426
2544.5,34.5952632128318
2544.75,34.6552193730211
2545,34.7151755332103
2545.25,34.7751316933997
2545.5,34.835087853589
2545.75,34.8950440137782
2546,34.9550001739675
2546.25,35.0149563341568
2546.5,35.0749124943461
2546.75,35.1348686545353
2547,35.1948248147246
2547.25,35.2547809749139
2547.5,35.3147371351032
2547.75,35.3746932952924
2548,35.4346494554817
2548.25,35.494605615671
2548.5,35.6409512543057
2548.75,35.7958380014613
2549,35.9507247486168
2549.25,36.1056114957727
2549.5,36.2604982429282
2549.75,36.4153849900838
2550,36.5702717372394
2550.25,36.7251584843952
2550.5,36.8800452315508
2550.75,37.0349319787063
2551,37.1898187258619
2551.25,37.3447054730177
2551.5,37.4995922201733
2551.75,37.6544789673288
2552,37.8093657144844
2552.25,37.9642524616402
2552.5,38.1191392087958
2552.75,38.2740259559514
2553,38.4289127031069
2553.25,38.5837994502628
2553.5,38.6626324762534
2553.75,38.7325813298076
2554,38.8025301833617
2554.25,38.8724790369159
2554.5,38.9424278904701
2554.75,39.0123767440242
2555,39.0823255975783
2555.25,39.1522744511326
2555.5,39.2222233046867
2555.75,39.2921721582408
2556,39.3621210117949
2556.25,39.4320698653492
2556.5,39.5020187189033
2556.75,39.5719675724574
2557,39.6419164260116
2557.25,39.7118652795658
2557.5,39.7818141331199
2557.75,39.8517629866741
2558,39.9217118402282
2558.25,39.9916606937824
2558.5,40.0132020458578
2558.75,40.0281910859051
2559,40.0431801259525
2559.25,40.0581691659998
2559.5,40.0731582060471
2559.75,40.0881472460944
2560,40.1031362861417
2560.25,40.1181253261891
2560.5,40.1331143662364
2560.75,40.1481034062837
2561,40.163092446331
2561.25,40.1780814863783
2561.5,40.1930705264257
2561.75,40.208059566473
2562,40.2230486065203
2562.25,40.2380376465676
2562.5,40.2530266866149
2562.75,40.2680157266622
2563,40.2830047667096
2563.25,40.2979938067569
2563.5,40.3259656936084
2563.75,40.3559437737031
2564,40.3859218537977
2564.25,40.4158999338924
2564.5,40.445878013987
2564.75,40.4758560940816
2565,40.5058341741762
2565.25,40.5358122542709
2565.5,40.5657903343655
2565.75,40.5957684144602
2566,40.6257464945548
2566.25,40.6557245746495
2566.5,40.6857026547441
2566.75,40.7156807348387
2567,40.7456588149333
2567.25,40.775636895028
2567.5,40.8056149751226
2567.75,40.8355930552173
2568,40.8655711353119
2568.25,40.8955492154066
2568.5,40.836181761247
2568.75,40.7612365610104
2569,40.6862913607739
2569.25,40.6113461605372
2569.5,40.5364009603006
2569.75,40.4614557600641
2570,40.3865105598275
2570.25,40.3115653595908
2570.5,40.2366201593542
2570.75,40.1616749591177
2571,40.0867297588811
2571.25,40.0117845586444
2571.5,39.9368393584079
2571.75,39.8618941581713
2572,39.7869489579347
2572.25,39.712003757698
2572.5,39.6370585574615
2572.75,39.5621133572249
2573,39.4871681569884
2573.25,39.4122229567517
2573.5,39.395818517101
2573.75,39.3908221704186
2574,39.3858258237361
2574.25,39.3808294770537
2574.5,39.3758331303712
2574.75,39.3708367836888
2575,39.3658404370064
2575.25,39.3608440903239
2575.5,39.3558477436415
2575.75,39.3508513969591
2576,39.3458550502766
2576.25,39.3408587035942
2576.5,39.3358623569117
2576.75,39.3308660102293
2577,39.3258696635469
2577.25,39.3208733168644
2577.5,39.315876970182
2577.75,39.3108806234995
2578,39.3058842768171
2578.25,39.3008879301347
2578.5,39.3369757489301
2578.75,39.381942869072
2579,39.426909989214
2579.25,39.471877109356
2579.5,39.5168442294979
2579.75,39.5618113496399
2580,39.6067784697818
2580.25,39.6517455899238
2580.5,39.6967127100657
2580.75,39.7416798302077
2581,39.7866469503496
2581.25,39.8316140704916
2581.5,39.8765811906336
2581.75,39.9215483107755
2582,39.9665154309175
2582.25,40.0114825510595
2582.5,40.0564496712014
2582.75,40.1014167913433
2583,40.1463839114853
2583.25,40.1913510316273
2583.5,40.1233283462649
2583.75,40.0283977592986
2584,39.9334671723323
2584.25,39.8385365853658
2584.5,39.7436059983995
2584.75,39.6486754114332
2585,39.5537448244669
2585.25,39.4588142375004
2585.5,39.3638836505341
2585.75,39.2689530635678
2586,39.1740224766013
2586.25,39.079091889635
2586.5,38.9841613026687
2586.75,38.8892307157024
2587,38.7943001287359
2587.25,38.6993695417696
2587.5,38.6044389548033
2587.75,38.509508367837
2588,38.4145777808705
2588.25,38.3196471939042
2588.5,38.2722640130824
2588.75,38.2372895863053
2589,38.2023151595282
2589.25,38.1673407327511
2589.5,38.1323663059741
2589.75,38.097391879197
2590,38.0624174524199
2590.25,38.0274430256428
2590.5,37.9924685988657
2590.75,37.9574941720887
2591,37.9225197453116
2591.25,37.8875453185345
2591.5,37.8525708917574
2591.75,37.8175964649804
2592,37.7826220382032
2592.25,37.7476476114262
2592.5,37.7126731846491
2592.75,37.6776987578721
2593,37.6427243310949
2593.25,37.6077499043179
2593.5,37.4949911276574
2593.75,37.3600897672316
2594,37.2251884068055
2594.25,37.0902870463797
2594.5,36.9553856859539
2594.75,36.8204843255281
2595,36.6855829651021
2595.25,36.5506816046762
2595.5,36.4157802442504
2595.75,36.2808788838246
2596,36.1459775233986
2596.25,36.0110761629727
2596.5,35.8761748025469
2596.75,35.7412734421211
2597,35.6063720816951
2597.25,35.4714707212693
2597.5,35.3365693608434
2597.75,35.2016680004176
2598,35.0667666399916
2598.25,34.9318652795658
2598.5,34.9
2598.75,34.9
2599,34.9
2599.25,34.9
2599.5,34.9
2599.75,34.9
2600,34.9
2600.25,34.9
2600.5,34.9
2600.75,34.9
2601,34.9
2601.25,34.9
2601.5,34.9
2601.75,34.9
2602,34.9
2602.25,34.9
2602.5,34.9
2602.75,34.9
2603,34.9
2603.25,34.9
2603.5,34.8962569152082
2603.75,34.8912605685258
2604,34.8862642218434
2604.25,34.8812678751609
2604.5,34.8762715284785
2604.75,34.871275181796
2605,34.8662788351136
2605.25,34.8612824884312
2605.5,34.8562861417487
2605.75,34.8512897950663
2606,34.8462934483838
2606.25,34.8412971017014
2606.5,34.836300755019
2606.75,34.8313044083365
2607,34.8263080616541
2607.25,34.8213117149716
2607.5,34.8163153682892
2607.75,34.8113190216068
2608,34.8063226749243
2608.25,34.8013263282419
2608.5,34.873400368811
2608.75,34.9733273024598
2609,35.0732542361087
2609.25,35.1731811697575
2609.5,35.2731081034062
2609.75,35.373035037055
2610,35.4729619707039
2610.25,35.5728889043527
2610.5,35.6728158380014
2610.75,35.7727427716502
2611,35.8726697052991
2611.25,35.9725966389478
2611.5,36.0725235725966
2611.75,36.1724505062453
2612,36.2723774398943
2612.25,36.372304373543
2612.5,36.4722313071918
2612.75,36.5721582408405
2613,36.6720851744894
2613.25,36.7720121081382
2613.5,36.789209143732
2613.75,36.7742201036846
2614,36.7592310636373
2614.25,36.74424202359
2614.5,36.7292529835427
2614.75,36.7142639434954
2615,36.699274903448
2615.25,36.6842858634007
2615.5,36.6692968233534
2615.75,36.6543077833061
2616,36.6393187432588
2616.25,36.6243297032114
2616.5,36.6093406631641
2616.75,36.5943516231168
2617,36.5793625830695
2617.25,36.5643735430222
2617.5,36.5493845029749
2617.75,36.5343954629275
2618,36.5194064228802
2618.25,36.5044173828329
2618.5,36.5528582860721
2618.75,36.6278034863087
2619,36.7027486865454
2619.25,36.7776938867819
2619.5,36.8526390870185
2619.75,36.9275842872551
2620,37.0025294874918
2620.25,37.0774746877283
2620.5,37.1524198879649
2620.75,37.2273650882014
2621,37.3023102884381
2621.25,37.3772554886747
2621.5,37.4522006889113
2621.75,37.5271458891478
2622,37.6020910893845
2622.25,37.6770362896211
2622.5,37.7519814898576
2622.75,37.8269266900942
2623,37.9018718903309
2623.25,37.9768170905675
2623.5,38.0241557357085
2623.75,38.0591301624856
2624,38.0941045892627
2624.25,38.1290790160398
2624.5,38.1640534428169
2624.75,38.1990278695939
2625,38.234002296371
2625.25,38.2689767231481
2625.5,38.3039511499252
2625.75,38.3389255767022
2626,38.3739000034794
2626.25,38.4088744302564
2626.5,38.4438488570335
2626.75,38.4788232838105
2627,38.5137977105877
2627.25,38.5487721373647
2627.5,38.5837465641418
2627.75,38.6187209909189
2628,38.653695417696
2628.25,38.688669844473
2628.5,38.774310566786
2628.75,38.8842301937997
2629,38.9941498208135
2629.25,39.1040694478271
2629.5,39.2139890748407
2629.75,39.3239087018546
2630,39.4338283288682
2630.25,39.5437479558818
2630.5,39.6536675828954
2630.75,39.7635872099093
2631,39.8735068369229
2631.25,39.9834264639365
2631.5,40.0933460909501
2631.75,40.203265717964
2632,40.3131853449776
2632.25,40.4231049719912
2632.5,40.5330245990048
2632.75,40.6429442260186
2633,40.7528638530323
2633.25,40.8627834800459
2633.5,40.8603437597857
2633.75,40.8003875995964
2634,40.7404314394071
2634.25,40.6804752792179
2634.5,40.6205191190286
2634.75,40.5605629588393
2635,40.50060679865
2635.25,40.4406506384608
2635.5,40.3806944782715
2635.75,40.3207383180821
2636,40.2607821578929
2636.25,40.2008259977037
2636.5,40.1408698375144
2636.75,40.080913677325
2637,40.0209575171358
2637.25,39.9610013569465
2637.5,39.9010451967573
2637.75,39.8410890365679
2638,39.7811328763787
2638.25,39.7211767161894
2638.5,39.7355478236665
2638.75,39.7905076371734
2639,39.8454674506802
2639.25,39.900427264187
2639.5,39.9553870776938
2639.75,40.0103468912008
2640,40.0653067047076
2640.25,40.1202665182144
2640.5,40.1752263317212
2640.75,40.2301861452281
2641,40.2851459587349
2641.25,40.3401057722417
2641.5,40.3950655857485
2641.75,40.4500253992554
2642,40.5049852127623
2642.25,40.5599450262691
2642.5,40.6149048397759
2642.75,40.6698646532828
2643,40.7248244667896
2643.25,40.7797842802964
2643.5,40.7241947044293
2643.75,40.6042823840506
2644,40.4843700636721
2644.25,40.3644577432936
2644.5,40.2445454229151
2644.75,40.1246331025364
2645,40.0047207821579
2645.25,39.8848084617794
2645.5,39.7648961414009
2645.75,39.6449838210222
2646,39.5250715006437
2646.25,39.4051591802652
2646.5,39.2852468598867
2646.75,39.165334539508
2647,39.0454222191295
2647.25,38.925509898751
2647.5,38.8055975783725
2647.75,38.6856852579938
2648,38.5657729376153
2648.25,38.4458606172368
2648.5,38.3413757350128
2648.75,38.2464451480463
2649,38.15151456108
2649.25,38.0565839741137
2649.5,37.9616533871474
2649.75,37.8667228001809
2650,37.7717922132146
2650.25,37.6768616262483
2650.5,37.581931039282
2650.75,37.4870004523155
2651,37.3920698653492
2651.25,37.2971392783828
2651.5,37.2022086914165
2651.75,37.1072781044501
2652,37.0123475174837
2652.25,36.9174169305174
2652.5,36.8224863435511
2652.75,36.7275557565846
2653,36.6326251696183
2653.25,36.537694582652
2653.5,36.4608385233639
2653.75,36.3958860164921
2654,36.3309335096204
2654.25,36.2659810027487
2654.5,36.201028495877
2654.75,36.1360759890052
2655,36.0711234821335
2655.25,36.0061709752619
2655.5,35.9412184683902
2655.75,35.8762659615184
2656,35.8113134546467
2656.25,35.746360947775
2656.5,35.6814084409033
2656.75,35.6164559340315
2657,35.5515034271598
2657.25,35.4865509202881
2657.5,35.4215984134164
2657.75,35.3566459065446
2658,35.291693399673
2658.25,35.2267408928013
2658.5,35.2323329042134
2658.75,35.2872927177203
2659,35.3422525312272
2659.25,35.397212344734
2659.5,35.4521721582408
2659.75,35.5071319717477
2660,35.5620917852545
2660.25,35.6170515987613
2660.5,35.6720114122681
2660.75,35.726971225775
2661,35.7819310392819
2661.25,35.8368908527887
2661.5,35.8918506662955
2661.75,35.9468104798024
2662,36.0017702933092
2662.25,36.056730106816
2662.5,36.1116899203228
2662.75,36.1666497338297
2663,36.2216095473365
2663.25,36.2765693608434
2663.5,36.2885348456908
2663.75,36.2685494589611
2664,36.2485640722313
2664.25,36.2285786855016
2664.5,36.2085932987718
2664.75,36.188607912042
2665,36.1686225253123
2665.25,36.1486371385825
2665.5,36.1286517518528
2665.75,36.108666365123
2666,36.0886809783932
2666.25,36.0686955916635
2666.5,36.0487102049337
2666.75,36.028724818204
2667,36.0087394314742
2667.25,35.9887540447445
2667.5,35.9687686580147
2667.75,35.9487832712849
2668,35.9287978845552
2668.25,35.9088124978254
2668.5,35.8972067777739
2668.75,35.8922104310915
2669,35.887214084409
2669.25,35.8822177377266
2669.5,35.8772213910442
2669.75,35.8722250443617
2670,35.8672286976793
2670.25,35.8622323509968
2670.5,35.8572360043144
2670.75,35.8522396576319
2671,35.8472433109495
2671.25,35.8422469642671
2671.5,35.8372506175846
2671.75,35.8322542709022
2672,35.8272579242198
2672.25,35.8222615775373
2672.5,35.8172652308549
2672.75,35.8122688841724
2673,35.80727253749
2673.25,35.8022761908076
2673.5,35.7619178177517
2673.75,35.6919689641975
2674,35.6220201106433
2674.25,35.5520712570892
2674.5,35.482122403535
2674.75,35.4121735499808
2675,35.3422246964267
2675.25,35.2722758428726
2675.5,35.2023269893184
2675.75,35.1323781357642
2676,35.0624292822101
2676.25,34.992480428656
2676.5,34.9225315751017
2676.75,34.8525827215476
2677,34.7826338679935
2677.25,34.7126850144394
2677.5,34.6427361608851
2677.75,34.572787307331
2678,34.5028384537769
2678.25,34.4328896002227
2678.5,34.458235969521
2678.75,34.5681555965346
2679,34.6780752235482
2679.25,34.7879948505618
2679.5,34.8979144775756
2679.75,35.0078341045893
2680,35.1177537316029
2680.25,35.2276733586165
2680.5,35.3375929856303
2680.75,35.447512612644
2681,35.5574322396576
2681.25,35.6673518666712
2681.5,35.777271493685
2681.75,35.8871911206987
2682,35.9971107477123
2682.25,36.1070303747259
2682.5,36.2169500017397
2682.75,36.3268696287534
2683,36.436789255767
2683.25,36.5467088827806
2683.5,36.6205921853798
2683.75,36.6605629588393
2684,36.7005337322988
2684.25,36.7405045057583
2684.5,36.7804752792179
2684.75,36.8204460526774
2685,36.8604168261369
2685.25,36.9003875995964
2685.5,36.9403583730559
2685.75,36.9803291465154
2686,37.0202999199749
2686.25,37.0602706934344
2686.5,37.100241466894
2686.75,37.1402122403535
2687,37.180183013813
2687.25,37.2201537872725
2687.5,37.2601245607321
2687.75,37.3000953341916
2688,37.3400661076511
2688.25,37.3800368811106
2688.5,37.4175066977489
2688.75,37.4524811245259
2689,37.487455551303
2689.25,37.5224299780801
2689.5,37.5574044048572
2689.75,37.5923788316343
2690,37.6273532584113
2690.25,37.6623276851884
2690.5,37.6973021119655
2690.75,37.7322765387426
2691,37.7672509655196
2691.25,37.8022253922967
2691.5,37.8371998190738
2691.75,37.8721742458509
2692,37.9071486726279
2692.25,37.942123099405
2692.5,37.9770975261821
2692.75,38.0120719529592
2693,38.0470463797363
2693.25,38.0820208065133
2693.5,38.0660095334191
2693.75,37.996060679865
2694,37.9261118263109
2694.25,37.8561629727568
2694.5,37.7862141192025
2694.75,37.7162652656484
2695,37.6463164120943
2695.25,37.5763675585401
2695.5,37.5064187049859
2695.75,37.4364698514318
2696,37.3665209978776
2696.25,37.2965721443235
2696.5,37.2266232907693
2696.75,37.1566744372151
2697,37.086725583661
2697.25,37.0167767301069
2697.5,36.9468278765526
2697.75,36.8768790229985
2698,36.8069301694444
2698.25,36.7369813158903
2698.5,36.6058070352457
2698.75,36.4059531679482
2699,36.2060993006507
2699.25,36.0062454333533
2699.5,35.8063915660554
2699.75,35.6065376987579
2700,35.4066838314604
2700.25,35.2068299641629
2700.5,35.006976096865
2700.75,34.8071222295675
2701,34.60726836227
2701.25,34.4074144949725
2701.5,34.2075606276747
2701.75,34.0077067603772
2702,33.8078528930797
2702.25,33.6079990257822
2702.5,33.4081451584843
2702.75,33.2082912911868
2703,33.0084374238893
2703.25,32.8085835565918
2703.5,32.6703371490205
2703.75,32.6053846421489
2704,32.5404321352772
2704.25,32.4754796284055
2704.5,32.4105271215337
2704.75,32.345574614662
2705,32.2806221077903
2705.25,32.2156696009186
2705.5,32.1507170940468
2705.75,32.0857645871751
2706,32.0208120803034
2706.25,31.9558595734318
2706.5,31.8909070665599
2706.75,31.8259545596883
2707,31.7610020528166
2707.25,31.6960495459449
2707.5,31.6310970390731
2707.75,31.5661445322014
2708,31.5011920253297
2708.25,31.436239518458
2708.5,31.380121777252
2708.75,31.3351546571101
2709,31.2901875369681
2709.25,31.2452204168262
2709.5,31.2002532966842
2709.75,31.1552861765422
2710,31.1103190564003
2710.25,31.0653519362584
2710.5,31.0203848161163
2710.75,30.9754176959744
2711,30.9304505758325
2711.25,30.8854834556905
2711.5,30.8405163355485
2711.75,30.7955492154066
2712,30.7505820952646
2712.25,30.7056149751227
2712.5,30.6606478549807
2712.75,30.6156807348387
2713,30.5707136146968
2713.25,30.5257464945549
2713.5,30.5170850005219
2713.75,30.5570557739814
2714,30.5970265474409
2714.25,30.6369973209004
2714.5,30.67696809436
2714.75,30.7169388678195
2715,30.756909641279
2715.25,30.7968804147385
2715.5,30.8368511881981
2715.75,30.8768219616576
2716,30.9167927351171
2716.25,30.9567635085766
2716.5,30.9967342820361
2716.75,31.0367050554956
2717,31.0766758289551
2717.25,31.1166466024146
2717.5,31.1566173758742
2717.75,31.1965881493337
2718,31.2365589227932
2718.25,31.2765296962527
2718.5,31.302062558714
2718.75,31.3070589053965
2719,31.3120552520789
2719.25,31.3170515987614
2719.5,31.3220479454438
2719.75,31.3270442921262
2720,31.3320406388087
2720.25,31.3370369854911
2720.5,31.3420333321736
2720.75,31.347029678856
2721,31.3520260255384
2721.25,31.3570223722209
2721.5,31.3620187189033
2721.75,31.3670150655857
2722,31.3720114122682
2722.25,31.3770077589506
2722.5,31.3820041056331
2722.75,31.3870004523155
2723,31.3919967989979
2723.25,31.3969931456804
2723.5,31.4358108625309
2723.75,31.5257451028148
2724,31.6156793430986
2724.25,31.7056135833827
2724.5,31.7955478236665
2724.75,31.8854820639504
2725,31.9754163042343
2725.25,32.0653505445183
2725.5,32.1552847848022
2725.75,32.2452190250861
2726,32.33515326537
2726.25,32.425087505654
2726.5,32.5150217459379
2726.75,32.6049559862217
2727,32.6948902265056
2727.25,32.7848244667897
2727.5,32.8747587070735
2727.75,32.9646929473574
2728,33.0546271876413
2728.25,33.1445614279253
2728.5,33.2440777982673
2728.75,33.3589937719634
2729,33.4739097456594
2729.25,33.5888257193557
2729.5,33.7037416930517
2729.75,33.8186576667478
2730,33.9335736404439
2730.25,34.0484896141401
2730.5,34.1634055878362
2730.75,34.2783215615323
2731,34.3932375352283
2731.25,34.5081535089246
2731.5,34.6230694826207
2731.75,34.7379854563167
2732,34.8529014300128
2732.25,34.967817403709
2732.5,35.0827333774051
2732.75,35.1976493511012
2733,35.3125653247972
2733.25,35.4274812984935
2733.5,35.5460839915104
2733.75,35.6709926585713
2734,35.7959013256323
2734.25,35.9208099926934
2734.5,36.0457186597544
2734.75,36.1706273268153
2735,36.2955359938762
2735.25,36.4204446609374
2735.5,36.5453533279983
2735.75,36.6702619950593
2736,36.7951706621202
2736.25,36.9200793291814
2736.5,37.0449879962423
2736.75,37.1698966633032
2737,37.2948053303642
2737.25,37.4197139974253
2737.5,37.5446226644863
2737.75,37.6695313315472
2738,37.7944399986081
2738.25,37.9193486656693
2738.5,38.0053108799276
2738.75,38.0202999199749
2739,38.0352889600223
2739.25,38.0502780000696
2739.5,38.0652670401169
2739.75,38.0802560801642
2740,38.0952451202115
2740.25,38.1102341602589
2740.5,38.1252232003062
2740.75,38.1402122403535
2741,38.1552012804008
2741.25,38.1701903204481
2741.5,38.1851793604955
2741.75,38.2001684005428
2742,38.2151574405901
2742.25,38.2301464806374
2742.5,38.2451355206847
2742.75,38.260124560732
2743,38.2751136007794
2743.25,38.2901026408267
2743.5,38.289816638252
2743.75,38.2598385581573
2744,38.2298604780627
2744.25,38.199882397968
2744.5,38.1699043178734
2744.75,38.1399262377788
2745,38.1099481576842
2745.25,38.0799700775895
2745.5,38.0499919974949
2745.75,38.0200139174002
2746,37.9900358373056
2746.25,37.9600577572109
2746.5,37.9300796771163
2746.75,37.9001015970217
2747,37.8701235169271
2747.25,37.8401454368324
2747.5,37.8101673567378
2747.75,37.7801892766431
2748,37.7502111965485
2748.25,37.7202331164538
2748.5,37.6528993424029
2748.75,37.5080052886122
2749,37.3631112348215
2749.25,37.2182171810305
2749.5,37.0733231272399
2749.75,36.9284290734492
2750,36.7835350196585
2750.25,36.6386409658675
2750.5,36.4937469120769
2750.75,36.3488528582862
2751,36.2039588044955
2751.25,36.0590647507045
2751.5,35.9141706969138
2751.75,35.7692766431232
2752,35.6243825893325
2752.25,35.4794885355415
2752.5,35.3345944817508
2752.75,35.1897004279601
2753,35.0448063741695
2753.25,34.8999123203785
2753.5,34.8108576597891
2753.75,34.8458320865662
2754,34.8808065133433
2754.25,34.9157809401204
2754.5,34.9507553668975
2754.75,34.9857297936745
2755,35.0207042204516
2755.25,35.0556786472287
2755.5,35.0906530740058
2755.75,35.1256275007828
2756,35.1606019275599
2756.25,35.195576354337
2756.5,35.2305507811141
2756.75,35.2655252078911
2757,35.3004996346682
2757.25,35.3354740614453
2757.5,35.3704484882224
2757.75,35.4054229149995
2758,35.4403973417765
2758.25,35.4753717685536
2758.5,35.5
2758.75,35.5
2759,35.5
2759.25,35.5
2759.5,35.5
2759.75,35.5
2760,35.5
2760.25,35.5
2760.5,35.5
2760.75,35.5
2761,35.5
2761.25,35.5
2761.5,35.5
2761.75,35.5
2762,35.5
2762.25,35.5
2762.5,35.5
2762.75,35.5
2763,35.5
2763.25,35.5
2763.5,35.5112396924254
2763.75,35.5512104658849
2764,35.5911812393445
2764.25,35.631152012804
2764.5,35.6711227862635
2764.75,35.711093559723
2765,35.7510643331826
2765.25,35.7910351066421
2765.5,35.8310058801016
2765.75,35.8709766535611
2766,35.9109474270207
2766.25,35.9509182004802
2766.5,35.9908889739397
2766.75,36.0308597473992
2767,36.0708305208587
2767.25,36.1108012943182
2767.5,36.1507720677777
2767.75,36.1907428412372
2768,36.2307136146968
2768.25,36.2706843881563
2768.5,36.3093232664138
2768.75,36.3442976931909
2769,36.379272119968
2769.25,36.4142465467451
2769.5,36.4492209735221
2769.75,36.4841954002992
2770,36.5191698270763
2770.25,36.5541442538534
2770.5,36.5891186806304
2770.75,36.6240931074075
2771,36.6590675341846
2771.25,36.6940419609617
2771.5,36.7290163877388
2771.75,36.7639908145158
2772,36.7989652412929
2772.25,36.83393966807
2772.5,36.8689140948471
2772.75,36.9038885216241
2773,36.9388629484013
2773.25,36.9738373751783
2773.5,36.9886705403431
2773.75,36.9437034202011
2774,36.8987363000591
2774.25,36.8537691799172
2774.5,36.8088020597753
2774.75,36.7638349396333
2775,36.7188678194913
2775.25,36.6739006993494
2775.5,36.6289335792074
2775.75,36.5839664590655
2776,36.5389993389235
2776.25,36.4940322187815
2776.5,36.4490650986396
2776.75,36.4040979784977
2777,36.3591308583556
2777.25,36.3141637382137
2777.5,36.2691966180718
2777.75,36.2242294979298
2778,36.1792623777878
2778.25,36.1342952576459
2778.5,36.0905139000035
2778.75,36.050543126544
2779,36.0105723530844
2779.25,35.9706015796249
2779.5,35.9306308061654
2779.75,35.8906600327059
2780,35.8506892592464
2780.25,35.8107184857869
2780.5,35.7707477123274
2780.75,35.7307769388679
2781,35.6908061654083
2781.25,35.6508353919488
2781.5,35.6108646184893
2781.75,35.5708938450298
2782,35.5309230715702
2782.25,35.4909522981107
2782.5,35.4509815246512
2782.75,35.4110107511917
2783,35.3710399777321
2783.25,35.3310692042726
2783.5,35.2699572039944
2783.75,35.1350558435686
2784,35.0001544831425
2784.25,34.8652531227167
2784.5,34.7303517622909
2784.75,34.5954504018651
2785,34.460549041439
2785.25,34.3256476810132
2785.5,34.1907463205874
2785.75,34.0558449601616
2786,33.9209435997355
2786.25,33.7860422393097
2786.5,33.6511408788839
2786.75,33.5162395184581
2787,33.381338158032
2787.25,33.2464367976062
2787.5,33.1115354371804
2787.75,32.9766340767546
2788,32.8417327163285
2788.25,32.7068313559027
2788.5,32.6020792595943
2788.75,32.6120719529592
2789,32.6220646463241
2789.25,32.6320573396889
2789.5,32.6420500330538
2789.75,32.6520427264187
2790,32.6620354197836
2790.25,32.6720281131485
2790.5,32.6820208065133
2790.75,32.6920134998782
2791,32.7020061932431
2791.25,32.711998886608
2791.5,32.7219915799729
2791.75,32.7319842733377
2792,32.7419769667026
2792.25,32.7519696600675
2792.5,32.7619623534324
2792.75,32.7719550467972
2793,32.7819477401621
2793.25,32.791940433527
2793.5,32.7903343655405
2793.75,32.7403708987162
2794,32.6904074318917
2794.25,32.6404439650673
2794.5,32.590480498243
2794.75,32.5405170314186
2795,32.4905535645941
2795.25,32.4405900977697
2795.5,32.3906266309454
2795.75,32.340663164121
2796,32.2906996972965
2796.25,32.2407362304722
2796.5,32.1907727636478
2796.75,32.1408092968234
2797,32.0908458299989
2797.25,32.0408823631746
2797.5,31.9909188963502
2797.75,31.9409554295258
2798,31.8909919627014
2798.25,31.841028495877
2798.5,31.8160829477053
2798.75,31.9060171879892
2799,31.9959514282732
2799.25,32.0858856685571
2799.5,32.175819908841
2799.75,32.2657541491248
2800,32.3556883894089
2800.25,32.4456226296928
2800.5,32.5355568699766
2800.75,32.6254911102605
2801,32.7154253505445
2801.25,32.8053595908284
2801.5,32.8952938311123
2801.75,32.9852280713962
2802,33.0751623116802
2802.25,33.1650965519641
2802.5,33.2550307922479
2802.75,33.3449650325318
2803,33.4348992728159
2803.25,33.5248335130997
2803.5,33.5983591385129
2803.75,33.5883664451481
2804,33.5783737517832
2804.25,33.5683810584183
2804.5,33.5583883650534
2804.75,33.5483956716885
2805,33.5384029783236
2805.25,33.5284102849588
2805.5,33.5184175915939
2805.75,33.508424898229
2806,33.4984322048641
2806.25,33.4884395114993
2806.5,33.4784468181344
2806.75,33.4684541247695
2807,33.4584614314046
2807.25,33.4484687380397
2807.5,33.4384760446749
2807.75,33.42848335131
2808,33.4184906579451
2808.25,33.4084979645802
2808.5,33.4
2808.75,33.4
2809,33.4
2809.25,33.4
2809.5,33.4
2809.75,33.4
2810,33.4
2810.25,33.4
2810.5,33.4
2810.75,33.4
2811,33.4
2811.25,33.4
2811.5,33.4
2811.75,33.4
2812,33.4
2812.25,33.4
2812.5,33.4
2812.75,33.4
2813,33.4
2813.25,33.4
2813.5,33.3865140391776
2813.75,33.2865871055286
2814,33.1866601718799
2814.25,33.0867332382311
2814.5,32.9868063045824
2814.75,32.8868793709335
2815,32.7869524372847
2815.25,32.687025503636
2815.5,32.5870985699872
2815.75,32.4871716363383
2816,32.3872447026895
2816.25,32.2873177690408
2816.5,32.187390835392
2816.75,32.0874639017431
2817,31.9875369680944
2817.25,31.8876100344456
2817.5,31.7876831007969
2817.75,31.6877561671479
2818,31.5878292334992
2818.25,31.4879022998504
2818.5,31.3777544274731
2818.75,31.1928896002226
2819,31.0080247729724
2819.25,30.8231599457222
2819.5,30.638295118472
2819.75,30.4534302912215
2820,30.2685654639713
2820.25,30.0837006367211
2820.5,29.898835809471
2820.75,29.7139709822204
2821,29.5291061549703
2821.25,29.3442413277201
2821.5,29.1593765004699
2821.75,28.9745116732194
2822,28.7896468459692
2822.25,28.604782018719
2822.5,28.4199171914688
2822.75,28.2350523642183
2823,28.0501875369681
2823.25,27.8653227097179
2823.5,27.7058098187258
2823.75,27.7607696322327
2824,27.8157294457395
2824.25,27.8706892592463
2824.5,27.9256490727532
2824.75,27.9806088862601
2825,28.0355686997669
