1551,982.034640624419
1551.25,977.966326584858
1551.5,975.914209864712
1551.75,977.147376002901
1552,981.219560780759
1552.25,986.226612628492
1552.5,990.218000121744
1552.75,991.417371033117
1553,990.135805884873
1553.25,988.061449247272
1553.5,986.90679885994
1553.75,988.203955461812
1554,991.58549145529
1554.25,995.546209745067
1554.5,998.565529120424
1554.75,999.334269432616
1555,998.405410114599
1555.25,997.300231528555
1555.5,997.548304004588
1555.75,1000.43990384711
1556,1005.18575959358
1556.25,1009.92720735173
1556.5,1012.79678558574
1556.75,1012.22006807754
1557,1009.10199542275
1557.25,1005.59458445954
1557.5,1003.85930886316
1557.75,1005.81442440991
1558,1010.92403881229
1558.25,1017.22985717994
1558.5,1022.75616146744
1558.75,1025.68255502104
1559,1025.84595926329
1559.25,1024.08608584608
1559.5,1021.25661278044
1559.75,1018.17991619086
1560,1015.19994097038
1560.25,1012.28711956975
1560.5,1009.40197027461
1560.75,1006.50991035776
1561,1003.68161997265
1561.25,1001.08908102792
1561.5,998.908381828851
1561.75,997.312186275571
1562,996.387631033901
1562.25,996.132388761568
1562.5,996.539919856512
1562.75,997.60109371664
1563,999.244530754618
1563.25,1001.33509009009
1563.5,1003.73473732647
1563.75,1006.30017473712
1564,1008.76865077956
1564.25,1010.75884379887
1564.5,1011.88434555385
1564.75,1011.77691692576
1565,1010.52179034584
1565.25,1008.67836514738
1565.5,1006.82835144083
1565.75,1005.54128775532
1566,1004.9983258616
1566.25,1004.92029698233
1566.5,1005.00134365913
1566.75,1004.94552367977
1567,1004.81845064259
1567.25,1005.14203533888
1567.5,1006.46737437989
1567.75,1009.32759405956
1568,1013.51876813294
1568.25,1017.85665157623
1568.5,1021.08913169876
1568.75,1021.98689591803
1569,1020.46560195298
1569.25,1018.09802294875
1569.5,1016.58657013528
1569.75,1017.62185123321
1570,1021.72543398689
1570.25,1027.27598853235
1570.5,1032.42289415923
1570.75,1035.31964303483
1571,1034.95729547431
1571.25,1032.17903755102
1571.5,1028.0761075097
1571.75,1023.73972095975
1572,1020.15358441702
1572.25,1017.9454014047
1572.5,1017.66928591002
1572.75,1019.87935192023
1573,1024.79687649432
1573.25,1031.17440112928
1573.5,1037.35946452606
1573.75,1041.69959250702
1574,1042.86723569009
1574.25,1041.36172161851
1574.5,1038.32036615504
1574.75,1034.88115031412
1575,1032.10814322053
1575.25,1030.35191924285
1575.5,1029.56364205638
1575.75,1029.69008820903
1576,1030.66867774958
1576.25,1032.28721384044
1576.5,1034.21319916424
1576.75,1036.1107307422
1577,1037.6499661104
1577.25,1038.66761917361
1577.5,1039.1836145996
1577.75,1039.2272779365
1578,1038.82850044289
1578.25,1038.05590943296
1578.5,1037.04110465357
1578.75,1035.92146057301
1579,1034.8343777704
1579.25,1033.92717045815
1579.5,1033.37194995612
1579.75,1033.34464149107
1580,1034.02116964887
1580.25,1035.48764656319
1580.5,1037.4914708861
1580.75,1039.7002066703
1581,1041.78141796846
1581.25,1043.43724855434
1581.5,1044.56645650065
1581.75,1045.1371958096
1582,1045.11769935232
1582.25,1044.49629721659
1582.5,1043.45777502395
1582.75,1042.29798886991
1583,1041.31405402269
1583.25,1040.79115583728
1583.5,1040.781225562
1583.75,1041.12373388537
1584,1041.65039166124
1584.25,1042.19614958884
1584.5,1042.74570134817
1584.75,1043.4932694676
1585,1044.64869812444
1585.25,1046.42035666118
1585.5,1048.71886338071
1585.75,1050.79769357428
1586,1051.8225088369
1586.25,1050.95897404333
1586.5,1047.81236302083
1586.75,1043.64438003205
1587,1040.10679868769
1587.25,1038.85139259838
1587.5,1041.202225913
1587.75,1046.18189842743
1588,1051.82682648062
1588.25,1056.16966760478
1588.5,1057.37747140872
1588.75,1055.2178357586
1589,1050.50942319911
1589.25,1044.08926203756
1589.5,1036.79328803811
1589.75,1029.4220286433
1590,1022.73372910784
1590.25,1017.48415379024
1590.5,1014.42244884943
1590.75,1013.64813997822
1591,1014.07319003207
1591.25,1014.48292075057
1591.5,1013.66665765097
1591.75,1011.14427538662
1592,1008.01103420011
1592.25,1005.56714617358
1592.5,1005.11106662357
1592.75,1007.23611902569
1593,1010.75490039858
1593.25,1014.20323380494
1593.5,1016.11796841714
1593.75,1015.62668473288
1594,1013.43669924417
1594.25,1010.51658888828
1594.5,1007.83484719708
1594.75,1006.08844834143
1595,1005.09914105062
1595.25,1004.51266037612
1595.5,1003.97474305851
1595.75,1003.16002565988
1596,1001.84558000735
1596.25,999.831163003269
1596.5,996.916534398499
1596.75,993.111734270556
1597,989.208546461021
1597.25,986.180380517376
1597.5,985.00063058989
1597.75,986.289250366282
1598,989.398735735395
1598.25,993.39757887397
1598.5,997.354372033436
1598.75,1000.48406052653
1599,1002.44091941501
1599.25,1002.96131713874
1599.5,1001.78190057094
1599.75,998.934661347228
1600,995.307487370834
1600.25,991.942421123523
1600.5,989.881140325602
1600.75,989.689272137131
1601,990.520448205027
1601.25,991.267729779702
1601.5,990.825280052246
1601.75,988.670524607009
1602,985.821089105462
1602.25,983.545883985415
1602.5,983.111851634385
1602.75,985.21265217447
1603,989.176114050188
1603.25,994.131019074017
1603.5,999.207198150704
1603.75,1003.66828693213
1604,1007.04156626561
1604.25,1008.88514194344
1604.5,1008.7601358143
1604.75,1006.58267949419
1605,1002.95310741006
1605.25,998.549632755419
1605.5,994.049993441671
1605.75,990.049845219346
1606,986.970126698091
1606.25,985.209388175875
1606.5,985.162797744682
1606.75,986.757629238244
1607,988.979048692044
1607.25,990.699169986901
1607.5,990.802318261717
1607.75,989.141401581474
1608,987.224746853667
1608.25,986.722754666448
1608.5,989.279152505285
1608.75,994.933323900288
1609,1001.23564084554
1609.25,1005.52210030101
1609.5,1005.1781646274
1609.75,999.746560460215
1610,991.715998732323
1610.25,983.787216760687
1610.5,978.628535248446
1610.75,977.25854991234
1611,978.295492787652
1611.25,980.168401513506
1611.5,981.338043205671
1611.75,981.265758800861
1612,980.592001793592
1612.25,980.024964928384
1612.5,980.255305926092
1612.75,981.594281587703
1613,983.98657130906
1613.25,987.361885115836
1613.5,991.613368677517
1613.75,996.072106575279
1614,999.628731730407
1614.25,1001.16208870962
1614.5,999.670886582605
1614.75,995.707089276783
1615,990.906276096658
1615.25,986.926129174244
1615.5,985.291515522388
1615.75,985.78037605821
1616,986.93909296612
1616.25,987.28827165317
1616.5,985.512746016367
1616.75,982.05738031035
1617,978.435521716407
1617.25,976.175542839526
1617.5,976.6405018835
1617.75,979.712652738076
1618,984.49363463011
1618.25,990.078073410831
1618.5,995.578850393435
1618.75,1000.22864485563
1619,1003.30843552588
1619.25,1004.09933459276
1619.5,1002.14672802641
1619.75,998.546369022406
1620,994.957602539808
1620.25,993.040575977666
1620.5,994.08968372598
1620.75,997.145062668529
1621,1000.38878883477
1621.25,1002.00126213408
1621.5,1000.57047324179
1621.75,996.988240702949
1622,992.954986347737
1622.25,990.172010443417
1622.5,990.029654291247
1622.75,992.117148351045
1623,995.376793528112
1623.25,998.750048361048
1623.5,1001.33008662497
1623.75,1002.98764128372
1624,1003.84187390874
1624.25,1004.01205549246
1624.5,1003.64040696587
1624.75,1002.98533510582
1625,1002.3419274071
1625.25,1002.00528540581
1625.5,1002.14219444668
1625.75,1002.23756550223
1626,1001.55069263663
1626.25,999.340725577116
1626.5,995.177147252128
1626.75,990.319042239735
1627,986.597718860528
1627.25,985.844942521581
1627.5,989.418382009369
1627.75,996.126190028268
1628,1003.92323289577
1628.25,1010.76376669078
1628.5,1014.99214291913
1628.75,1016.7231718579
1629,1016.57368142434
1629.25,1015.16053255382
1629.5,1013.07431638615
1629.75,1010.7694615902
1630,1008.65641500416
1630.25,1007.1456015735
1630.5,1006.52865461284
1630.75,1006.35699780082
1631,1005.89743698724
1631.25,1004.41618498626
1631.5,1001.37406605033
1631.75,997.555574640626
1632,994.296415150503
1632.25,992.93410790937
1632.5,994.541884490717
1632.75,998.302042018901
1633,1002.57314318249
1633.25,1005.7103485215
1633.5,1006.37857051744
1633.75,1005.27083568538
1634,1003.8961823877
1634.25,1003.76587787388
1634.5,1006.08316815796
1634.75,1009.87603189388
1635,1013.23572545695
1635.25,1014.24984698046
1635.5,1011.35924688074
1635.75,1005.63002017487
1636,999.310598059976
1636.25,994.655111902623
1636.5,993.64259406398
1636.75,995.795394854076
1637,999.344031043731
1637.25,1002.50751357902
1637.5,1003.73234743531
1637.75,1003.34051710367
1638,1002.57708242074
1638.25,1002.69354811024
1638.5,1004.80009835559
1638.75,1008.7948821086
1639,1013.95951803281
1639.25,1019.5707502421
1639.5,1024.89100216918
1639.75,1029.05487272619
1640,1031.12977139026
1640.25,1030.18251003365
1640.5,1025.45284851034
1640.75,1018.25170279178
1641,1011.25558599443
1641.25,1007.16512772319
1641.5,1008.5211535593
1641.75,1014.831230766
1642,1022.88862846197
1642.25,1029.3908507293
1642.5,1031.17492372242
1642.75,1028.07692595962
1643,1022.81978573089
1643.25,1018.24350265166
1643.5,1017.13687775905
1643.75,1020.18404010538
1644,1025.26703289834
1644.25,1030.07362654494
1644.5,1032.31253931055
1644.75,1031.05109436508
1645,1027.52313058504
1645.25,1023.15613063989
1645.5,1019.37530839254
1645.75,1017.09120518161
1646,1016.04905921604
1646.25,1015.8337666471
1646.5,1016.03038630224
1646.75,1016.37225097579
1647,1017.01463384021
1647.25,1018.18736159414
1647.5,1020.12024100383
1647.75,1022.86734653876
1648,1025.87904354829
1648.25,1028.47615762939
1648.5,1029.97951437906
1648.75,1029.89756730619
1649,1028.55775799505
1649.25,1026.51092776938
1649.5,1024.30792299971
1649.75,1022.44593936931
1650,1021.08464709275
1650.25,1020.2527834743
1650.5,1019.97879756863
1650.75,1020.26003301531
1651,1020.82757723362
1651.25,1021.27729847879
1651.5,1021.20400223835
1651.75,1020.25522901646
1652,1018.67326732692
1652.25,1017.07560113042
1652.5,1016.08559606834
1652.75,1016.28490066028
1653,1017.60842196525
1653.25,1019.48142380318
1653.5,1021.31536128505
1653.75,1022.5348502384
1654,1022.83183806181
1654.25,1022.14731818454
1654.5,1020.43178188826
1654.75,1017.65126903173
1655,1014.2567177024
1655.25,1011.26739981723
1655.5,1009.73495496485
1655.75,1010.6885060708
1656,1014.0570731605
1656.25,1018.19498492016
1656.5,1021.33529158224
1656.75,1021.73088869034
1657,1018.91615593194
1657.25,1014.46579973652
1657.5,1010.13650844336
1657.75,1007.67833149754
1658,1007.9077501878
1658.25,1009.75345448255
1658.5,1011.91644239253
1658.75,1013.10038622111
1659,1012.55212132407
1659.25,1010.71887320197
1659.5,1008.20852383593
1659.75,1005.62867730947
1660,1003.46591340296
1660.25,1001.89697120316
1660.5,1001.04970751644
1660.75,1001.05164152761
1661,1001.79813387535
1661.25,1002.54776131322
1661.5,1002.45089088392
1661.75,1000.65868657063
1662,996.91857154938
1662.25,992.632263179365
1662.5,989.486040477215
1662.75,989.165088625234
1663,992.461444990213
1663.25,997.660578159019
1663.5,1002.61151728377
1663.75,1005.16610951988
1664,1004.17825415329
1664.25,1000.97947964851
1664.5,997.277567330882
1664.75,994.778783585095
1665,994.431480807618
1665.25,995.199960327418
1665.5,995.727852914898
1665.75,994.660966068512
1666,991.41794943154
1666.25,987.32782656045
1666.5,984.009643274968
1666.75,983.07943433471
1667,985.360577785879
1667.25,989.825368667201
1667.5,995.182322060488
1667.75,1000.14290810387
1668,1003.76976233879
1668.25,1005.80412222443
1668.5,1006.0647179506
1668.75,1004.37431807247
1669,1001.01702260627
1669.25,997.158579950946
1669.5,994.064063142759
1669.75,992.992600604631
1670,994.372456199916
1670.25,996.954445379084
1670.5,999.287444459485
1670.75,999.927889100381
1671,998.231879034522
1671.25,995.050268985186
1671.5,991.397783829815
1671.75,988.286117024759
1672,986.406426699363
1672.25,985.850795515035
1672.5,986.645640040746
1672.75,988.81178671273
1673,991.964486330839
1673.25,995.046291242665
1673.5,996.936413026942
1673.75,996.53340794153
1674,993.726731408389
1674.25,989.85133230898
1674.5,986.356506312065
1674.75,984.670610996522
1675,985.231186416874
1675.25,987.075839738166
1675.5,989.136340143791
1675.75,990.367182039159
1676,990.475133159872
1676.25,990.074431460231
1676.5,989.833422193612
1676.75,990.416221902954
1677,992.373496185047
1677.25,996.132661770085
1677.5,1002.11494287772
1677.75,1010.70284947733
1678,1021.42224290696
1678.25,1032.96069213999
1678.5,1043.97072369292
1678.75,1053.1338217293
1679,1059.84911349365
1679.25,1064.26327371419
1679.5,1066.55791877193
1679.75,1066.91907123186
1680,1065.9079760416
1680.25,1064.74216251942
1680.5,1064.70534730949
1680.75,1067.08124233993
1681,1072.56783276419
1681.25,1079.65956488022
1681.5,1086.33279301786
1681.75,1090.56387150695
1682,1090.61230562269
1682.25,1087.18158497822
1682.5,1082.22496350533
1682.75,1077.70576904987
1683,1075.55521352412
1683.25,1076.36725571753
1683.5,1078.94555605933
1683.75,1081.96862516963
1684,1084.11513924087
1684.25,1084.41191502355
1684.5,1082.96803312522
1684.75,1080.1022674069
1685,1076.13339172965
1685.25,1071.39111281631
1685.5,1066.30072059017
1685.75,1061.33690165965
1686,1056.97475631799
1686.25,1053.67711073885
1686.5,1051.5428058923
1686.75,1050.25454645382
1687,1049.47227410416
1687.25,1048.85667901533
1687.5,1048.18145306444
1687.75,1047.45299368326
1688,1046.70638005923
1688.25,1045.9766890177
1688.5,1045.22533740668
1688.75,1044.14669137136
1689,1042.37461675915
1689.25,1039.54297941741
1689.5,1035.46084404484
1689.75,1031.0467102785
1690,1027.65204365184
1690.25,1026.62929858284
1690.5,1029.12918645345
1690.75,1034.16721747977
1691,1039.47495327797
1691.25,1042.76639414103
1691.5,1041.91345581773
1691.75,1037.29762722898
1692,1031.31015693006
1692.25,1026.39869795906
1692.5,1024.96242001358
1692.75,1027.65288892947
1693,1032.92779293614
1693.25,1039.10563252689
1693.5,1044.51367385913
1693.75,1048.09090195772
1694,1049.77738361769
1694.25,1049.60579650204
1694.5,1047.6090654526
1694.75,1043.94984164714
1695,1039.13289516486
1695.25,1033.71873485966
1695.5,1028.26786958543
1695.75,1023.34627254021
1696,1019.54538148867
1696.25,1017.46404617194
1696.5,1017.70111717093
1696.75,1020.62775805766
1697,1025.11978687567
1697.25,1029.44969976697
1697.5,1031.88831897023
1697.75,1030.98997005981
1698,1027.65480809798
1698.25,1023.94112723343
1698.5,1021.91540458364
1698.75,1023.45743450607
1699,1028.02819597748
1699.25,1033.40134826754
1699.5,1037.3161412936
1699.75,1037.61981396016
1700,1034.15019423
1700.25,1028.49505767625
1700.5,1022.30178996886
1700.75,1017.19841075272
1701,1014.04841497739
1701.25,1012.71534817819
1701.5,1012.99523866493
1701.75,1014.68112753107
1702,1017.37048203621
1702.25,1020.34784087332
1702.5,1022.86964659517
1702.75,1024.19702734604
1703,1024.07976433094
1703.25,1023.17722981571
1703.5,1022.24799973455
1703.75,1022.04924083719
1704,1022.88124876204
1704.25,1023.93352532193
1704.5,1024.22999594231
1704.75,1022.79478436858
1705,1019.11305468661
1705.25,1014.11595613283
1705.5,1009.01737275371
1705.75,1005.03118859574
1706,1003.02847567701
1706.25,1002.46580861873
1706.5,1002.43498652288
1706.75,1002.02780809928
1707,1000.61990323949
1707.25,998.830331963175
1707.5,997.618562958632
1707.75,997.94407357529
1708,1000.41132639936
1708.25,1004.03188038836
1708.5,1007.37072417592
1708.75,1008.99282405452
1709,1007.93459841627
1709.25,1005.29724632939
1709.5,1002.74707140403
1709.75,1001.95039149658
1710,1004.09664125718
1710.25,1008.04777346285
1710.5,1011.95674821398
1710.75,1013.97635604333
1711,1012.70767586719
1711.25,1008.99298615114
1711.5,1004.37352999608
1711.75,1000.39078038974
1712,998.36962323173
1712.25,998.350250079139
1712.5,999.900988183082
1712.75,1002.58944100002
1713,1005.95860324624
1713.25,1009.40552355618
1713.5,1012.27365242996
1713.75,1013.90635823407
1714,1013.78446818188
1714.25,1012.23476390531
1714.5,1009.90559125812
1714.75,1007.44591869569
1715,1005.4614296399
1715.25,1004.24003475022
1715.5,1003.92804748711
1715.75,1004.67113098461
1716,1006.52958718981
1716.25,1008.87768086846
1716.5,1010.7591970067
1716.75,1011.21580033854
1717,1009.44994894703
1717.25,1006.04425633439
1717.5,1002.28385294607
1717.75,999.459437256658
1718,998.723657180382
1718.25,999.853804856001
1718.5,1001.83790535619
1718.75,1003.65460775139
1719,1004.36641466517
1719.25,1003.85963576471
1719.5,1002.48817828072
1719.75,1000.61131689735
1720,998.586303656694
1720.25,996.749386692909
1720.5,995.424366797137
1720.75,994.934881690273
1721,995.54541646273
1721.25,996.906295128291
1721.5,998.303924330272
1721.75,999.019944935026
1722,998.438147429358
1722.25,996.931670932714
1722.5,995.428937607048
1722.75,994.864520174685
1723,996.048693649303
1723.25,998.604458020309
1723.5,1001.49572943613
1723.75,1003.67937783694
1724,1004.22946285948
1724.25,1003.26590670557
1724.5,1001.45830934712
1724.75,999.481157670127
1725,997.960921719826
1725.25,997.071789003851
1725.5,996.739656599162
1725.75,996.887862111899
1726,997.426800144445
1726.25,998.146618581016
1726.5,998.772177243738
1726.75,999.027687138267
1727,998.691553349719
1727.25,998.025604320714
1727.5,997.545643153692
1727.75,997.769727804677
1728,999.120579350591
1728.25,1001.18195185233
1728.5,1003.10169690918
1728.75,1004.02394486863
1729,1003.22061575064
1729.25,1001.05840886615
1729.5,998.460400386311
1729.75,996.354050671494
1730,995.549597443489
1730.25,995.797975942778
1730.5,996.287694231554
1730.75,996.202080246377
1731,994.84874438108
1731.25,992.599691240754
1731.5,990.367717840474
1731.75,989.069878447987
1732,989.502701030166
1732.25,991.483742712922
1732.5,994.354722505467
1732.75,997.454195782753
1733,1000.16201640383
1733.25,1002.1490285976
1733.5,1003.21113156172
1733.75,1003.1447080632
1734,1001.82351818082
1734.25,999.652783954566
1734.5,997.260990037825
1734.75,995.277390933659
1735,994.218290568727
1735.25,993.794185726008
1735.5,993.365439945849
1735.75,992.290988297035
1736,990.067117856672
1736.25,987.109708294029
1736.5,984.212182616244
1736.75,982.169116963221
1737,981.645690283385
1737.25,982.52323798876
1737.5,984.389483708895
1737.75,986.831635173869
1738,989.448827885156
1738.25,991.898176838618
1738.5,993.854388609249
1738.75,994.99217374355
1739,995.125116007501
1739.25,994.64398914159
1739.5,994.089498853811
1739.75,994.002351079994
1740,994.730231382618
1740.25,995.865415308549
1740.5,996.815404158909
1740.75,996.987705288862
1741,996.005863699385
1741.25,994.280148408371
1741.5,992.399858915969
1741.75,990.954282018414
1742,990.355899383588
1742.25,990.396093063093
1742.5,990.729934161557
1742.75,991.012556477512
1743,991.056245596135
1743.25,991.169350240538
1743.5,991.757858700009
1743.75,993.227401263257
1744,995.662280735478
1744.25,998.234145039835
1744.5,999.953707053226
1744.75,999.832694329421
1745,997.392067372861
1745.25,993.486499502146
1745.5,989.186338541141
1745.75,985.561265328844
1746,983.3465179885
1746.25,982.401528803652
1746.5,982.444124685419
1746.75,983.192073396334
1747,984.350540647032
1747.25,985.596544524972
1747.5,986.603289784654
1747.75,987.046953467187
1748,986.907586308441
1748.25,986.727561506917
1748.5,987.110135814367
1748.75,988.651355742381
1749,991.468960349683
1749.25,994.911772040393
1749.5,998.259142917906
1749.75,1000.79451480129
1750,1001.99537361065
1750.25,1001.61366928475
1750.5,999.422134093248
1750.75,995.208963420984
1751,989.495801600475
1751.25,983.841582066497
1751.5,979.883767226334
1751.75,979.226939869406
1752,982.031065163517
1752.25,986.477108157976
1752.5,990.602947694986
1752.75,992.503207518918
1753,991.828731289931
1753.25,989.940349047136
1753.5,988.286474643027
1753.75,988.262837986781
1754,990.030028248583
1754.25,992.500346571061
1754.5,994.530780603401
1754.75,995.032786444846
1755,993.945343896255
1755.25,992.123500387772
1755.5,990.454388424748
1755.75,989.774976059398
1756,990.053303413109
1756.25,990.522306905277
1756.5,990.391758257713
1756.75,988.941361440552
1757,986.480476598945
1757.25,984.102621173353
1757.5,982.92100040021
1757.75,983.957082327465
1758,987.073713710895
1758.25,991.34001109384
1758.5,995.809620900907
1758.75,999.582408167956
1759,1002.21560441219
1759.25,1003.5275245588
1759.5,1003.33953439973
1759.75,1001.57131824819
1760,999.076057021071
1760.25,997.222664150007
1760.5,997.38548150386
1760.75,1000.75501957666
1761,1006.70324639518
1761.25,1013.56430108855
1761.5,1019.660205163
1761.75,1023.49595455028
1762,1025.33717587667
1762.25,1026.43257679431
1762.5,1028.04157493219
1762.75,1031.32033376046
1763,1036.08244569728
1763.25,1041.20262325005
1763.5,1045.53631452527
1763.75,1047.97789175601
1764,1048.23664854163
1764.25,1046.79452111471
1764.5,1044.16390656367
1764.75,1040.85611202475
1765,1037.31663901914
1765.25,1033.88875479137
1765.5,1030.90690464871
1765.75,1028.705142256
1766,1027.48019588936
1766.25,1027.09010135037
1766.5,1027.34160293474
1766.75,1028.04144085269
1767,1028.9552603121
1767.25,1029.70656243223
1767.5,1029.88813670235
1767.75,1029.09277261172
1768,1027.06506504251
1768.25,1024.28432248159
1768.5,1021.4518260338
1768.75,1019.26890384703
1769,1018.34225010653
1769.25,1018.62376877697
1769.5,1019.78847654162
1769.75,1021.51040261396
1770,1023.43662838921
1770.25,1024.97550863162
1770.5,1025.41068431051
1770.75,1024.02471091572
1771,1020.21021606358
1771.25,1014.686512441
1771.5,1009.05174595443
1771.75,1004.91977416376
1772,1003.8297253835
1772.25,1006.03050398179
1772.5,1010.68171924219
1772.75,1016.90879832734
1773,1023.8249644149
1773.25,1030.31800433121
1773.5,1035.07726550321
1773.75,1036.78531831674
1774,1034.18644096629
1774.25,1027.67502891667
1774.5,1019.43503991447
1774.75,1011.7400860671
1775,1006.84120847398
1775.25,1005.54981438034
1775.5,1006.39535329908
1775.75,1007.70495093952
1776,1007.81681619473
1776.25,1005.97724250559
1776.5,1003.00113263524
1776.75,999.859080912163
1777,997.518531033074
1777.25,996.604392235214
1777.5,997.096178042826
1777.75,998.90194828975
1778,1001.92748903603
1778.25,1005.84918844663
1778.5,1009.92060395317
1778.75,1013.34973666447
1779,1015.34850200531
1779.25,1015.53836155168
1779.5,1014.30384553046
1779.75,1012.11280610319
1780,1009.43256311303
1780.25,1006.62471813935
1780.5,1003.81841174597
1780.75,1001.11185284773
1781,998.60356216232
1781.25,996.500137273087
1781.5,995.27417785831
1781.75,995.438474603101
1782,997.504436505435
1782.25,1001.53376625344
1782.5,1006.49400211794
1782.75,1011.18945403656
1783,1014.426929636
1783.25,1015.69372578844
1783.5,1016.07724788586
1783.75,1016.89468717083
1784,1019.46238227526
1784.25,1024.48371809581
1784.5,1030.97056594503
1784.75,1037.64548819295
1785,1043.23109343591
1785.25,1046.89184940177
1785.5,1049.31660563733
1785.75,1051.52270379259
1786,1054.52748551751
1786.25,1059.12541523075
1786.5,1064.81938348724
1786.75,1070.64815102103
1787,1075.64987207403
1787.25,1078.93015790915
1787.5,1080.40535262923
1787.75,1080.52774064719
1788,1079.75913595301
1788.25,1078.55782931468
1788.5,1077.19350316417
1788.75,1075.65589598146
1789,1073.91205808308
1789.25,1071.92904265929
1789.5,1069.75721370579
1789.75,1067.74822195302
1790,1066.32180358736
1790.25,1065.89769479522
1790.5,1066.77878396779
1790.75,1068.23621977832
1791,1069.00360507704
1791.25,1067.80990840283
1791.5,1063.44718024581
1791.75,1056.29069944093
1792,1048.37618621589
1792.25,1041.81789633652
1792.5,1038.72274387966
1792.75,1039.94363613899
1793,1043.67130245408
1793.25,1047.75639288358
1793.5,1050.0497020321
1793.75,1049.13291044308
1794,1046.01790353965
1794.25,1042.22102189465
1794.5,1039.25860608092
1794.75,1038.3420887449
1795,1038.82879091421
1795.25,1039.37904453885
1795.5,1038.65192731495
1795.75,1035.48311143537
1796,1030.49393190115
1796.25,1025.34237956368
1796.5,1021.69920743476
1796.75,1021.13372579161
1797,1023.38205523919
1797.25,1026.58818707606
1797.5,1028.84318254535
1797.75,1028.30455603724
1798,1024.89675957024
1798.25,1020.45482073804
1798.5,1016.90900289193
1798.75,1016.1609208018
1799,1018.62469766145
1799.25,1022.53289667043
1799.5,1025.94420549442
1799.75,1026.93119931297
1800,1024.73183874278
1800.25,1020.61280451567
1800.5,1016.04414618937
1800.75,1012.49377861506
1801,1010.85498216074
1801.25,1010.67307633736
1801.5,1011.300326026
1801.75,1012.08921509522
1802,1012.53446127196
1802.25,1012.5178240184
1802.5,1011.98627773175
1802.75,1010.88684809646
1803,1009.28302973491
1803.25,1007.60286189615
1803.5,1006.34551425981
1803.75,1006.01014463042
1804,1006.86007516326
1804.25,1008.31762452131
1804.5,1009.61772300833
1804.75,1009.99530162194
1805,1008.92844271125
1805.25,1006.82675490852
1805.5,1004.32288885662
1805.75,1002.04949519841
1806,1000.52230556656
1806.25,999.752083529826
1806.5,999.613296047038
1806.75,999.980407966056
1807,1000.71330167647
1807.25,1001.60735567785
1807.5,1002.44011903037
1807.75,1002.98914018614
1808,1003.13348466633
1808.25,1003.20120290602
1808.5,1003.64443094224
1808.75,1004.91530902668
1809,1007.25152814271
1809.25,1009.90760243314
1809.5,1011.85645657295
1809.75,1012.07099213691
1810,1009.86008838434
1810.25,1006.16850685399
1810.5,1002.43816774621
1810.75,1000.11110622432
1811,1000.31131217402
1811.25,1002.37098091627
1811.5,1004.99537591771
1811.75,1006.88909667686
1812,1007.0050740325
1812.25,1005.69507561839
1812.5,1003.80024055299
1812.75,1002.16222564392
1813,1001.46983624378
1813.25,1001.47334858117
1813.5,1001.56704236695
1813.75,1001.1445175024
1814,999.776339677868
1814.25,998.146874155053
1814.5,997.37272211988
1814.75,998.571438647222
1815,1002.55513731633
1815.25,1008.18967940844
1815.5,1013.5770408721
1815.75,1016.81739185618
1816,1016.39021772227
1816.25,1013.16165224783
1816.5,1008.92376973073
1816.75,1005.4706844483
1817,1004.3827642009
1817.25,1005.57130086747
1817.5,1008.16304725174
1817.75,1011.28020357215
1818,1014.11352353892
1818.25,1016.42521472808
1818.5,1018.26136609294
1818.75,1019.6701206018
1819,1020.69417901265
1819.25,1021.32292064146
1819.5,1021.51552373614
1819.75,1021.23082219818
1820,1020.43477145428
1820.25,1019.18636596356
1820.5,1017.60988131468
1820.75,1015.83094363687
1821,1013.98098166622
1821.25,1012.29756191126
1821.5,1011.11111869794
1821.75,1010.75522011811
1822,1011.54400248165
1822.25,1013.32566521554
1822.5,1015.4716608565
1822.75,1017.33184780134
1823,1018.26993913884
1823.25,1018.06365088042
1823.5,1016.96582261995
1823.75,1015.25544548292
1824,1013.21122073616
1824.25,1011.09874547278
1824.5,1009.1654484807
1824.75,1007.65742184355
1825,1006.81693589106
1825.25,1006.63206583922
1825.5,1006.68186453164
1825.75,1006.50838409453
1826,1005.6568219574
1826.25,1003.93355368941
1826.5,1001.59807424224
1826.75,998.955104141454
1827,996.309803104242
1827.25,994.012317211874
1827.5,992.496087352877
1827.75,992.203579191081
1828,993.571907188925
1828.25,996.546216337618
1828.5,1000.19013583344
1828.75,1003.47562620692
1829,1005.38218232825
1829.25,1005.43817358516
1829.5,1004.08362382774
1829.75,1001.84455538004
1830,999.245046959778
1830.25,996.642527392242
1830.5,994.102307175757
1830.75,991.66015384884
1831,989.352753476661
1831.25,987.295517046939
1831.5,985.741833498657
1831.75,984.959043662217
1832,985.209337877164
1832.25,986.432935946226
1832.5,988.063416471462
1832.75,989.489877063155
1833,990.11421534155
1833.25,989.873972596987
1833.5,989.425355479186
1833.75,989.474969184391
1834,990.706432191937
1834.25,993.040652289032
1834.5,995.47745119004
1834.75,996.961634928007
1835,996.473245030708
1835.25,993.939664297061
1835.5,990.318574341467
1835.75,986.619520441296
1836,983.823785047973
1836.25,982.196806269867
1836.5,981.249594316764
1836.75,980.457173194087
1837,979.318984646663
1837.25,977.803303240525
1837.5,976.300842261127
1837.75,975.217422318582
1838,974.93510560197
1838.25,975.507127307809
1838.5,976.746573168599
1838.75,978.46105693104
1839,980.448856207255
1839.25,982.418320608323
1839.5,984.027545523224
1839.75,984.934077407935
1840,984.831320036633
1840.25,983.674252440595
1840.5,981.533762558987
1840.75,978.481257168348
1841,974.682143510631
1841.25,970.869528991853
1841.5,967.988571208617
1841.75,966.984793309644
1842,968.459631750528
1842.25,971.425463085541
1842.5,974.436250296361
1842.75,976.04615884188
1843,975.333718383308
1843.25,973.009474521172
1843.5,970.100568312499
1843.75,967.632805295356
1844,966.262422720326
1844.25,965.773964993434
1844.5,965.82636154497
1844.75,966.081346883325
1845,966.403797461713
1845.25,966.99531499077
1845.5,968.089180900836
1845.75,969.903606732577
1846,972.199523597315
1846.25,974.209061732913
1846.5,975.134882645357
1846.75,974.240943080934
1847,971.833813704371
1847.25,969.092101733723
1847.5,967.221252450959
1847.75,967.338616014611
1848,969.543994655521
1848.25,973.28380864991
1848.5,977.993727032564
1848.75,983.0711552983
1849,987.631147425403
1849.25,990.662378559189
1849.5,991.152931394134
1849.75,988.417712334696
1850,983.625035124968
1850.25,978.595763020562
1850.5,975.151486319556
1850.75,974.665048872576
1851,976.229406634089
1851.25,978.2152495492
1851.5,978.99298365476
1851.75,977.446941682647
1852,974.393875419036
1852.25,971.104647066102
1852.5,968.849771147067
1852.75,968.492478264189
1853,969.702232086978
1853.25,971.930914768945
1853.5,974.630671889695
1853.75,977.293437499177
1854,979.493091995085
1854.25,980.813617336117
1854.5,980.846398704279
1854.75,979.62883511779
1855,977.890695829334
1855.25,976.421431569601
1855.5,975.995280824482
1855.75,976.824773132127
1856,978.409471709152
1856.25,980.202935831122
1856.5,981.663776222575
1856.75,982.36417813585
1857,981.988470650956
1857.25,980.225748142428
1857.5,976.824018004948
1857.75,972.483074260029
1858,968.673089374268
1858.25,966.886357876415
1858.5,968.446304086898
1858.75,972.700979487088
1859,977.718157283641
1859.25,981.544008604011
1859.5,982.455212934935
1859.75,980.448559267254
1860,976.298302372382
1860.25,970.782505952165
1860.5,964.728644611691
1860.75,959.258083816627
1861,955.600412746316
1861.25,954.985389641274
1861.5,958.054281134215
1861.75,963.016084038778
1862,967.451505060029
1862.25,968.945270518165
1862.5,966.393843082492
1862.75,961.886663327046
1863,957.989740937546
1863.25,957.248364073035
1863.5,960.51251755216
1863.75,965.705145573048
1864,970.458848271967
1864.25,972.463722415262
1864.5,970.976078955778
1864.75,966.967197703027
1865,961.495682831384
1865.25,955.614869451838
1865.5,950.291694807885
1865.75,946.422496706531
1866,944.901544024757
1866.25,946.480037238332
1866.5,950.627240361387
1866.75,956.136464993029
1867,961.794944291122
1867.25,966.567586363974
1867.5,970.217407783877
1867.75,972.73142683438
1868,974.09675612172
1868.25,974.378513263899
1868.5,973.864697659621
1868.75,972.882859326501
1869,971.760418121715
1869.25,970.802474408417
1869.5,970.266701057049
1869.75,970.404705659825
1870,971.46045757681
1870.25,973.206751003345
1870.5,974.678554021827
1870.75,974.846480508765
1871,972.715641693896
1871.25,968.331272879649
1871.5,962.937616570078
1871.75,957.845390678707
1872,954.331532931947
1872.25,953.050956346805
1872.5,954.112095837081
1872.75,957.604794908866
1873,963.500972102658
1873.25,970.658309377784
1873.5,977.32127754733
1873.75,981.727974175308
1874,982.459361205619
1874.25,980.010249967113
1874.5,975.539233719683
1874.75,970.205559179917
1875,965.061408022472
1875.25,960.678566523112
1875.5,957.494139688915
1875.75,955.945107558436
1876,956.195329659378
1876.25,957.552530903282
1876.5,959.157129513311
1876.75,960.154522107982
1877,960.248218290469
1877.25,960.202634065265
1877.5,960.900922749971
1877.75,963.200995455131
1878,967.07568874226
1878.25,971.400854110449
1878.5,974.984105675276
1878.75,976.692674590936
1879,976.401432169247
1879.25,974.824659625984
1879.5,972.702256838994
1879.75,970.75078955433
1880,969.414877757827
1880.25,968.963366040293
1880.5,969.662154698003
1880.75,971.678580436473
1881,974.397829011175
1881.25,976.832347830796
1881.5,977.992294974273
1881.75,977.107350377696
1882,974.601579597819
1882.25,971.303297348437
1882.5,968.041139374132
1882.75,965.591860445567
1883,964.515860368591
1883.25,965.317149295265
1883.5,968.49913769323
1883.75,974.010251427456
1884,980.21659283063
1884.25,985.204117402349
1884.5,987.066198295268
1884.75,984.867242945086
1885,979.598435380241
1885.25,972.478148558833
1885.5,964.723724435526
1885.75,957.468895639
1886,951.703453444537
1886.25,948.402963798113
1886.5,948.503053615411
1886.75,951.603243120689
1887,955.683205852728
1887.25,958.625267814068
1887.5,958.493932329602
1887.75,955.7406741827
1888,952.495209876773
1888.25,950.92214986279
1888.5,952.817869386987
1888.75,957.243122481214
1889,962.026997483261
1889.25,964.992653005448
1889.5,964.590209934671
1889.75,961.819872359819
1890,958.33010090269
1890.25,955.768251394128
1890.5,955.122745046171
1890.75,955.610731335372
1891,956.154790252638
1891.25,955.686496575536
1891.5,953.777585611026
1891.75,951.054579818231
1892,948.242460665772
1892.25,946.052448447624
1892.5,944.858367611676
1892.75,944.684616909171
1893,945.539427020822
1893.25,947.39396495472
1893.5,949.834908893901
1893.75,952.221261079223
1894,953.909048034713
1894.25,954.354774426648
1894.5,953.534683044894
1894.75,951.592565173023
1895,948.67243868507
1895.25,945.117690519052
1895.5,941.866351738328
1895.75,939.966828456254
1896,940.454796254646
1896.25,943.402547980361
1896.5,947.261453038303
1896.75,950.327376258468
1897,950.984403200717
1897.25,949.289476270104
1897.5,946.795586995493
1897.75,945.108447713372
1898,945.658700058893
1898.25,948.295151463571
1898.5,952.026844401987
1898.75,955.855089902492
1899,958.841077072588
1899.25,960.316979163345
1899.5,959.691590544878
1899.75,956.374714785104
1900,950.369842484069
1900.25,943.274253150713
1900.5,936.949906997688
1900.75,933.242573881055
1901,932.813294375929
1901.25,934.352332481073
1901.5,936.363673348152
1901.75,937.416487754047
1902,937.176692593606
1902.25,936.221212512812
1902.5,935.154608720656
1902.75,934.5240053945
1903,934.482120352058
1903.25,935.016021079386
1903.5,936.112153044725
1903.75,937.64325526433
1904,939.127030092838
1904.25,940.012077425797
1904.5,939.75535672579
1904.75,938.29498929766
1905,936.303391239579
1905.25,934.514817879086
1905.5,933.617293644429
1905.75,933.546739255198
1906,933.627596334127
1906.25,933.166578821875
1906.5,931.593978676109
1906.75,929.13647753744
1907,926.336584228461
1907.25,923.737672822339
1907.5,921.953974741789
1907.75,921.803434749125
1908,924.140382586311
1908.25,929.781504119071
1908.5,938.204457819136
1908.75,947.216175775629
1909,954.518586144514
1909.25,958.071677782791
1909.5,958.431903557625
1909.75,957.657249173013
1910,957.823967135649
1910.25,960.592925763388
1910.5,965.2613651746
1910.75,970.29166137753
1911,974.145307288321
1911.25,975.891164169601
1911.5,976.680837349955
1911.75,978.112008230461
1912,981.78034519618
1912.25,988.463875598723
1912.5,996.871599095206
1912.75,1005.39022036561
1913,1012.41006795634
1913.25,1016.85212379223
1913.5,1018.7216944697
1913.75,1018.15650801019
1914,1015.29615800286
1914.25,1010.74596137233
1914.5,1006.18713220685
1914.75,1003.45234126768
1915,1004.37288550263
1915.25,1009.75492285688
1915.5,1017.56141802233
1915.75,1025.26645108613
1916,1030.34498852317
1916.25,1031.23252055199
1916.5,1029.15500363721
1916.75,1025.84229139865
1917,1023.02423745611
1917.25,1022.1703818835
1917.5,1023.67006694951
1917.75,1027.63248818283
1918,1034.16684061702
1918.25,1043.09813422419
1918.5,1052.69449207386
1918.75,1060.69361535129
1919,1064.83275812287
1919.25,1063.18534090093
1919.5,1056.6941692553
1919.75,1047.75586161583
1920,1038.77836422235
1920.25,1032.10179472408
1920.5,1028.47584701598
1920.75,1027.04273595392
1921,1026.87343662458
1921.25,1027.04623384457
1921.5,1027.01422483365
1921.75,1026.77749366872
1922,1026.37941889286
1922.25,1025.86435853635
1922.5,1025.39756172057
1922.75,1025.38035339604
1923,1026.24136265225
1923.25,1028.40847486604
1923.5,1031.94004739566
1923.75,1035.92813295525
1924,1039.30878735657
1924.25,1041.01807727526
1924.5,1040.35286537854
1924.75,1037.92081620329
1925,1034.62718464932
1925.25,1031.37722561645
1925.5,1028.97220729141
1925.75,1027.5931953654
1926,1027.19228235824
1926.25,1027.72119658719
1926.5,1029.09176738866
1926.75,1030.86176175062
1927,1032.4037219461
1927.25,1033.08857013922
1927.5,1032.3599563703
1927.75,1030.62199038781
1928,1028.9578059737
1928.25,1028.4648474413
1928.5,1030.18177231938
1928.75,1033.7970828445
1929,1037.65020327692
1929.25,1040.02198655562
1929.5,1039.22690739046
1929.75,1035.01591221439
1930,1029.08450585935
1930.25,1023.26636281879
1930.5,1019.38980059015
1930.75,1018.43440511429
1931,1019.61072584263
1931.25,1021.90814104952
1931.5,1024.3166739316
1931.75,1026.14447975944
1932,1027.53067649282
1932.25,1028.74836529449
1932.5,1030.07064204026
1932.75,1031.71721503177
1933,1033.72309322335
1933.25,1036.08337152173
1933.5,1038.79314483367
1933.75,1041.70254093154
1934,1043.94274858455
1934.25,1044.42249842176
1934.5,1042.05045503056
1934.75,1035.96937935219
1935,1027.21287575222
1935.25,1017.72928008613
1935.5,1009.47289702008
1935.75,1004.2781115582
1936,1002.24502668253
1936.25,1002.16876315733
1936.5,1002.81256499548
1936.75,1003.01419558678
1937,1002.81635192189
1937.25,1003.23753575745
1937.5,1005.32430245504
1937.75,1010.03219322467
1938,1016.7709134227
1938.25,1023.6584445641
1938.5,1028.77309078816
1938.75,1030.2797476291
1939,1027.99961564185
1939.25,1023.24290818261
1939.5,1017.37285260402
1939.75,1011.73480261026
1940,1007.0577690319
1940.25,1003.3127751844
1940.5,1000.42426124656
1940.75,998.3113089097
1941,996.633994519207
1941.25,994.683263210188
1941.5,991.721806062868
1941.75,987.032235154046
1942,980.835114467496
1942.25,974.673510841012
1942.5,970.190179757274
1942.75,968.991848331831
1943,971.386427535788
1943.25,976.051251465852
1943.5,981.560195506508
1943.75,986.526010003053
1944,990.317353025482
1944.25,992.98914954563
1944.5,994.621230530956
1944.75,995.298516638731
1945,995.181759788348
1945.25,994.489920885561
1945.5,993.443448612418
1945.75,992.254398976228
1946,991.019185885896
1946.25,989.750025190346
1946.5,988.457228058096
1946.75,987.17383544359
1947,986.214624045355
1947.25,986.084806821276
1947.5,987.293184012266
1947.75,990.264799757707
1948,994.551586743364
1948.25,999.18651980138
1948.5,1003.19571482157
1948.75,1005.67965053713
1949,1006.39634813296
1949.25,1005.44681384857
1949.5,1002.93502312094
1949.75,999.019160098244
1950,994.36324464088
1950.25,989.90690778924
1950.5,986.592551863553
1950.75,985.223416504108
1951,985.268473057867
1951.25,985.453795397822
1951.5,984.497437983612
1951.75,981.332845091964
1952,976.606043059513
1952.25,971.780562895943
1952.5,968.32499094279
1952.75,967.459398496908
1953,968.793342051864
1953.25,971.29442445154
1953.5,973.928586495689
1953.75,975.788110242783
1954,976.51907755972
1954.25,975.919267388193
1954.5,973.786550842492
1954.75,970.19279509095
1955,966.089864794699
1955.25,962.60593900287
1955.5,960.8668616254
1955.75,961.327105539385
1956,962.845675263212
1956.25,964.049722189928
1956.5,963.583696488362
1956.75,961.127625226122
1957,957.965330072117
1957.25,955.518435905361
1957.5,955.159579435102
1957.75,957.007261163505
1958,959.850692999929
1958.25,962.415052246867
1958.5,963.492934244485
1958.75,962.68661255731
1959,960.133322649153
1959.25,955.979799053254
1959.5,950.455723682131
1959.75,944.392548778251
1960,938.88709690319
1960.25,935.037352022437
1960.5,933.608816709134
1960.75,933.979315127176
1961,935.164692121487
1961.25,936.183846758419
1961.5,936.440936051839
1961.75,936.096873637625
1962,935.40072184274
1962.25,934.600840398459
1962.5,933.929574210055
1962.75,933.603333431735
1963,933.837841637128
1963.25,934.793188796836
1963.5,936.164103363326
1963.75,937.413466778797
1964,938.002465964726
1964.25,937.487810180146
1964.5,935.779637547464
1964.75,932.869808280352
1965,928.754511411869
1965.25,923.847548952142
1965.5,919.322162100674
1965.75,916.432048687995
1966,916.377172744824
1966.25,919.386884728877
1966.5,924.847778858433
1966.75,932.118447060276
1967,940.540293842153
1967.25,949.358917143013
1967.5,957.786729945253
1967.75,965.036829990131
1968,970.600876168639
1968.25,974.670069016916
1968.5,977.54367164368
1968.75,979.519171387457
1969,980.7591154428
1969.25,981.198692683574
1969.5,980.751240550581
1969.75,979.333705702167
1970,977.015420451877
1970.25,974.070956373319
1970.5,970.789359650745
1970.75,967.45852101478
1971,964.335030232151
1971.25,961.641301344633
1971.5,959.598016596292
1971.75,958.406603046053
1972,957.969097581251
1972.25,957.951159429443
1972.5,958.012016170295
1972.75,957.849589187169
1973,957.493657578618
1973.25,957.142807865596
1973.5,956.996961237101
1973.75,957.197809342946
1974,957.592892875604
1974.25,957.93708339287
1974.5,957.985332010605
1974.75,957.669388825607
1975,957.454851741949
1975.25,957.907684131171
1975.5,959.589267392174
1975.75,962.569829344573
1976,965.997969039914
1976.25,968.920764429921
1976.5,970.411997832786
1976.75,970.43729201735
1977,970.042631763073
1977.25,970.338845703179
1977.5,972.38161090699
1977.75,976.198089794587
1978,980.904851462573
1978.25,985.587007396653
1978.5,989.364354232997
1978.75,991.765767425681
1979,992.586855623956
1979.25,991.627801062445
1979.5,988.770520910217
1979.75,984.698627155405
1980,980.550199603513
1980.25,977.468513906915
1980.5,976.424920531453
1980.75,976.898331780376
1981,977.600883234257
1981.25,977.238423148762
1981.5,974.778990657938
1981.75,970.882463655102
1982,966.880444875418
1982.25,964.106236938774
1982.5,963.601501680603
1982.75,964.988998806
1983,967.460599948622
1983.25,970.208104232613
1983.5,972.489684137189
1983.75,973.773327113068
1984,973.568379412945
1984.25,971.386444405158
1984.5,967.223919863981
1984.75,962.161947268941
1985,957.428923202947
1985.25,954.242840567075
1985.5,953.084132056853
1985.75,953.219589659074
1986,953.80291821476
1986.25,954.013529401039
1986.5,953.647641661978
1986.75,953.132817420234
1987,952.925233871507
1987.25,953.446371362724
1987.5,954.726481152488
1987.75,956.549047793901
1988,958.693689151382
1988.25,960.893751451947
1988.5,962.602306440771
1988.75,963.167448825982
1989,961.937094950216
1989.25,958.581605506473
1989.5,953.960107291414
1989.75,949.205614993913
1990,945.449359001122
1990.25,943.32168102242
1990.5,942.268143527735
1990.75,941.563035167576
1991,940.499755037371
1991.25,939.135678977281
1991.5,938.532972953302
1991.75,939.822212362742
1992,944.036163282625
1992.25,950.911426421181
1992.5,959.266025063741
1992.75,967.898508905443
1993,975.684357527516
1993.25,981.958971181948
1993.5,986.22792611416
1993.75,987.997073480235
1994,986.99641216089
1994.25,983.875868223667
1994.5,979.521334653537
1994.75,974.818697695689
1995,970.528242053836
1995.25,966.963875505076
1995.5,964.340387508637
1995.75,962.872229602897
1996,962.591130106284
1996.25,963.044737472562
1996.5,963.701445252793
1996.75,964.034425515781
1997,963.926635964639
1997.25,963.979377255007
1997.5,964.866603157695
1997.75,967.236840873251
1998,970.912505534741
1998.25,974.728341352845
1998.5,977.461030689313
1998.75,977.955313412253
1999,976.217059358472
1999.25,973.225144851506
1999.5,969.988510140359
1999.75,967.454715778728
2000,965.828660065748
2000.25,964.821902855674
2000.5,964.13711945011
2000.75,963.48983089689
2001,962.696917730425
2001.25,961.623330408095
2001.5,960.134308826297
2001.75,958.168252021131
2002,956.031629913561
2002.25,954.146411337615
2002.5,952.93455876816
2002.75,952.715853761369
2003,953.491722012926
2003.25,955.201764958457
2003.5,957.781589763847
2003.75,960.773921910968
2004,963.00281318564
2004.25,963.21561615001
2004.5,960.203691689519
2004.75,954.096626279054
2005,946.573160048926
2005.25,939.398510564876
2005.5,934.245186718684
2005.75,931.376232501114
2006,929.958179892227
2006.25,929.128682253271
2006.5,928.125452122906
2006.75,926.82145502
2007,925.338156109045
2007.25,923.797656453315
2007.5,922.359684793983
2007.75,921.285819143261
2008,920.854701595161
2008.25,921.327295179548
2008.5,922.40402426611
2008.75,923.123007626983
2009,922.484153841355
2009.25,919.65228814692
2009.5,915.217285374266
2009.75,910.49841093359
2010,906.820750840497
2010.25,905.152094700356
2010.5,905.28051504005
2010.75,906.75094385263
2011,909.106052972013
2011.25,911.816903683773
2011.5,914.269974836252
2011.75,915.846868178387
2012,916.04143538103
2012.25,915.165768056307
2012.5,913.894297962652
2012.75,912.902649277593
2013,912.640375245959
2013.25,912.959511129753
2013.5,913.614511493312
2013.75,914.363346946411
2014,915.049443861798
2014.25,915.604312998608
2014.5,915.963507037371
2014.75,916.023069443244
2015,915.415639400332
2015.25,913.666126152434
2015.5,910.300473658439
2015.75,905.291923762004
2016,899.704570855323
2016.25,894.765665896641
2016.5,891.65284470792
2016.75,890.523969878243
2017,890.580324013331
2017.25,890.986229448374
2017.5,891.052127559105
2017.75,890.762452261278
2018,890.295839534678
2018.25,889.827815253599
2018.5,889.403691945699
2018.75,888.894475908317
2019,888.158990913395
2019.25,887.080659494767
2019.5,885.708868712041
2019.75,884.161617290365
2020,882.556461935182
2020.25,880.94880585568
2020.5,879.281831325099
2020.75,877.486938043455
2021,875.520358071809
2021.25,873.558298766405
2021.5,871.891880721627
2021.75,870.810748946384
2022,870.261626500597
2022.25,869.500526370621
2022.5,867.700543223729
2022.75,864.227935053312
2023,860.114502817266
2023.25,857.243017951141
2023.5,857.483693354462
2023.75,861.00436129901
2024,864.966549901874
2024.25,866.224864476924
2024.5,862.308301385544
2024.75,854.910903921964
2025,847.315117136512
2025.25,842.752728827127
2025.5,842.274146907955
2025.75,844.042912392414
2026,846.024190302714
2026.25,846.576857474678
2026.5,845.556455523548
2026.75,843.174107764023
2027,839.675450267801
2027.25,835.760587675281
2027.5,832.450275590282
2027.75,830.767163899225
2028,831.228093562511
2028.25,833.407240122385
2028.5,836.775814057095
2028.75,840.715590284348
2029,844.18130752223
2029.25,846.000392229039
2029.5,845.100462555061
2029.75,841.950141021784
2030,838.225914506586
2030.25,835.632983681937
2030.5,835.189878276375
2030.75,836.421922019961
2031,838.658284801985
2031.25,841.250186030268
2031.5,843.681554133814
2031.75,845.485729731799
2032,846.237294207511
2032.25,846.417524540813
2032.5,847.39275226245
2032.75,850.564905495412
2033,856.448574244287
2033.25,863.108981140861
2033.5,868.192299836947
2033.75,869.599029120829
2034,867.635211148456
2034.25,863.931860101582
2034.5,860.129451916814
2034.75,857.339290792694
2035,855.643207221865
2035.25,855.004508052417
2035.5,855.400326645587
2035.75,856.908221816267
2036,859.650083351859
2036.25,863.736797215965
2036.5,868.804046232475
2036.75,873.846109508229
2037,877.811887157845
2037.25,879.893383705419
2037.5,880.456037248917
2037.75,880.218872368502
2038,879.890133434418
2038.25,879.813513657
2038.5,879.889870327311
2038.75,879.993365596218
2039,880.038521352128
2039.25,880.154467004734
2039.5,880.54138387481
2039.75,881.389828561009
2040,882.480428546847
2040.25,883.040755474816
2040.5,882.259277987978
2040.75,879.589565947154
2041,876.09836342804
2041.25,873.459223989625
2041.5,873.324549239449
2041.75,876.015502006701
2042,879.79193824088
2042.25,882.736643928575
2042.5,883.298763503551
2042.75,882.29944673243
2043,881.504529523745
2043.25,882.662822361233
2043.5,886.130371234299
2043.75,889.963902258979
2044,892.004961501161
2044.25,890.434182817734
2044.5,886.089702825153
2044.75,881.062707699543
2045,877.446589248337
2045.25,876.41195940613
2045.5,877.148961797196
2045.75,878.591510288853
2046,879.72441856543
2046.25,880.054442266097
2046.5,879.394656791783
2046.75,877.56326884608
2047,874.693504141022
2047.25,871.649718058067
2047.5,869.39972944699
2047.75,868.829863839407
2048,869.903902287699
2048.25,872.002011107969
2048.5,874.495383360489
2048.75,876.808807651884
2049,878.487305816236
2049.25,879.092269950157
2049.5,878.258810136741
2049.75,876.377520831768
2050,874.282178239897
2050.25,872.810831468262
2050.5,872.45543531108
2050.75,872.905071445827
2051,873.735266084535
2051.25,874.546033635434
2051.5,875.195411008591
2051.75,875.696061525945
2052,876.063012598526
2052.25,876.369905413356
2052.5,876.821810210197
2052.75,877.641682238924
2053,879.043733649161
2053.25,881.150081130723
2053.5,884.027663323228
2053.75,887.741686167377
2054,892.092347192167
2054.25,896.258388763506
2054.5,899.32957977601
2054.75,900.46184923333
2055,899.677967480891
2055.25,897.610157884436
2055.5,894.903315269497
2055.75,892.208054967534
2056,890.195634062297
2056.25,889.541963877462
2056.5,890.892762694113
2056.75,894.024652756825
2057,897.73539114249
2057.25,900.77049065414
2057.5,902.161771778856
2057.75,902.515982300329
2058,902.978533664087
2058.25,904.683351001313
2058.5,907.764166126982
2058.75,910.615319702208
2059,911.457012830631
2059.25,908.705780271961
2059.5,902.99635371997
2059.75,896.364661631582
2060,890.868663975384
2060.25,888.011514406655
2060.5,887.271635339841
2060.75,887.665696457261
2061,888.227748188115
2061.25,888.461923465986
2061.5,888.385182600318
2061.75,888.040435925757
2062,887.518302947979
2062.25,887.156163664088
2062.5,887.37093953504
2062.75,888.573316123489
2063,890.866375575697
2063.25,893.9122903168
2063.5,897.339208823664
2063.75,900.772247566205
2064,903.814874013474
2064.25,906.061141886456
2064.5,907.106794058135
2064.75,906.839220351663
2065,905.763204810893
2065.25,904.462139137746
2065.5,903.494115669722
2065.75,903.024627759352
2066,902.909596686083
2066.25,902.996544160342
2066.5,903.219511971158
2066.75,903.885691882987
2067,905.40285164372
2067.25,908.180773975119
2067.5,912.727811052558
2067.75,919.693520961901
2068,929.738349481911
2068.25,943.279664141418
2068.5,958.509796414514
2068.75,972.42735361361
2069,982.019549212192
2069.25,985.150200713584
2069.5,983.15773721699
2069.75,978.241361577777
2070,972.600143053978
2070.25,968.041511994639
2070.5,965.120734579802
2070.75,964.143354917641
2071,965.413272782608
2071.25,968.797557153147
2071.5,973.141277698477
2071.75,977.143567983398
2072,979.516251196916
2072.25,979.791317660452
2072.5,978.807025072862
2072.75,977.518191898569
2073,976.86316298399
2073.25,977.166381385461
2073.5,977.969816323896
2073.75,978.764625621332
2074,979.045794941047
2074.25,978.396652532106
2074.5,976.489037465897
2074.75,972.998650302398
2075,967.658157403608
2075.25,961.11157028838
2075.5,954.735893509263
2075.75,949.928895795616
2076,947.924083320964
2076.25,948.25540111855
2076.5,949.452422695906
2076.75,950.031673332522
2077,948.824394765015
2077.25,946.346450614375
2077.5,943.675024162734
2077.75,941.887325618523
2078,941.627923920848
2078.25,942.268777123366
2078.5,942.949026358885
2078.75,942.816841753709
2079,941.553777022088
2079.25,939.663361189903
2079.5,937.719276343716
2079.75,936.254989328629
2080,935.105941401997
2080.25,933.516292121082
2080.5,930.711519081545
2080.75,926.122271417275
2081,920.621878061109
2081.25,915.702539932502
2081.5,912.858434736404
2081.75,912.991538744311
2082,915.221537249235
2082.25,918.334181199789
2082.5,921.142712048904
2082.75,923.297495592063
2083,925.418643013135
2083.25,928.180460161746
2083.5,932.09700779682
2083.75,936.349682339202
2084,939.459146179922
2084.25,939.941378028833
2084.5,936.960490138487
2084.75,931.927796224505
2085,926.741314511168
2085.25,923.287082071704
2085.5,922.425738110847
2085.75,923.221577577904
2086,924.557361597714
2086.25,925.369705123523
2086.5,925.42761123196
2086.75,925.154726831521
2087,924.992359571577
2087.25,925.294867644939
2087.5,925.934531970401
2087.75,926.617506999267
2088,927.050446032611
2088.25,927.093915450193
2088.5,926.959738557759
2088.75,926.908507978579
2089,927.199544089304
2089.25,928.060582353026
2089.5,929.686426035513
2089.75,932.27033655176
2090,935.891880142239
2090.25,939.722534098933
2090.5,942.498630946655
2090.75,942.953811800653
2091,940.375309026281
2091.25,935.99098024764
2091.5,931.453682877989
2091.75,928.40787666482
2092,927.673685755893
2092.25,928.564250105164
2092.5,930.232002035876
2092.75,931.856733692692
2093,933.108127129488
2093.25,934.07892831678
2093.5,934.875787669693
2093.75,935.590639112881
2094,936.217235609713
2094.25,936.709150058804
2094.5,937.019821823759
2094.75,937.081293281486
2095,936.760569131032
2095.25,935.912342447843
2095.5,934.398909752483
2095.75,932.504721106776
2096,931.149700746893
2096.25,931.306290543608
2096.5,933.845155638136
2096.75,938.139988721626
2097,942.425219128234
2097.25,944.906717665205
2097.5,944.157520690142
2097.75,940.88561564597
2098,936.568642407246
2098.25,932.684932388545
2098.5,930.216456027211
2098.75,928.654841055028
2099,927.213162501908
2099.25,925.113946355685
2099.5,922.037768702708
2099.75,918.318727842231
2100,914.341021995992
2100.25,910.497541083811
2100.5,907.284501589446
2100.75,905.265883872392
2101,905.00684799624
2101.25,906.69352656836
2101.5,909.034416812718
2101.75,910.377982847183
2102,909.119489431391
2102.25,905.602231486459
2102.5,902.777115605964
2102.75,903.777291990352
2103,911.209260120812
2103.25,923.075094428373
2103.5,934.99731422065
2103.75,942.581030631575
2104,943.121570635961
2104.25,938.534192998213
2104.5,931.516315302504
2104.75,924.74040869885
2105,919.639856058962
2105.25,915.862572723093
2105.5,912.917659772438
2105.75,910.34476533641
2106,908.057145843134
2106.25,906.218180379777
2106.5,904.995844594089
2106.75,904.529374511436
2107,904.844702137084
2107.25,905.939841153045
2107.5,907.814936642695
2107.75,910.560905139845
2108,914.391372304936
2108.25,919.528665274228
2108.5,926.120559889829
2108.75,933.680723267487
2109,941.402478027214
2109.25,948.476702018463
2109.5,954.171928665492
2109.75,958.006536262149
2110,959.549051368416
2110.25,958.376000690376
2110.5,954.789781940938
2110.75,950.388090821966
2111,946.90262491737
2111.25,946.008505615403
2111.5,947.670527318582
2111.75,949.879318719611
2112,950.515823893218
2112.25,947.675218251805
2112.5,941.994110818189
2112.75,935.773288647103
2113,931.342398913416
2113.25,930.514235373346
2113.5,931.951306108219
2113.75,933.129303329682
2114,931.523647058014
2114.25,925.68126649838
2114.5,917.006979903877
2114.75,907.376912553951
2115,898.638267312881
2115.25,891.57288737028
2115.5,885.611872299216
2115.75,880.099312673943
2116,874.502303581239
2116.25,869.193300616388
2116.5,864.94909365379
2116.75,862.539904477621
2117,861.997746626911
2117.25,862.052638965904
2117.5,861.301887890935
2117.75,858.611290290078
2118,854.631413197599
2118.25,850.740849729464
2118.5,848.292032368623
2118.75,847.464782143283
2119,846.872540359036
2119.25,845.019612026328
2119.5,840.729373368502
2119.75,834.126841496551
2120,825.668908183027
2120.25,815.883412207842
2120.5,806.305085534306
2120.75,799.216719701133
2121,796.885381674896
2121.25,799.452342803854
2121.5,803.694350851098
2121.75,806.092997061539
2122,804.560575098481
2122.25,800.821218218411
2122.5,797.22696481791
2122.75,795.720072187248
2123,796.116291583723
2123.25,797.543704122385
2123.5,799.128036839342
2123.75,799.976048188315
2124,799.184057153185
2124.25,795.924043054153
2124.5,790.863197406208
2124.75,786.038135373041
2125,783.508153444168
2125.25,783.757036490999
2125.5,784.880520711417
2125.75,784.780615934161
2126,782.446904729024
2126.25,779.256727506196
2126.5,776.904453686457
2126.75,776.544092487017
2127,777.553815961304
2127.25,778.947534373311
2127.5,779.891996380071
2127.75,780.247850381059
2128,780.072568710142
2128.25,779.433797209419
2128.5,778.464944575041
2128.75,777.325602709519
2129,776.171292162089
2129.25,775.117924610348
2129.5,774.259390081352
2129.75,773.680563651955
2130,773.341956204825
2130.25,773.111794453525
2130.5,772.850756891547
2130.75,772.305940590567
2131,771.116064703317
2131.25,768.935569745379
2131.5,766.090542629794
2131.75,763.721957087805
2132,763.00256452913
2132.25,764.158798198692
2132.5,765.999195225286
2132.75,767.224291192746
2133,767.218927846005
2133.25,766.54656962907
2133.5,765.885194467285
2133.75,765.59673679183
2134,765.38752194591
2134.25,764.883068903903
2134.5,763.964232824072
2134.75,763.145866481785
2135,763.03929582776
2135.25,763.938821463974
2135.5,765.20277643274
2135.75,766.01763661363
2136,765.870438554505
2136.25,765.282696809367
2136.5,764.998318095843
2136.75,765.563650057977
2137,766.701567195225
2137.25,767.920419988335
2137.5,768.816739470077
2137.75,769.427360224439
2138,769.926266182755
2138.25,770.46955522443
2138.5,771.101703498767
2138.75,771.824305019119
2139,772.624920678934
2139.25,773.379133909783
2139.5,773.908623103796
2139.75,774.039050739261
2140,773.642960745156
2140.25,772.621584751604
2140.5,770.913522690666
2140.75,769.031800611182
2141,767.942879033084
2141.25,768.575917207636
2141.5,770.731743415384
2141.75,773.090159656991
2142,774.314066079887
2142.25,774.088439103876
2142.5,773.32372445183
2142.75,772.994515347974
2143,773.586419530032
2143.25,774.829603136334
2143.5,776.389724810714
2143.75,777.956829871617
2144,779.269299971761
2144.25,780.071392048865
2144.5,780.20822672976
2144.75,779.792824827249
2145,778.982190242435
2145.25,777.980276946143
2145.5,777.168611055678
2145.75,776.970692514138
2146,777.652593370288
2146.25,778.635908873927
2146.5,779.060277399224
2146.75,778.222677706633
2147,776.60421974944
2147.25,775.224605063243
2147.5,775.008781990019
2147.75,775.797071498844
2148,776.752362784123
2148.25,777.085509078122
2148.5,776.957165927843
2148.75,777.300972348078
2149,779.025455804996
2149.25,781.779438485928
2149.5,783.852522550507
2149.75,783.500300732671
2150,780.662715043083
2150.25,777.718689725704
2150.5,777.228821773544
2150.75,780.261080888407
2151,784.7595969294
2151.25,788.276954162882
2151.5,789.170612936241
2151.75,788.087381663129
2152,786.078378672525
2152.25,784.177401735256
2152.5,783.340828693656
2152.75,784.50341456707
2153,788.376238641593
2153.25,794.114769097159
2153.5,800.21364392263
2153.75,805.256056723434
2154,808.836421308453
2154.25,811.180228688594
2154.5,812.52268771641
2154.75,813.102119386735
2155,813.160200383969
2155.25,812.939731685557
2155.5,812.837396868809
2155.75,813.571728954238
2156,815.901663260366
2156.25,820.156358026453
2156.5,824.790660832325
2156.75,827.748600940896
2157,827.211596440138
2157.25,823.750821769417
2157.5,819.319972022094
2157.75,815.862322292111
2158,814.231311231854
2158.25,813.846944858152
2158.5,814.031461779915
2158.75,813.99142087814
2159,812.61592513884
2159.25,808.740102785293
2159.5,801.666599391858
2159.75,793.45902324514
2160,787.190919507012
2160.25,785.659175708196
2160.5,788.084786637473
2160.75,791.208063292327
2161,791.815151381724
2161.25,788.941939962757
2161.5,783.90101218235
2161.75,778.101575000708
2162,772.671216243035
2162.25,768.294122158236
2162.5,765.612701579946
2162.75,764.725319245778
2163,764.541754164762
2163.25,763.815739840268
2163.5,761.770608298301
2163.75,758.85948470547
2164,755.734282603908
2164.25,752.929881247594
2164.5,750.620507773726
2164.75,748.911117957091
2165,747.801466041726
2165.25,746.943342280055
2165.5,745.91675073514
2165.75,744.529147322362
2166,743.331362169723
2166.25,743.025679791905
2166.5,743.947522126753
2166.75,745.288765976064
2167,746.019607369145
2167.25,745.60394778254
2167.5,744.923289864595
2167.75,745.111483365963
2168,746.951816751755
2168.25,750.266776848784
2168.5,754.715162034158
2168.75,759.698909227786
2169,763.955441152863
2169.25,766.117466775211
2169.5,765.649244483004
2169.75,764.267437619827
2170,764.066169599881
2170.25,766.361683127306
2170.5,769.92951742496
2170.75,773.027330716379
2171,774.400818447015
2171.25,774.679330653093
2171.5,774.946604146605
2171.75,776.07315072448
2172,777.844090411291
2172.25,779.700048145784
2172.5,781.16474802096
2172.75,782.339117802342
2173,783.568637650146
2173.25,785.155218006842
2173.5,786.941910158749
2173.75,788.50107706695
2174,789.415298515247
2174.25,789.504697523262
2174.5,788.790345366983
2174.75,787.307362124985
2175,785.377008873419
2175.25,783.684426142804
2175.5,782.933659787317
2175.75,783.299822363126
2176,783.947895330429
2176.25,783.929949147672
2176.5,782.881353421994
2176.75,782.052873882522
2177,782.972610292155
2177.25,786.530476741351
2177.5,790.971707994096
2177.75,793.856563066414
2178,793.289003811498
2178.25,790.737726962212
2178.5,788.957027926202
2178.75,790.42434545066
2179,794.524165066452
2179.25,798.716920328419
2179.5,800.538868548691
2179.75,799.68283423105
2180,797.865614817502
2180.25,796.866720759638
2180.5,797.468422337131
2180.75,798.869719406957
2181,800.129534818413
2181.25,800.653322736429
2181.5,800.772906888823
2181.75,800.973258305822
2182,801.636282459123
2182.25,802.64478837357
2182.5,803.730715579026
2182.75,804.657973583672
2183,805.485914966094
2183.25,806.43349020425
2183.5,807.697992601845
2183.75,808.981968532698
2184,809.514077630104
2184.25,808.511756416137
2184.5,805.857438609346
2184.75,802.596204888881
2185,799.890290332733
2185.25,798.581264502667
2185.5,798.414738035942
2185.75,798.90238022907
2186,799.575468567582
2186.25,800.087999487462
2186.5,800.141347317308
2186.75,799.487157561952
2187,798.481987614947
2187.25,797.883211282489
2187.5,798.43438095173
2187.75,800.281831940355
2188,802.9032316579
2188.25,805.741459622699
2188.5,808.297330884523
2188.75,810.179727327185
2189,811.009365330264
2189.25,810.634845617954
2189.5,809.70194944539
2189.75,809.030672738739
2190,809.319238321959
2190.25,810.368254570067
2190.5,811.576939932512
2190.75,812.371254317014
2191,812.671114621329
2191.25,812.813421451372
2191.5,813.146707530451
2191.75,813.921269250416
2192,815.228286887062
2192.25,817.144394476402
2192.5,819.632932797297
2192.75,822.283974066396
2193,824.61082765031
2193.25,826.19492835177
2193.5,827.126119326344
2193.75,827.724052934052
2194,828.303914859216
2194.25,829.050433024564
2194.5,830.016857680002
2194.75,831.249885001086
2195,832.600389963486
2195.25,833.463589447942
2195.5,833.170031279286
2195.75,831.262502991703
2196,828.577623827872
2196.25,826.439513352698
2196.5,826.118624590727
2196.75,827.786919816352
2197,830.598283192501
2197.25,833.66900222454
2197.5,836.248745048066
2197.75,837.864596880289
2198,838.078239572401
2198.25,836.605472710536
2198.5,834.013150173067
2198.75,831.160282175674
2199,828.884599300083
2199.25,827.612581113235
2199.5,827.401435434254
2199.75,828.293309865582
2200,830.011415441154
2200.25,831.608426053274
2200.5,832.052326884884
2200.75,830.601154969111
2201,828.037786708456
2201.25,825.644424653762
2201.5,824.645138881114
2201.75,825.32196958765
2202,827.195407934657
2202.25,829.764949737166
2202.5,832.603856548615
2202.75,835.4168787401
2203,837.922350696636
2203.25,839.829848916695
2203.5,840.810089922401
2203.75,840.523015797957
2204,838.687079751151
2204.25,835.851113904499
2204.5,833.180856281356
2204.75,831.851493846154
2205,832.43254095548
2205.25,834.32855449433
2205.5,836.811815556585
2205.75,839.179945302344
2206,840.857373468734
2206.25,841.308114823286
2206.5,840.059315991271
2206.75,837.67167464498
2207,835.54970684943
2207.25,835.118822796965
2207.5,837.12524313112
2207.75,840.856564205643
2208,845.411525006877
2208.25,849.857603434158
2208.5,853.078986398233
2208.75,853.893265664065
2209,851.205712419964
2209.25,846.041160738955
2209.5,841.601546376208
2209.75,841.187518985887
2210,846.58423617108
2210.25,854.769786373559
2210.5,861.771354061436
2210.75,864.030255880482
2211,862.062866735092
2211.25,858.70148166303
2211.5,856.791742552278
2211.75,857.739644032051
2212,860.244544856685
2212.25,862.706949063025
2212.5,863.791867665274
2212.75,863.919643829782
2213,864.225549040369
2213.25,865.821150345834
2213.5,868.699333972767
2213.75,871.328928327422
2214,872.069453494453
2214.25,869.750423590934
2214.5,865.579077639208
2214.75,861.512811081619
2215,859.46597209555
2215.25,859.963289758818
2215.5,861.878518586212
2215.75,863.989322783464
2216,865.296599464858
2216.25,865.710227152925
2216.5,865.37141402363
2216.75,864.423359204237
2217,863.047793591885
2217.25,861.461332547856
2217.5,859.881856732148
2217.75,858.543290006868
2218,857.730388833199
2218.25,857.737953753303
2218.5,858.813174157854
2218.75,860.58838590688
2219,862.268013125217
2219.25,863.049789204418
2219.5,862.520778857966
2219.75,861.121684907557
2220,859.406421749431
2220.25,857.914013423687
2220.5,857.055711810691
2220.75,857.177747065907
2221,858.616738189531
2221.25,861.099489003041
2221.5,863.368803926164
2221.75,864.078140954872
2222,862.277426323044
2222.25,859.252435952554
2222.5,857.071992181082
2222.75,857.752072188637
2223,861.552800445901
2223.25,866.628291176305
2223.5,871.008219448752
2223.75,873.15709501705
2224,873.266118361149
2224.25,871.955023598633
2224.5,869.843850858394
2224.75,867.559103594786
2225,865.733444449957
2225.25,864.999770841811
2225.5,865.711985438339
2225.75,867.21764956166
2226,868.637503293691
2226.25,869.133749061747
2226.5,868.556093144527
2226.75,867.320051272272
2227,865.857996774131
2227.25,864.635478856967
2227.5,864.217029410153
2227.75,865.185559081721
2228,868.036698560624
2228.25,872.123785821756
2228.5,875.99766649315
2228.75,878.194780767718
2229,877.967781763656
2229.25,876.305075291636
2229.5,874.452880796263
2229.75,873.556460275474
2230,873.552960732152
2230.25,873.583406725611
2230.5,872.776114208075
2230.75,870.739202518176
2231,868.270079231563
2231.25,866.347251882145
2231.5,865.875174834252
2231.75,866.910244085347
2232,868.967742970332
2232.25,871.554484697429
2232.5,874.232102396987
2232.75,876.682217084909
2233,878.602330957679
2233.25,879.692051554438
2233.5,879.671067210771
2233.75,878.270200726453
2234,875.223046592742
2234.25,870.778984588993
2234.5,866.316062604364
2234.75,863.361674760396
2235,863.267799544212
2235.25,865.594209137649
2235.5,868.851826193192
2235.75,871.543807324882
2236,872.828084408259
2236.25,873.130716783201
2236.5,873.02297021667
2236.75,873.01671722091
2237,873.135288933518
2237.25,873.162020278963
2237.5,872.883331444878
2237.75,872.539509095546
2238,873.193865663377
2238.25,875.996596844048
2238.5,881.790196364712
2238.75,889.015788637692
2239,894.986301817262
2239.25,897.027340003058
2239.5,894.299123306255
2239.75,889.287942880712
2240,884.831108429676
2240.25,883.520258482858
2240.5,885.29412694199
2240.75,888.471613908586
2241,891.349548721804
2241.25,892.700739354144
2241.5,892.51719009393
2241.75,890.983359098582
2242,888.309837090575
2242.25,885.118581826667
2242.5,882.358962034066
2242.75,880.989406992619
2243,881.647900128281
2243.25,883.791543842961
2243.5,886.605488892807
2243.75,889.283259693548
2244,891.207937967207
2244.25,891.950490789957
2244.5,891.089924498885
2244.75,888.394306270253
2245,884.506722783546
2245.25,880.323230277918
2245.5,876.730140944862
2245.75,874.204317699224
2246,872.672902087062
2246.25,872.024446575495
2246.5,872.095296957857
2246.75,872.417421403231
2247,872.412783324737
2247.25,871.524209957
2247.5,870.074817209947
2247.75,869.569324268647
2248,871.595368915542
2248.25,877.190662629594
2248.5,884.41491501235
2248.75,890.324447729533
2249,892.039240778198
2249.25,889.019579807229
2249.5,883.674209850373
2249.75,878.599967529256
2250,876.056527137286
2250.25,876.133748911734
2250.5,878.062088850129
2250.75,881.071569902305
2251,884.496069043605
2251.25,887.831126589058
2251.5,890.586270289427
2251.75,892.337564908439
2252,893.134649542115
2252.25,893.232511381539
2252.5,892.887696911252
2252.75,892.447006314802
2253,892.43357994159
2253.25,893.390966386447
2253.5,895.750532019365
2253.75,898.682096249431
2254,900.561346100979
2254.25,899.752253720578
2254.5,895.497167444253
2254.75,889.649147904522
2255,884.544078360453
2255.25,882.438024724067
2255.5,883.750793670282
2255.75,887.065676903803
2256,890.886097635617
2256.25,894.00132656884
2256.5,896.459345080544
2256.75,898.654492015599
2257,900.975634451561
2257.25,903.603512632596
2257.5,906.451354570007
2257.75,909.414793998506
2258,912.422112332324
2258.25,915.639745788002
2258.5,919.339658925546
2258.75,923.793889249215
2259,929.133543242978
2259.25,935.141744653251
2259.5,941.548852314242
2259.75,948.076984195504
2260,954.231437022608
2260.25,959.284351124932
2260.5,962.496353532347
2260.75,963.193010797945
2261,961.388901383764
2261.25,957.513708904445
2261.5,952.002826155029
2261.75,945.425473421563
2262,939.221437453874
2262.25,935.178713413191
2262.5,935.086182451932
2262.75,939.95046384466
2263,947.971530281737
2263.25,956.720141010921
2263.5,963.77723888349
2263.75,967.535492307427
2264,967.77714795964
2264.25,964.420783483312
2264.5,957.419985525736
2264.75,947.768268132475
2265,937.649069078976
2265.25,929.311005240789
2265.5,924.839608622298
2265.75,923.922539648574
2266,924.423000970902
2266.25,924.158485058406
2266.5,921.335934310135
2266.75,916.291501491362
2267,910.085330078619
2267.25,903.776815792279
2267.5,898.141603794903
2267.75,893.323184512104
2268,889.379657674258
2268.25,886.340754010009
2268.5,883.777247562347
2268.75,880.888101644818
2269,876.861589736497
2269.25,871.227928085066
2269.5,864.772703939727
2269.75,858.569521692777
2270,853.649844819677
2270.25,850.163795007175
2270.5,847.426384309261
2270.75,844.719922271261
2271,841.593805422371
2271.25,838.398765134266
2271.5,835.635189040723
2271.75,833.733385826964
2272,832.440987794946
2272.25,831.120711302816
2272.5,829.142266876179
2272.75,826.382419368996
2273,823.4182165814
2273.25,820.8779186929
2273.5,819.25528038276
2273.75,818.590086358285
2274,818.826444311334
2274.25,819.856509452151
2274.5,821.1531510362
2274.75,821.986541767186
2275,821.64927699042
2275.25,819.988061780833
2275.5,817.408221796264
2275.75,814.339876130009
2276,811.241532139243
2276.25,808.633471983886
2276.5,807.044099343347
2276.75,806.811204881052
2277,807.383790978634
2277.25,807.952014556493
2277.5,807.782262160962
2277.75,806.872981673226
2278,805.630618279934
2278.25,804.455585558979
2278.5,803.495125580788
2278.75,802.635970903539
2279,801.753038593599
2279.25,800.73156324564
2279.5,799.475797886355
2279.75,797.892060355992
2280,795.968298965851
2280.25,793.964468550601
2280.5,792.197109966509
2280.75,790.920645353994
2281,790.020153862906
2281.25,789.244751747873
2281.5,788.365112138725
2281.75,787.375699243469
2282,786.402574918759
2282.25,785.56822728183
2282.5,784.89648664977
2282.75,784.323513836207
2283,783.782573013498
2283.25,783.212879040179
2283.5,782.561351016896
2283.75,781.775230297606
2284,780.781904869801
2284.25,779.471788077111
2284.5,777.731524982819
2284.75,775.598238068624
2285,773.510210985216
2285.25,771.971848804106
2285.5,771.305402414061
2285.75,771.157902151431
2286,771.019957276008
2286.25,770.495994348771
2286.5,769.739955848772
2286.75,769.071407711737
2287,768.739513381153
2287.25,768.553750078005
2287.5,768.154252089994
2287.75,767.264631660469
2288,766.274894499836
2288.25,765.893076998117
2288.5,766.715125289202
2288.75,768.182040919435
2289,769.063579602235
2289.25,768.234179143342
2289.5,766.008819288732
2289.75,763.696069175671
2290,762.560885656611
2290.25,762.778760747921
2290.5,763.607299071698
2290.75,764.280199252352
2291,764.134226489388
2291.25,762.605607980231
2291.5,759.167997999493
2291.75,754.239785185672
2292,749.294420219408
2292.25,745.829813932595
2292.5,744.228662847537
2292.75,743.476265929078
2293,742.492419514876
2293.25,740.965310910929
2293.5,739.516020650608
2293.75,738.793429516971
2294,738.626528093923
2294.25,737.9193081734
2294.5,735.582332456506
2294.75,731.829211834535
2295,728.18401831845
2295.25,726.158048375283
2295.5,725.96888747784
2295.75,726.698306570802
2296,727.424129048162
2296.25,727.665354773391
2296.5,727.245016795399
2296.75,726.063296083423
2297,724.673839329477
2297.25,723.981893693869
2297.5,724.714923216405
2297.75,726.367660776774
2298,727.92132337462
2298.25,728.586562238267
2298.5,728.715262363214
2298.75,729.010924867351
2299,729.866565653893
2299.25,730.498270264866
2299.5,729.843907575618
2299.75,727.489979648195
2300,724.938680937508
2300.25,724.040515173488
2300.5,725.664331141249
2300.75,728.375652438497
2301,730.422742819123
2301.25,731.157773559794
2301.5,731.875582123256
2301.75,734.043466380976
2302,737.930502720119
2302.25,742.103858674731
2302.5,745.032205075815
2302.75,746.181909185047
2303,746.204093941559
2303.25,745.804776323181
2303.5,745.294616091341
2303.75,744.543393638325
2304,743.410712819438
2304.25,742.093829881011
2304.5,741.1510899834
2304.75,741.135216874901
2305,742.059137721554
2305.25,743.393606631598
2305.5,744.606125339464
2305.75,745.567678384053
2306,746.51813740326
2306.25,747.709784954898
2306.5,749.374332933874
2306.75,751.725831477393
2307,754.936808628254
2307.25,758.489117362841
2307.5,761.289998921386
2307.75,762.307542640822
2308,761.898964178936
2308.25,761.613944602688
2308.5,762.965109618945
2308.75,765.80528314828
2309,768.372316565874
2309.25,768.902378326575
2309.5,767.429971789989
2309.75,765.972665439594
2310,766.613567124131
2310.25,769.891537179468
2310.5,774.26715293397
2310.75,778.068756314684
2311,780.544672311942
2311.25,782.410714316556
2311.5,784.511354035411
2311.75,787.237881711053
2312,790.011018745632
2312.25,792.126346927142
2312.5,793.196526960306
2312.75,793.837292519918
2313,794.862254329183
2313.25,796.923717595823
2313.5,799.82954930366
2313.75,803.112218417774
2314,806.306214404332
2314.25,808.966200135747
2314.5,810.657787295653
2314.75,810.982210503628
2315,810.303467589549
2315.25,809.719440215045
2315.5,810.352803625385
2315.75,812.83541142489
2316,816.898678122267
2316.25,822.177566351621
2316.5,828.110907206231
2316.75,833.422331022546
2317,836.672492402028
2317.25,836.673816266711
2317.5,834.482663828922
2317.75,832.333467610938
2318,832.432056360423
2318.25,835.420409019077
2318.5,839.881830463958
2318.75,844.259346839169
2319,847.295565342184
2319.25,848.714133600572
2319.5,848.439201271326
2319.75,846.534973627718
2320,844.557832451028
2320.25,844.965991461904
2320.5,850.198106615806
2320.75,860.192364091641
2321,870.637857731065
2321.25,876.810754794467
2321.5,875.13546194861
2321.75,868.113751870559
2322,860.250514242622
2322.25,855.985912386977
2322.5,857.183095582679
2322.75,862.350128140307
2323,869.770097157195
2323.25,877.776347968409
2323.5,884.921412323452
2323.75,889.817559401976
2324,891.141191734652
2324.25,889.10625952947
2324.5,885.499812193279
2324.75,882.18014264181
2325,880.636263673868
2325.25,880.51874381691
2325.5,880.907146189596
2325.75,880.899782306737
2326,880.333685433699
2326.25,880.007226932615
2326.5,880.783198552421
2326.75,883.298461849581
2327,886.872006402931
2327.25,890.346312284103
2327.5,892.582782905827
2327.75,893.477890876134
2328,894.457035775621
2328.25,897.068700388898
2328.5,902.545761066459
2328.75,909.66050071141
2329,916.030172475417
2329.25,919.270606514284
2329.5,918.239375712369
2329.75,914.631535984816
2330,910.536674971903
2330.25,907.988801123904
2330.5,907.832244514497
2330.75,909.768913593809
2331,913.4545938405
2331.25,918.459153804685
2331.5,923.857760843559
2331.75,928.548883681023
2332,931.435673490542
2332.25,932.204908647179
2332.5,932.180250269892
2332.75,932.890531336347
2333,935.801664707424
2333.25,940.930144030802
2333.5,946.841789005395
2333.75,952.039248266118
2334,955.194565221677
2334.25,956.388583168951
2334.5,956.400645237758
2334.75,956.01511138228
2335,955.919909376259
2335.25,956.357085441159
2335.5,957.439903532207
2335.75,959.281370338406
2336,961.827314879561
2336.25,964.565428866836
2336.5,966.905626501635
2336.75,968.264245658173
2337,968.589037773007
2337.25,968.748589362166
2337.5,969.703252198011
2337.75,972.393288858921
2338,977.062525265539
2338.25,983.096165049231
2338.5,989.826439209796
2338.75,996.583592488498
2339,1002.65906213228
2339.25,1007.30895251471
2339.5,1009.78807859235
2339.75,1009.42044885068
2340,1006.72884195162
2340.25,1003.25030414527
2340.5,1000.55385128641
2340.75,1000.14649088324
2341,1002.25799076566
2341.25,1005.91852807838
2341.5,1010.11182057211
2341.75,1013.86688972899
2342,1017.14571693173
2342.25,1020.78641528186
2342.5,1025.66102190216
2342.75,1032.60492400827
2343,1041.5080138432
2343.25,1051.25394496208
2343.5,1060.67755750262
2343.75,1068.62911609529
2344,1074.72785866478
2344.25,1079.70272352904
2344.5,1084.3691059481
2344.75,1089.5422036568
2345,1095.74604177621
2345.25,1102.62987412518
2345.5,1109.67935521324
2345.75,1116.38013954989
2346,1122.26003661414
2346.25,1127.22589514334
2346.5,1131.38499484527
2346.75,1134.84643565146
2347,1137.72097206577
2347.25,1140.2874560112
2347.5,1143.1352257516
2347.75,1146.88715849839
2348,1152.16613146298
2348.25,1159.46689159743
2348.5,1168.05159416615
2348.75,1176.49429244452
2349,1183.36154818108
2349.25,1187.22047549221
2349.5,1187.28900644367
2349.75,1184.69388606507
2350,1180.91000462383
2350.25,1177.41225238731
2350.5,1175.66121108146
2350.75,1176.38646209014
2351,1179.25234118411
2351.25,1183.83904098714
2351.5,1189.72675412301
2351.75,1196.52228451598
2352,1204.15817784122
2352.25,1212.78518722566
2352.5,1222.55808205165
2352.75,1233.63163170151
2353,1245.91889746703
2353.25,1257.96259654867
2353.5,1267.82309915416
2353.75,1273.56023920179
2354,1273.2338506098
2354.25,1265.57109272384
2354.5,1252.45122859581
2354.75,1236.68331223642
2355,1221.07653166291
2355.25,1208.4400748926
2355.5,1201.12685330594
2355.75,1198.6351541113
2356,1199.36154345511
2356.25,1201.70023773501
2356.5,1204.04545827173
2356.75,1205.13883238221
2357,1205.01204817636
2357.25,1203.99617778874
2357.5,1202.42229335392
2357.75,1200.62082723909
2358,1198.80071927427
2358.25,1196.90647792944
2358.5,1194.8478385309
2358.75,1192.53453640497
2359,1189.88120347722
2359.25,1186.98741453672
2359.5,1184.18990658704
2359.75,1181.84096001247
2360,1180.2928551973
2360.25,1179.85873966332
2360.5,1180.35164955468
2360.75,1181.23912673316
2361,1181.98183580571
2361.25,1182.04044137928
2361.5,1181.03310847319
2361.75,1179.3771072
2362,1177.74252883167
2362.25,1176.79956392706
2362.5,1177.21687285811
2362.75,1179.30822743679
2363,1182.58007231223
2363.25,1186.42716833512
2363.5,1190.24427635614
2363.75,1193.4350815733
2364,1195.62359344527
2364.25,1196.6628546475
2364.5,1196.41657481455
2364.75,1194.74846358102
2365,1191.56420088042
2365.25,1187.17767043994
2365.5,1182.13262569163
2365.75,1176.97539328108
2366,1172.25229985388
2366.25,1168.47315450729
2366.5,1165.97348428748
2366.75,1165.03688149192
2367,1165.94692954038
2367.25,1168.98064700088
2367.5,1173.64617741934
2367.75,1177.97190248691
2368,1179.81805883958
2368.25,1177.04488311339
2368.5,1177.4082819863
2368.75,1177.77168085921
2369,1178.13507973212
2369.25,1178.49847860502
2369.5,1178.86187747793
2369.75,1179.22527635084
2370,1179.58867522375
2370.25,1179.95207409665
2370.5,1180.31547296956
2370.75,1180.67887184247
2371,1181.04227071538
2371.25,1181.40566958828
2371.5,1181.76906846119
2371.75,1182.1324673341
2372,1182.49586620701
2372.25,1182.85926507991
2372.5,1183.22266395282
2372.75,1183.58606282573
2373,1183.94946169864
2373.25,1184.31286057155
2373.5,1184.67625944445
2373.75,1185.03965831736
2374,1185.40305719027
2374.25,1185.76645606318
2374.5,1186.12985493608
2374.75,1186.49325380899
2375,1186.8566526819
2375.25,1187.22005155481
2375.5,1187.58345042771
2375.75,1187.94684930062
2376,1188.31024817353
2376.25,1188.67364704644
2376.5,1189.03704591934
2376.75,1189.40044479225
2377,1189.76384366516
2377.25,1190.12724253807
2377.5,1190.49064141097
2377.75,1190.85404028388
2378,1191.21743915679
2378.25,1191.5808380297
2378.5,1191.9442369026
2378.75,1192.30763577551
2379,1192.67103464842
2379.25,1193.03443352133
2379.5,1193.39783239423
2379.75,1193.76123126714
2380,1194.12463014005
2380.25,1194.48802901296
2380.5,1195.29000671105
2380.75,1200.65623731533
2381,1208.07958388096
2381.25,1215.05290946309
2381.5,1219.10906816091
2381.75,1219.39221453404
2382,1217.17301423665
2382.25,1213.86765885166
2382.5,1210.89233996194
2382.75,1209.61098655329
2383,1210.30136144749
2383.25,1212.2157832553
2383.5,1214.56646498171
2383.75,1216.56561963176
2384,1217.47765357446
2384.25,1217.1409409926
2384.5,1215.74916445828
2384.75,1213.50128976235
2385,1210.59628269566
2385.25,1207.24214536689
2385.5,1203.71070791516
2385.75,1200.30129129596
2386,1197.31332392101
2386.25,1195.04623420203
2386.5,1193.71746168089
2386.75,1193.19011290328
2387,1193.23159490345
2387.25,1193.60931319703
2387.5,1194.09093606457
2387.75,1194.50411834712
2388,1194.81251857511
2388.25,1194.99853786886
2388.5,1195.04457734868
2388.75,1194.93627756437
2389,1194.77256980661
2389.25,1194.79263150822
2389.5,1195.24434771973
2389.75,1196.37560349165
2390,1198.40509352984
2390.25,1201.17484278901
2390.5,1204.26487560442
2390.75,1207.24991145449
2391,1209.70466981765
2391.25,1211.25690927775
2391.5,1211.86859330711
2391.75,1211.63151848123
2392,1210.63776976868
2392.25,1208.97943226552
2392.5,1206.86189982793
2392.75,1204.92973526156
2393,1203.93388555838
2393.25,1204.62529771034
2393.5,1207.75287199052
2393.75,1213.45025107165
2394,1220.37633926523
2394.25,1226.97366603876
2394.5,1231.68476085975
2394.75,1232.97371613519
2395,1230.48271791118
2395.25,1225.61641490166
2395.5,1219.92387021735
2395.75,1214.95414696894
2396,1212.22647274598
2396.25,1212.19485466274
2396.5,1213.98192753509
2396.75,1216.62642890136
2397,1219.16709629988
2397.25,1220.68782081787
2397.5,1221.05887439613
2397.75,1220.81805460017
2398,1220.52434123239
2398.25,1220.7367140952
2398.5,1221.9495531758
2398.75,1223.94859280313
2399,1226.08170428517
2399.25,1227.69028240883
2399.5,1228.11572196105
2399.75,1226.84397708542
2400,1224.43330582581
2400.25,1221.92411417618
2400.5,1220.35911557185
2400.75,1220.78102344816
2401,1223.95047854814
2401.25,1229.04016561479
2401.5,1234.66754942978
2401.75,1239.44951014248
2402,1242.00292791304
2402.25,1241.35505673764
2402.5,1238.1600507892
2402.75,1233.47517287759
2403,1228.35768581273
2403.25,1223.86484530711
2403.5,1220.87095667285
2403.75,1219.5914437126
2404,1220.09345577666
2404.25,1222.44414221534
2404.5,1226.71009485991
2404.75,1232.6539364472
2405,1239.23199167429
2405.25,1245.26839799658
2405.5,1249.58729286943
2405.75,1251.01815647975
2406,1249.14332887582
2406.25,1245.06834826107
2406.5,1240.08258845013
2406.75,1235.47542325762
2407,1232.53275873939
2407.25,1232.03076122148
2407.5,1233.70298736324
2407.75,1237.1555187744
2408,1241.99443706475
2408.25,1247.82481238107
2408.5,1254.172995176
2408.75,1260.43163844465
2409,1265.98041156389
2409.25,1270.19898391062
2409.5,1272.4724688502
2409.75,1272.55931388703
2410,1270.82521174187
2410.25,1267.69158025997
2410.5,1263.57983728654
2410.75,1258.91176410622
2411,1254.16484276436
2411.25,1249.93169601932
2411.5,1246.81920188194
2411.75,1245.43423836302
2412,1246.38163493082
2412.25,1249.75368367622
2412.5,1254.45809032072
2412.75,1259.2357173525
2413,1262.8274272597
2413.25,1263.97767069664
2413.5,1262.15862001184
2413.75,1258.45019086085
2414,1254.14739405473
2414.25,1250.54524040457
2414.5,1248.93746865687
2414.75,1250.02473658294
2415,1252.97238111404
2415.25,1256.70057735225
2415.5,1260.12950039961
2415.75,1262.18045082615
2416,1262.26327702029
2416.25,1261.03791259741
2416.5,1259.36139652289
2416.75,1258.09076776209
2417,1258.08281669585
2417.25,1259.89557711992
2417.5,1263.20890616107
2417.75,1267.54212078444
2418,1272.41453795515
2418.25,1277.34548037073
2418.5,1281.87334994662
2418.75,1285.59815288192
2419,1288.13230577762
2419.25,1289.08822523474
2419.5,1288.07832785431
2419.75,1284.88280399529
2420,1280.02995208509
2420.25,1274.2565101901
2420.5,1268.29922525483
2420.75,1262.89484422374
2421,1258.71090082317
2421.25,1255.92246599666
2421.5,1254.49113338896
2421.75,1254.37763556181
2422,1255.54270507693
2422.25,1257.91136477791
2422.5,1261.11187128396
2422.75,1264.62543207309
2423,1267.93220097547
2423.25,1270.51233182128
2423.5,1271.91255168072
2423.75,1272.27877041031
2424,1272.07398959424
2424.25,1271.7640984506
2424.5,1271.81498619747
2424.75,1272.64418672898
2425,1274.08489824528
2425.25,1275.58250927474
2425.5,1276.57544092874
2425.75,1276.5021143187
2426,1274.84744413094
2426.25,1271.88808479878
2426.5,1268.5633710273
2426.75,1265.83306273417
2427,1264.65691983709
2427.25,1265.95255002485
2427.5,1269.48321732362
2427.75,1273.74473263076
2428,1277.16807073754
2428.25,1278.18420643519
2428.5,1275.2588447916
2428.75,1268.17460644301
2429,1258.40585574612
2429.25,1247.53813030285
2429.5,1237.15696771517
2429.75,1228.8387559974
2430,1223.43032636245
2430.25,1220.52945302397
2430.5,1219.61134774888
2430.75,1220.1512223041
2431,1221.62840537956
2431.25,1223.71186166173
2431.5,1226.33553234887
2431.75,1229.45307428448
2432,1233.01814431207
2432.25,1236.95801421462
2432.5,1240.55877977374
2432.75,1242.4456940997
2433,1241.21369078277
2433.25,1235.45770341321
2433.5,1223.95675624214
2433.75,1208.89606953452
2434,1195.46216193732
2434.25,1188.94425646366
2434.5,1194.63157612659
2434.75,1217.13446163101
2435,1251.83041977839
2435.25,1287.43486122932
2435.5,1312.51568722231
2435.75,1315.64079899566
2436,1287.733297266
2436.25,1236.01609826265
2436.5,1174.60613962344
2436.75,1117.64497097031
2437,1079.27414192556
2437.25,1072.77330923658
2437.5,1096.77775976274
2437.75,1137.68282809203
2438,1181.50769365528
2438.25,1214.34368566935
2438.5,1228.84553833117
2438.75,1229.38974213026
2439,1221.56668014921
2439.25,1210.96673547067
2439.5,1203.07731325878
2439.75,1200.3959343853
2440,1202.03790305061
2440.25,1206.93670493752
2440.5,1214.02582572879
2440.75,1222.23033749599
2441,1230.36274330682
2441.25,1237.15523609676
2441.5,1241.33827845805
2441.75,1241.6423329829
2442,1237.26807202786
2442.25,1231.363466425
2442.5,1229.04895166846
2442.75,1235.45955715656
2443,1255.73031228763
2443.25,1292.97235183662
2443.5,1335.19122188062
2443.75,1363.56385156571
2444,1359.23369144365
2444.25,1303.344192066
2444.5,1183.13205555486
2444.75,1039.04469522396
2445,939.002526788845
2445.25,951.15526773413
2445.5,951.887358002179
2445.75,952.619448270229
2446,953.351538538278
2446.25,954.083628806327
2446.5,954.815719074377
2446.75,955.547809342426
2447,956.279899610476
2447.25,957.011989878525
2447.5,957.744080146575
2447.75,958.476170414624
2448,959.208260682674
2448.25,959.940350950723
2448.5,960.672441218772
2448.75,961.404531486822
2449,962.136621754871
2449.25,962.868712022921
2449.5,963.60080229097
2449.75,964.33289255902
2450,965.064982827069
2450.25,965.797073095119
2450.5,966.529163363168
2450.75,967.261253631217
2451,967.993343899267
2451.25,968.725434167316
2451.5,969.457524435366
2451.75,970.189614703415
2452,970.921704971465
2452.25,971.653795239514
2452.5,972.385885507564
2452.75,973.117975775613
2453,973.850066043662
2453.25,974.582156311712
2453.5,975.314246579761
2453.75,976.046336847811
2454,976.77842711586
2454.25,977.51051738391
2454.5,978.242607651959
2454.75,978.974697920009
2455,979.706788188058
2455.25,980.438878456107
2455.5,981.170968724157
2455.75,981.903058992206
2456,982.635149260256
2456.25,983.367239528305
2456.5,984.099329796355
2456.75,984.831420064404
2457,985.563510332454
2457.25,986.295600600503
2457.5,987.027690868553
2457.75,987.759781136602
2458,988.491871404651
2458.25,989.223961672701
2458.5,989.95605194075
2458.75,990.6881422088
2459,991.420232476849
2459.25,992.152322744899
2459.5,992.884413012948
2459.75,993.616503280997
2460,994.348593549047
2460.25,995.080683817096
2460.5,995.812774085146
2460.75,996.544864353195
2461,997.276954621245
2461.25,998.009044889294
2461.5,998.741135157344
2461.75,999.473225425393
2462,1000.20531569344
2462.25,1000.93740596149
2462.5,1001.66949622954
2462.75,1002.40158649759
2463,1003.13367676564
2463.25,1003.86576703369
2463.5,1004.59785730174
2463.75,1005.32994756979
2464,1006.06203783784
2464.25,1006.79412810589
2464.5,1007.52621837394
2464.75,1008.25830864199
2465,1008.99039891004
2465.25,1009.72248917809
2465.5,1010.45457944613
2465.75,1011.18666971418
2466,1011.91875998223
2466.25,1012.65085025028
2466.5,1013.38294051833
2466.75,1014.11503078638
2467,1014.84712105443
2467.25,1015.57921132248
2467.5,1016.31130159053
2467.75,1017.04339185858
2468,1017.77548212663
2468.25,1018.50757239468
2468.5,1019.23966266273
2468.75,1019.97175293078
2469,1020.70384319883
2469.25,1021.43593346688
2469.5,1022.16802373493
2469.75,1022.90011400298
2470,1023.63220427102
2470.25,1024.36429453907
2470.5,1025.09638480712
2470.75,1025.82847507517
2471,1026.56056534322
2471.25,1027.29265561127
2471.5,1028.02474587932
2471.75,1028.75683614737
2472,1029.48892641542
2472.25,1030.22101668347
2472.5,1030.95310695152
2472.75,1031.68519721957
2473,1032.41728748762
2473.25,1033.14937775567
2473.5,1033.88146802372
2473.75,1034.61355829177
2474,1035.34564855982
2474.25,1036.07773882787
2474.5,1036.80982909591
2474.75,1037.54191936396
2475,1038.27400963201
2475.25,1039.00609990006
2475.5,1039.73819016811
2475.75,1040.47028043616
2476,1041.20237070421
2476.25,1041.93446097226
2476.5,1042.66655124031
2476.75,1043.39864150836
2477,1044.13073177641
2477.25,1044.86282204446
2477.5,1045.59491231251
2477.75,1046.32700258056
2478,1047.05909284861
2478.25,1047.79118311666
2478.5,1048.52327338471
2478.75,1049.25536365276
2479,1049.9874539208
2479.25,1050.71954418885
2479.5,1051.4516344569
2479.75,1052.18372472495
2480,1052.915814993
2480.25,1053.64790526105
2480.5,1054.3799955291
2480.75,1055.11208579715
2481,1055.8441760652
2481.25,1056.57626633325
2481.5,1057.3083566013
2481.75,1058.04044686935
2482,1058.7725371374
2482.25,1059.50462740545
2482.5,1060.2367176735
2482.75,1060.96880794155
2483,1061.7008982096
2483.25,1062.43298847765
2483.5,1063.16507874569
2483.75,1063.89716901374
2484,1064.62925928179
2484.25,1065.36134954984
2484.5,1066.09343981789
2484.75,1066.82553008594
2485,1067.55762035399
2485.25,1068.28971062204
2485.5,1069.02180089009
2485.75,1069.75389115814
2486,1070.48598142619
2486.25,1071.21807169424
2486.5,1071.95016196229
2486.75,1072.68225223034
2487,1073.41434249839
2487.25,1074.14643276644
2487.5,1074.87852303449
2487.75,1075.61061330254
2488,1076.34270357058
2488.25,1077.07479383863
2488.5,1077.80688410668
2488.75,1078.53897437473
2489,1079.27106464278
2489.25,1080.00315491083
2489.5,1080.73524517888
2489.75,1081.46733544693
2490,1082.19942571498
2490.25,1082.93151598303
2490.5,1083.66360625108
2490.75,1084.39569651913
2491,1085.12778678718
2491.25,1085.85987705523
2491.5,1086.59196732328
2491.75,1087.32405759133
2492,1088.05614785938
2492.25,1088.78823812743
2492.5,1089.52032839548
2492.75,1090.25241866352
2493,1090.98450893157
2493.25,1091.71659919962
2493.5,1092.44868946767
2493.75,1093.18077973572
2494,1093.91287000377
2494.25,1094.64496027182
2494.5,1095.37705053987
2494.75,1096.10914080792
2495,1096.84123107597
2495.25,1097.57332134402
2495.5,1098.30541161207
2495.75,1099.03750188012
2496,1099.76959214817
2496.25,1100.50168241622
2496.5,1101.23377268427
2496.75,1101.96586295232
2497,1102.69795322037
2497.25,1103.43004348841
2497.5,1104.16213375646
2497.75,1104.89422402451
2498,1105.62631429256
2498.25,1106.35840456061
2498.5,1107.09049482866
2498.75,1107.82258509671
2499,1108.55467536476
2499.25,1109.28676563281
2499.5,1110.01885590086
2499.75,1110.75094616891
2500,1111.48303643696
2500.25,1112.21512670501
2500.5,1112.94721697306
2500.75,1113.67930724111
2501,1114.41139750916
2501.25,1115.14348777721
2501.5,1115.87557804526
2501.75,1116.6076683133
2502,1117.33975858135
2502.25,1118.0718488494
2502.5,1118.80393911745
2502.75,1119.5360293855
2503,1120.26811965355
2503.25,1121.0002099216
2503.5,1121.73230018965
2503.75,1122.4643904577
2504,1123.19648072575
2504.25,1123.9285709938
2504.5,1124.66066126185
2504.75,1125.3927515299
2505,1126.12484179795
2505.25,1126.856932066
2505.5,1127.58902233405
2505.75,1128.3211126021
2506,1129.05320287015
2506.25,1129.78529313819
2506.5,1130.51738340624
2506.75,1131.24947367429
2507,1131.98156394234
2507.25,1132.71365421039
2507.5,1133.44574447844
2507.75,1134.17783474649
2508,1134.90992501454
2508.25,1135.64201528259
2508.5,1136.37410555064
2508.75,1137.10619581869
2509,1137.83828608674
2509.25,1138.57037635479
2509.5,1139.30246662284
2509.75,1140.03455689089
2510,1140.76664715894
2510.25,1141.49873742699
2510.5,1142.23082769504
2510.75,1142.96291796308
2511,1143.69500823113
