1551,40.6311121198366
1551.25,40.7260644575579
1551.5,40.8210167952792
1551.75,40.9159691330005
1552,41.0109214707217
1552.25,41.105873808443
1552.5,41.2008261461643
1552.75,41.2957784838857
1553,41.3907308216069
1553.25,41.4856831593282
1553.5,41.5806354970495
1553.75,41.6755878347708
1554,41.7705401724921
1554.25,41.8654925102134
1554.5,41.9604448479346
1554.75,42.0553971856559
1555,42.1503495233772
1555.25,42.2453018610985
1555.5,42.2088983921447
1555.75,41.994006259407
1556,41.7791141266693
1556.25,41.5642219939317
1556.5,41.349329861194
1556.75,41.1344377284563
1557,40.9195455957188
1557.25,40.7046534629811
1557.5,40.4897613302434
1557.75,40.2748691975059
1558,40.0599770647681
1558.25,39.8450849320304
1558.5,39.6301927992927
1558.75,39.4153006665552
1559,39.2004085338175
1559.25,38.9855164010798
1559.5,38.7706242683422
1559.75,38.5557321356045
1560,38.3408400028668
1560.25,38.1259478701293
1560.5,38.0848073201615
1560.75,38.2897044699812
1561,38.4946016198009
1561.25,38.6994987696204
1561.5,38.90439591944
1561.75,39.1092930692597
1562,39.3141902190792
1562.25,39.5190873688989
1562.5,39.7239845187186
1562.75,39.9288816685381
1563,40.1337788183578
1563.25,40.3386759681774
1563.5,40.5435731179969
1563.75,40.7484702678166
1564,40.9533674176363
1564.25,41.158264567456
1564.5,41.3631617172755
1564.75,41.5680588670952
1565,41.7729560169148
1565.25,41.9778531667343
1565.5,42.0677071935399
1565.75,41.9877473301956
1566,41.9077874668514
1566.25,41.8278276035072
1566.5,41.7478677401629
1566.75,41.6679078768186
1567,41.5879480134745
1567.25,41.5079881501302
1567.5,41.4280282867859
1567.75,41.3480684234417
1568,41.2681085600975
1568.25,41.1881486967532
1568.5,41.108188833409
1568.75,41.0282289700647
1569,40.9482691067205
1569.25,40.8683092433763
1569.5,40.788349380032
1569.75,40.7083895166877
1570,40.6284296533435
1570.25,40.5484697899993
1570.5,40.4606374083188
1570.75,40.3606875791385
1571,40.2607377499582
1571.25,40.1607879207779
1571.5,40.0608380915975
1571.75,39.9608882624173
1572,39.860938433237
1572.25,39.7609886040566
1572.5,39.6610387748763
1572.75,39.5610889456961
1573,39.4611391165157
1573.25,39.3611892873354
1573.5,39.2612394581552
1573.75,39.1612896289748
1574,39.0613397997945
1574.25,38.9613899706143
1574.5,38.8614401414339
1574.75,38.7614903122536
1575,38.6615404830734
1575.25,38.561590653893
1575.5,38.4712306185345
1575.75,38.3962682466493
1576,38.3213058747641
1576.25,38.2463435028788
1576.5,38.1713811309936
1576.75,38.0964187591084
1577,38.0214563872232
1577.25,37.9464940153379
1577.5,37.8715316434527
1577.75,37.7965692715675
1578,37.7216068996822
1578.25,37.646644527797
1578.5,37.5716821559118
1578.75,37.4967197840266
1579,37.4217574121413
1579.25,37.3467950402561
1579.5,37.2718326683709
1579.75,37.1968702964856
1580,37.1219079246004
1580.25,37.0469455527152
1580.5,36.9794543326086
1580.75,36.9244819265595
1581,36.8695095205103
1581.25,36.8145371144611
1581.5,36.7595647084119
1581.75,36.7045923023628
1582,36.6496198963136
1582.25,36.5946474902645
1582.5,36.5396750842153
1582.75,36.4847026781661
1583,36.4297302721169
1583.25,36.3747578660678
1583.5,36.3197854600186
1583.75,36.2648130539694
1584,36.2098406479203
1584.25,36.1548682418711
1584.5,36.099895835822
1584.75,36.0449234297728
1585,35.9899510237236
1585.25,35.9349786176745
1585.5,35.9127233198748
1585.75,35.9477057600879
1586,35.982688200301
1586.25,36.0176706405141
1586.5,36.0526530807273
1586.75,36.0876355209403
1587,36.1226179611535
1587.25,36.1576004013666
1587.5,36.1925828415797
1587.75,36.2275652817928
1588,36.2625477220059
1588.25,36.297530162219
1588.5,36.3325126024321
1588.75,36.3674950426452
1589,36.4024774828583
1589.25,36.4374599230714
1589.5,36.4724423632845
1589.75,36.5074248034976
1590,36.5424072437107
1590.25,36.5773896839238
1590.5,36.6088372315264
1590.75,36.6338246888215
1591,36.6588121461165
1591.25,36.6837996034116
1591.5,36.7087870607067
1591.75,36.7337745180018
1592,36.7587619752969
1592.25,36.7837494325919
1592.5,36.808736889887
1592.75,36.8337243471821
1593,36.8587118044772
1593.25,36.8836992617722
1593.5,36.9086867190673
1593.75,36.9336741763624
1594,36.9586616336574
1594.25,36.9836490909525
1594.5,37.0086365482476
1594.75,37.0336240055427
1595,37.0586114628378
1595.25,37.0835989201328
1595.5,37.1171727548559
1595.75,37.167147669446
1596,37.2171225840361
1596.25,37.2670974986263
1596.5,37.3170724132164
1596.75,37.3670473278066
1597,37.4170222423968
1597.25,37.4669971569869
1597.5,37.516972071577
1597.75,37.5669469861672
1598,37.6169219007574
1598.25,37.6668968153475
1598.5,37.7168717299377
1598.75,37.7668466445278
1599,37.8168215591179
1599.25,37.8667964737081
1599.5,37.9167713882983
1599.75,37.9667463028884
1600,38.0167212174786
1600.25,38.0666961320687
1600.5,38.0333158133646
1600.75,37.8334161550039
1601,37.6335164966433
1601.25,37.4336168382826
1601.5,37.2337171799221
1601.75,37.0338175215615
1602,36.8339178632008
1602.25,36.6340182048403
1602.5,36.4341185464797
1602.75,36.234218888119
1603,36.0343192297585
1603.25,35.8344195713979
1603.5,35.6345199130372
1603.75,35.4346202546765
1604,35.234720596316
1604.25,35.0348209379554
1604.5,34.8349212795947
1604.75,34.6350216212342
1605,34.4351219628736
1605.25,34.2352223045129
1605.5,34.1501249492319
1605.75,34.3050471844614
1606,34.4599694196909
1606.25,34.6148916549203
1606.5,34.7698138901498
1606.75,34.9247361253793
1607,35.0796583606088
1607.25,35.2345805958382
1607.5,35.3895028310677
1607.75,35.5444250662972
1608,35.6993473015266
1608.25,35.8542695367561
1608.5,36.0091917719856
1608.75,36.164114007215
1609,36.3190362424445
1609.25,36.473958477674
1609.5,36.6288807129036
1609.75,36.7838029481329
1610,36.9387251833624
1610.25,37.0936474185919
1610.5,37.1608309243376
1610.75,37.0358936378622
1611,36.9109563513868
1611.25,36.7860190649115
1611.5,36.6610817784361
1611.75,36.5361444919607
1612,36.4112072054854
1612.25,36.28626991901
1612.5,36.1613326325346
1612.75,36.0363953460591
1613,35.9114580595838
1613.25,35.7865207731084
1613.5,35.661583486633
1613.75,35.5366462001577
1614,35.4117089136823
1614.25,35.2867716272069
1614.5,35.1618343407316
1614.75,35.0368970542562
1615,34.9119597677807
1615.25,34.7870224813053
1615.5,34.7348816207564
1615.75,34.8498239243138
1616,34.9647662278711
1616.25,35.0797085314284
1616.5,35.1946508349858
1616.75,35.3095931385432
1617,35.4245354421005
1617.25,35.5394777456578
1617.5,35.6544200492152
1617.75,35.7693623527726
1618,35.8843046563299
1618.25,35.9992469598873
1618.5,36.1141892634446
1618.75,36.2291315670019
1619,36.3440738705593
1619.25,36.4590161741167
1619.5,36.573958477674
1619.75,36.6889007812313
1620,36.8038430847887
1620.25,36.918785388346
1620.5,37.0058656855484
1620.75,37.0258556513845
1621,37.0458456172206
1621.25,37.0658355830566
1621.5,37.0858255488927
1621.75,37.1058155147287
1622,37.1258054805648
1622.25,37.1457954464008
1622.5,37.1657854122369
1622.75,37.185775378073
1623,37.205765343909
1623.25,37.2257553097451
1623.5,37.2457452755812
1623.75,37.2657352414172
1624,37.2857252072533
1624.25,37.3057151730893
1624.5,37.3257051389254
1624.75,37.3456951047615
1625,37.3656850705975
1625.25,37.3856750364336
1625.5,37.4481525192919
1625.75,37.6180672288985
1626,37.7879819385049
1626.25,37.9578966481114
1626.5,38.127811357718
1626.75,38.2977260673246
1627,38.467640776931
1627.25,38.6375554865375
1627.5,38.8074701961441
1627.75,38.9773849057505
1628,39.1472996153571
1628.25,39.3172143249636
1628.5,39.48712903457
1628.75,39.6570437441766
1629,39.8269584537832
1629.25,39.9968731633897
1629.5,40.1667878729961
1629.75,40.3367025826027
1630,40.5066172922093
1630.25,40.6765320018157
1630.5,40.838250232936
1630.75,40.9781799937884
1631,41.1181097546408
1631.25,41.2580395154932
1631.5,41.3979692763457
1631.75,41.537899037198
1632,41.6778287980505
1632.25,41.817758558903
1632.5,41.9576883197554
1632.75,42.0976180806078
1633,42.2375478414602
1633.25,42.3774776023127
1633.5,42.517407363165
1633.75,42.6573371240175
1634,42.79726688487
1634.25,42.9371966457223
1634.5,43.0771264065748
1634.75,43.2170561674272
1635,43.3569859282797
1635.25,43.496915689132
1635.5,43.5723659125116
1635.75,43.4674185918723
1636,43.362471271233
1636.25,43.2575239505937
1636.5,43.1525766299543
1636.75,43.0476293093151
1637,42.9426819886757
1637.25,42.8377346680364
1637.5,42.7327873473971
1637.75,42.6278400267578
1638,42.5228927061184
1638.25,42.4179453854791
1638.5,42.3129980648398
1638.75,42.2080507442005
1639,42.1031034235611
1639.25,41.9981561029219
1639.5,41.8932087822825
1639.75,41.7882614616432
1640,41.6833141410039
1640.25,41.5783668203646
1640.5,41.4987342618917
1640.75,41.4937367704327
1641,41.4887392789736
1641.25,41.4837417875146
1641.5,41.4787442960556
1641.75,41.4737468045966
1642,41.4687493131376
1642.25,41.4637518216786
1642.5,41.4587543302196
1642.75,41.4537568387605
1643,41.4487593473015
1643.25,41.4437618558425
1643.5,41.4387643643835
1643.75,41.4337668729245
1644,41.4287693814655
1644.25,41.4237718900064
1644.5,41.4187743985474
1644.75,41.4137769070884
1645,41.4087794156294
1645.25,41.4037819241704
1645.5,41.3793353560933
1645.75,41.2943780012901
1646,41.2094206464868
1646.25,41.1244632916836
1646.5,41.0395059368803
1646.75,40.9545485820771
1647,40.8695912272738
1647.25,40.7846338724705
1647.5,40.6996765176673
1647.75,40.614719162864
1648,40.5297618080607
1648.25,40.4448044532575
1648.5,40.3598470984543
1648.75,40.274889743651
1649,40.1899323888477
1649.25,40.1049750340445
1649.5,40.0200176792412
1649.75,39.9350603244379
1650,39.8501029696347
1650.25,39.7651456148314
1650.5,39.7442850658194
1650.75,39.9341897412619
1651,40.1240944167045
1651.25,40.3139990921471
1651.5,40.5039037675896
1651.75,40.6938084430322
1652,40.8837131184749
1652.25,41.0736177939175
1652.5,41.26352246936
1652.75,41.4534271448026
1653,41.6433318202452
1653.25,41.8332364956877
1653.5,42.0231411711303
1653.75,42.2130458465729
1654,42.4029505220154
1654.25,42.592855197458
1654.5,42.7827598729007
1654.75,42.9726645483433
1655,43.1625692237857
1655.25,43.3524738992284
1655.5,43.4933086461046
1655.75,43.4633236973505
1656,43.4333387485964
1656.25,43.4033537998423
1656.5,43.3733688510882
1656.75,43.3433839023341
1657,43.31339895358
1657.25,43.283414004826
1657.5,43.2534290560719
1657.75,43.2234441073178
1658,43.1934591585637
1658.25,43.1634742098096
1658.5,43.1334892610555
1658.75,43.1035043123014
1659,43.0735193635473
1659.25,43.0435344147932
1659.5,43.0135494660391
1659.75,42.983564517285
1660,42.9535795685309
1660.25,42.9235946197769
1660.5,42.8893494517046
1660.75,42.8393745371145
1661,42.7893996225243
1661.25,42.7394247079341
1661.5,42.689449793344
1661.75,42.6394748787538
1662,42.5894999641637
1662.25,42.5395250495736
1662.5,42.4895501349834
1662.75,42.4395752203932
1663,42.3896003058031
1663.25,42.3396253912129
1663.5,42.2896504766228
1663.75,42.2396755620326
1664,42.1897006474425
1664.25,42.1397257328523
1664.5,42.0897508182622
1664.75,42.039775903672
1665,41.9898009890819
1665.25,41.9398260744917
1665.5,41.9111637241083
1665.75,41.9661361301574
1666,42.0211085362066
1666.25,42.0760809422558
1666.5,42.1310533483049
1666.75,42.1860257543541
1667,42.2409981604033
1667.25,42.2959705664524
1667.5,42.3509429725016
1667.75,42.4059153785508
1668,42.4608877845999
1668.25,42.5158601906491
1668.5,42.5708325966983
1668.75,42.6258050027474
1669,42.6807774087966
1669.25,42.7357498148458
1669.5,42.790722220895
1669.75,42.8456946269441
1670,42.9006670329933
1670.25,42.9556394390425
1670.5,42.9585173328237
1670.75,42.743625200086
1671,42.5287330673483
1671.25,42.3138409346108
1671.5,42.098948801873
1671.75,41.8840566691353
1672,41.6691645363976
1672.25,41.4542724036601
1672.5,41.2393802709224
1672.75,41.0244881381847
1673,40.8095960054471
1673.25,40.5947038727094
1673.5,40.3798117399717
1673.75,40.1649196072342
1674,39.9500274744965
1674.25,39.7351353417588
1674.5,39.5202432090211
1674.75,39.3053510762835
1675,39.0904589435458
1675.25,38.8755668108081
1675.5,38.6926836610364
1675.75,38.6527037293643
1676,38.6127237976921
1676.25,38.57274386602
1676.5,38.5327639343479
1676.75,38.4927840026758
1677,38.4528040710037
1677.25,38.4128241393315
1677.5,38.3728442076594
1677.75,38.3328642759873
1678,38.2928843443152
1678.25,38.252904412643
1678.5,38.2129244809709
1678.75,38.1729445492988
1679,38.1329646176267
1679.25,38.0929846859545
1679.5,38.0530047542824
1679.75,38.0130248226103
1680,37.9730448909382
1680.25,37.933064959266
1680.5,37.871475738825
1680.75,37.7065585206775
1681,37.54164130253
1681.25,37.3767240843826
1681.5,37.211806866235
1681.75,37.0468896480875
1682,36.8819724299401
1682.25,36.7170552117925
1682.5,36.552137993645
1682.75,36.3872207754976
1683,36.22230355735
1683.25,36.0573863392025
1683.5,35.8924691210549
1683.75,35.7275519029075
1684,35.56263468476
1684.25,35.3977174666124
1684.5,35.232800248465
1684.75,35.0678830303175
1685,34.9029658121699
1685.25,34.7380485940225
1685.5,34.6008142007311
1685.75,34.6058116921901
1686,34.6108091836491
1686.25,34.6158066751081
1686.5,34.6208041665671
1686.75,34.6258016580261
1687,34.6307991494852
1687.25,34.6357966409442
1687.5,34.6407941324032
1687.75,34.6457916238622
1688,34.6507891153212
1688.25,34.6557866067802
1688.5,34.6607840982392
1688.75,34.6657815896983
1689,34.6707790811573
1689.25,34.6757765726163
1689.5,34.6807740640753
1689.75,34.6857715555343
1690,34.6907690469933
1690.25,34.6957665384524
1690.5,34.7473698545047
1690.75,35.0572143249637
1691,35.3670587954224
1691.25,35.6769032658815
1691.5,35.9867477363405
1691.75,36.2965922067995
1692,36.6064366772583
1692.25,36.9162811477173
1692.5,37.2261256181763
1692.75,37.5359700886351
1693,37.8458145590941
1693.25,38.1556590295531
1693.5,38.4655035000119
1693.75,38.7753479704709
1694,39.0851924409299
1694.25,39.3950369113887
1694.5,39.7048813818477
1694.75,40.0147258523067
1695,40.3245703227658
1695.25,40.6344147932245
1695.5,40.9449731227752
1695.75,41.2598150846933
1696,41.574657046611
1696.25,41.8894990085291
1696.5,42.2043409704471
1696.75,42.5191829323649
1697,42.8340248942829
1697.25,43.148866856201
1697.5,43.463708818119
1697.75,43.7785507800368
1698,44.0933927419548
1698.25,44.4082347038729
1698.5,44.7230766657906
1698.75,45.0379186277087
1699,45.3527605896267
1699.25,45.6676025515445
1699.5,45.9824445134625
1699.75,46.2972864753806
1700,46.6121284372986
1700.25,46.9269703992164
1700.5,47.2292022839669
1700.75,47.4490919081636
1701,47.6689815323602
1701.25,47.8888711565569
1701.5,48.1087607807536
1701.75,48.3286504049502
1702,48.5485400291469
1702.25,48.7684296533436
1702.5,48.9883192775401
1702.75,49.2082089017369
1703,49.4280985259336
1703.25,49.6479881501303
1703.5,49.8678777743269
1703.75,50.0877673985236
1704,50.3076570227203
1704.25,50.5275466469169
1704.5,50.7474362711136
1704.75,50.9673258953103
1705,51.1872155195068
1705.25,51.4071051437036
1705.5,51.5815944764316
1705.75,51.4316697326611
1706,51.2817449888908
1706.25,51.1318202451203
1706.5,50.9818955013498
1706.75,50.8319707575794
1707,50.6820460138089
1707.25,50.5321212700384
1707.5,50.382196526268
1707.75,50.2322717824975
1708,50.082347038727
1708.25,49.9324222949567
1708.5,49.7824975511862
1708.75,49.6325728074157
1709,49.4826480636452
1709.25,49.3327233198748
1709.5,49.1827985761043
1709.75,49.0328738323338
1710,48.8829490885635
1710.25,48.733024344793
1710.5,48.6022533865303
1710.75,48.6222433523664
1711,48.6422333182025
1711.25,48.6622232840385
1711.5,48.6822132498746
1711.75,48.7022032157106
1712,48.7221931815467
1712.25,48.7421831473828
1712.5,48.7621731132188
1712.75,48.7821630790549
1713,48.802153044891
1713.25,48.822143010727
1713.5,48.8421329765631
1713.75,48.8621229423991
1714,48.8821129082352
1714.25,48.9021028740712
1714.5,48.9220928399073
1714.75,48.9420828057434
1715,48.9620727715794
1715.25,48.9820627374155
1715.5,48.9763939126071
1715.75,48.7465093054925
1716,48.5166246983778
1716.25,48.286740091263
1716.5,48.0568554841485
1716.75,47.8269708770337
1717,47.5970862699189
1717.25,47.3672016628042
1717.5,47.1373170556896
1717.75,46.9074324485749
1718,46.6775478414601
1718.25,46.4476632343455
1718.5,46.2177786272308
1718.75,45.987894020116
1719,45.7580094130015
1719.25,45.5281248058867
1719.5,45.2982401987719
1719.75,45.0683555916574
1720,44.8384709845426
1720.25,44.6085863774278
1720.5,44.4013890149796
1720.75,44.4163814893566
1721,44.4313739637337
1721.25,44.4463664381107
1721.5,44.4613589124878
1721.75,44.4763513868648
1722,44.4913438612419
1722.25,44.5063363356189
1722.5,44.5213288099959
1722.75,44.536321284373
1723,44.55131375875
1723.25,44.5663062331271
1723.5,44.5812987075041
1723.75,44.5962911818812
1724,44.6112836562582
1724.25,44.6262761306353
1724.5,44.6412686050123
1724.75,44.6562610793893
1725,44.6712535537664
1725.25,44.6862460281435
1725.5,44.687614974795
1725.75,44.5376902310247
1726,44.3877654872542
1726.25,44.2378407434837
1726.5,44.0879159997133
1726.75,43.9379912559428
1727,43.7880665121723
1727.25,43.638141768402
1727.5,43.4882170246315
1727.75,43.338292280861
1728,43.1883675370906
1728.25,43.0384427933201
1728.5,42.8885180495496
1728.75,42.7385933057791
1729,42.5886685620088
1729.25,42.4387438182383
1729.5,42.2888190744678
1729.75,42.1388943306974
1730,41.9889695869269
1730.25,41.8390448431564
1730.5,41.703626633538
1730.75,41.7536015481282
1731,41.8035764627183
1731.25,41.8535513773085
1731.5,41.9035262918986
1731.75,41.9535012064888
1732,42.0034761210789
1732.25,42.0534510356691
1732.5,42.1034259502592
1732.75,42.1534008648494
1733,42.2033757794395
1733.25,42.2533506940297
1733.5,42.3033256086198
1733.75,42.35330052321
1734,42.4032754378001
1734.25,42.4532503523903
1734.5,42.5032252669805
1734.75,42.5532001815706
1735,42.6031750961608
1735.25,42.6531500107509
1735.5,42.7006249850682
1735.75,42.7106199679862
1736,42.7206149509043
1736.25,42.7306099338223
1736.5,42.7406049167403
1736.75,42.7505998996584
1737,42.7605948825764
1737.25,42.7705898654944
1737.5,42.7805848484125
1737.75,42.7905798313305
1738,42.8005748142485
1738.25,42.8105697971665
1738.5,42.8205647800846
1738.75,42.8305597630026
1739,42.8405547459206
1739.25,42.8505497288387
1739.5,42.8605447117567
1739.75,42.8705396946747
1740,42.8805346775928
1740.25,42.8905296605108
1740.5,42.8918680268533
1740.75,42.7369457916238
1741,42.5820235563943
1741.25,42.4271013211649
1741.5,42.2721790859354
1741.75,42.1172568507059
1742,41.9623346154765
1742.25,41.807412380247
1742.5,41.6524901450175
1742.75,41.497567909788
1743,41.3426456745586
1743.25,41.1877234393291
1743.5,41.0328012040996
1743.75,40.8778789688702
1744,40.7229567336407
1744.25,40.5680344984112
1744.5,40.4131122631818
1744.75,40.2581900279523
1745,40.1032677927228
1745.25,39.9483455574934
1745.5,39.7927868695798
1745.75,39.6228721599732
1746,39.4529574503666
1746.25,39.2830427407602
1746.5,39.1131280311537
1746.75,38.9432133215471
1747,38.7732986119407
1747.25,38.6033839023341
1747.5,38.4334691927276
1747.75,38.2635544831211
1748,38.0936397735146
1748.25,37.923725063908
1748.5,37.7538103543015
1748.75,37.583895644695
1749,37.4139809350885
1749.25,37.2440662254819
1749.5,37.0741515158755
1749.75,36.9042368062689
1750,36.7343220966624
1750.25,36.564407387056
1750.5,36.4046974221755
1750.75,36.549624674487
1751,36.6945519267983
1751.25,36.8394791791098
1751.5,36.9844064314213
1751.75,37.1293336837328
1752,37.2742609360441
1752.25,37.4191881883556
1752.5,37.5641154406671
1752.75,37.7090426929785
1753,37.8539699452899
1753.25,37.9988971976014
1753.5,38.1438244499128
1753.75,38.2887517022242
1754,38.4336789545357
1754.25,38.5786062068472
1754.5,38.7235334591586
1754.75,38.86846071147
1755,39.0133879637815
1755.25,39.1583152160929
1755.5,39.3011180925532
1755.75,39.3510930071434
1756,39.4010679217335
1756.25,39.4510428363237
1756.5,39.5010177509138
1756.75,39.550992665504
1757,39.6009675800941
1757.25,39.6509424946843
1757.5,39.7009174092745
1757.75,39.7508923238646
1758,39.8008672384547
1758.25,39.8508421530449
1758.5,39.900817067635
1758.75,39.9507919822252
1759,40.0007668968154
1759.25,40.0507418114055
1759.5,40.1007167259957
1759.75,40.1506916405858
1760,40.200666555176
1760.25,40.2506414697661
1760.5,40.2983357622381
1760.75,40.1634034928446
1761,40.0284712234513
1761.25,39.8935389540578
1761.5,39.7586066846644
1761.75,39.6236744152711
1762,39.4887421458776
1762.25,39.3538098764842
1762.5,39.2188776070907
1762.75,39.0839453376974
1763,38.949013068304
1763.25,38.8140807989105
1763.5,38.6791485295172
1763.75,38.5442162601237
1764,38.4092839907303
1764.25,38.274351721337
1764.5,38.1394194519435
1764.75,38.0044871825501
1765,37.8695549131567
1765.25,37.7346226437633
1765.5,37.6003096256302
1765.75,37.7352418950236
1766,37.8701741644169
1766.25,38.0051064338104
1766.5,38.1400387032038
1766.75,38.2749709725972
1767,38.4099032419906
1767.25,38.5448355113841
1767.5,38.6797677807774
1767.75,38.8147000501708
1768,38.9496323195643
1768.25,39.0845645889577
1768.5,39.2194968583511
1768.75,39.3544291277445
1769,39.4893613971379
1769.25,39.6242936665313
1769.5,39.7592259359247
1769.75,39.8941582053182
1770,40.0290904747115
1770.25,40.1640227441049
1770.5,40.2989550134984
1770.75,40.0371842224718
1771,39.7723171751439
1771.25,39.5074501278161
1771.5,39.2425830804882
1771.75,38.9777160331605
1772,38.7128489858327
1772.25,38.4479819385048
1772.5,38.1831148911771
1772.75,37.9182478438493
1773,37.6533807965214
1773.25,37.3885137491937
1773.5,37.1236467018659
1773.75,36.858779654538
1774,36.5939126072101
1774.25,36.3290455598825
1774.5,36.0641785125546
1774.75,35.7993114652267
1775,35.5344444178991
1775.25,35.2695773705712
1775.5,35.0047103232433
1775.75,34.9656396779511
1776,34.930657237738
1776.25,34.8956747975249
1776.5,34.8606923573118
1776.75,34.8257099170987
1777,34.7907274768856
1777.25,34.7557450366725
1777.5,34.7207625964594
1777.75,34.6857801562463
1778,34.6507977160331
1778.25,34.6158152758201
1778.5,34.5808328356069
1778.75,34.5458503953938
1779,34.5108679551807
1779.25,34.4758855149676
1779.5,34.4409030747545
1779.75,34.4059206345414
1780,34.3709381943283
1780.25,34.3359557541152
1780.5,34.3009733139021
1780.75,34.4991963112502
1781,34.7040934610699
1781.25,34.9089906108895
1781.5,35.113887760709
1781.75,35.3187849105287
1782,35.5236820603484
1782.25,35.7285792101681
1782.5,35.9334763599876
1782.75,36.1383735098073
1783,36.3432706596269
1783.25,36.5481678094464
1783.5,36.7530649592661
1783.75,36.9579621090858
1784,37.1628592589053
1784.25,37.367756408725
1784.5,37.5726535585446
1784.75,37.7775507083641
1785,37.9824478581838
1785.25,38.1873450080035
1785.5,38.3922421578232
1785.75,38.5009737917194
1786,38.6059211123588
1786.25,38.7108684329981
1786.5,38.8158157536374
1786.75,38.9207630742767
1787,39.0257103949161
1787.25,39.1306577155553
1787.5,39.2356050361947
1787.75,39.340552356834
1788,39.4454996774734
1788.25,39.5504469981126
1788.5,39.655394318752
1788.75,39.7603416393913
1789,39.8652889600306
1789.25,39.9702362806699
1789.5,40.0751836013093
1789.75,40.1801309219485
1790,40.2850782425879
1790.25,40.3900255632272
1790.5,40.4949728838665
1790.75,40.5380648398117
1791,40.5780447714839
1791.25,40.618024703156
1791.5,40.6580046348281
1791.75,40.6979845665002
1792,40.7379644981724
1792.25,40.7779444298445
1792.5,40.8179243615166
1792.75,40.8579042931887
1793,40.8978842248608
1793.25,40.937864156533
1793.5,40.9778440882051
1793.75,41.0178240198772
1794,41.0578039515493
1794.25,41.0977838832215
1794.5,41.1377638148936
1794.75,41.1777437465657
1795,41.2177236782378
1795.25,41.2577036099099
1795.5,41.297683541582
1795.75,41.2340889218052
1796,41.164124041379
1796.25,41.0941591609528
1796.5,41.0241942805266
1796.75,40.9542294001003
1797,40.8842645196741
1797.25,40.8142996392479
1797.5,40.7443347588217
1797.75,40.6743698783955
1798,40.6044049979693
1798.25,40.534440117543
1798.5,40.4644752371168
1798.75,40.3945103566907
1799,40.3245454762644
1799.25,40.2545805958382
1799.5,40.184615715412
1799.75,40.1146508349858
1800,40.0446859545596
1800.25,39.9747210741333
1800.5,39.9047561937072
1800.75,39.9186310533483
1801,39.9386210191844
1801.25,39.9586109850204
1801.5,39.9786009508565
1801.75,39.9985909166926
1802,40.0185808825286
1802.25,40.0385708483647
1802.5,40.0585608142007
1802.75,40.0785507800368
1803,40.0985407458728
1803.25,40.1185307117089
1803.5,40.138520677545
1803.75,40.158510643381
1804,40.1785006092171
1804.25,40.1984905750532
1804.5,40.2184805408892
1804.75,40.2384705067253
1805,40.2584604725613
1805.25,40.2784504383974
1805.5,40.2984404042335
1805.75,40.1709874095133
1806,40.0310576486608
1806.25,39.8911278878085
1806.5,39.751198126956
1806.75,39.6112683661036
1807,39.4713386052512
1807.25,39.3314088443988
1807.5,39.1914790835463
1807.75,39.051549322694
1808,38.9116195618415
1808.25,38.771689800989
1808.5,38.6317600401366
1808.75,38.4918302792842
1809,38.3519005184318
1809.25,38.2119707575793
1809.5,38.072040996727
1809.75,37.9321112358745
1810,37.792181475022
1810.25,37.6522517141697
1810.5,37.5123219533172
1810.75,37.4680980481162
1811,37.4331156079031
1811.25,37.39813316769
1811.5,37.3631507274769
1811.75,37.3281682872638
1812,37.2931858470507
1812.25,37.2582034068376
1812.5,37.2232209666244
1812.75,37.1882385264114
1813,37.1532560861982
1813.25,37.1182736459851
1813.5,37.083291205772
1813.75,37.0483087655589
1814,37.0133263253458
1814.25,36.9783438851327
1814.5,36.9433614449196
1814.75,36.9083790047065
1815,36.8733965644934
1815.25,36.8384141242803
1815.5,36.8034316840672
1815.75,36.786478247366
1816,36.771485772989
1816.25,36.7564932986119
1816.5,36.7415008242349
1816.75,36.7265083498578
1817,36.7115158754808
1817.25,36.6965234011038
1817.5,36.6815309267267
1817.75,36.6665384523497
1818,36.6515459779726
1818.25,36.6365535035956
1818.5,36.6215610292185
1818.75,36.6065685548415
1819,36.5915760804644
1819.25,36.5765836060874
1819.5,36.5615911317103
1819.75,36.5465986573333
1820,36.5316061829562
1820.25,36.5166137085792
1820.5,36.5016212342022
1820.75,36.5490278806413
1821,36.6040002866904
1821.25,36.6589726927396
1821.5,36.7139450987888
1821.75,36.7689175048379
1822,36.8238899108871
1822.25,36.8788623169362
1822.5,36.9338347229854
1822.75,36.9888071290346
1823,37.0437795350838
1823.25,37.0987519411329
1823.5,37.1537243471821
1823.75,37.2086967532313
1824,37.2636691592804
1824.25,37.3186415653296
1824.5,37.3736139713787
1824.75,37.4285863774279
1825,37.4835587834771
1825.25,37.5385311895262
1825.5,37.5935035955754
1825.75,37.754241823351
1826,37.9291540244164
1826.25,38.104066225482
1826.5,38.2789784265476
1826.75,38.453890627613
1827,38.6288028286786
1827.25,38.8037150297442
1827.5,38.9786272308096
1827.75,39.1535394318752
1828,39.3284516329408
1828.25,39.5033638340064
1828.5,39.6782760350718
1828.75,39.8531882361374
1829,40.0281004372029
1829.25,40.2030126382684
1829.5,40.377924839334
1829.75,40.5528370403995
1830,40.7277492414649
1830.25,40.9026614425305
1830.5,41.0775736435961
1830.75,41.239415629405
1831,41.3993353560934
1831.25,41.5592550827819
1831.5,41.7191748094704
1831.75,41.8790945361588
1832,42.0390142628473
1832.25,42.1989339895359
1832.5,42.3588537162243
1832.75,42.5187734429128
1833,42.6786931696013
1833.25,42.8386128962897
1833.5,42.9985326229782
1833.75,43.1584523496668
1834,43.3183720763553
1834.25,43.4782918030437
1834.5,43.6382115297322
1834.75,43.7981312564207
1835,43.9580509831091
1835.25,44.1179707097977
1835.5,44.2778904364862
1835.75,44.3732116491865
1836,44.4581690039898
1836.25,44.5431263587931
1836.5,44.6280837135963
1836.75,44.7130410683995
1837,44.7979984232028
1837.25,44.8829557780061
1837.5,44.9679131328093
1837.75,45.0528704876126
1838,45.1378278424159
1838.25,45.2227851972191
1838.5,45.3077425520224
1838.75,45.3926999068256
1839,45.4776572616289
1839.25,45.5626146164321
1839.5,45.6475719712354
1839.75,45.7325293260387
1840,45.8174866808419
1840.25,45.9024440356452
1840.5,45.9874013904485
1840.75,45.8978464772918
1841,45.7779066822754
1841.25,45.657966887259
1841.5,45.5380270922427
1841.75,45.4180872972263
1842,45.2981475022099
1842.25,45.1782077071935
1842.5,45.0582679121772
1842.75,44.9383281171608
1843,44.8183883221444
1843.25,44.6984485271281
1843.5,44.5785087321117
1843.75,44.4585689370953
1844,44.338629142079
1844.25,44.2186893470626
1844.5,44.0987495520462
1844.75,43.9788097570298
1845,43.8588699620135
1845.25,43.7389301669971
1845.5,43.6189903719807
1845.75,43.3938949279691
1846,43.1490178464773
1846.25,42.9041407649854
1846.5,42.6592636834938
1846.75,42.414386602002
1847,42.1695095205102
1847.25,41.9246324390186
1847.5,41.6797553575268
1847.75,41.434878276035
1848,41.1900011945432
1848.25,40.9451241130516
1848.5,40.7002470315598
1848.75,40.455369950068
1849,40.2104928685764
1849.25,39.9656157870846
1849.5,39.7207387055928
1849.75,39.4758616241012
1850,39.2309845426093
1850.25,38.9861074611175
1850.5,38.7412303796257
1850.75,38.7374044962611
1851,38.7823819193922
1851.25,38.8273593425234
1851.5,38.8723367656545
1851.75,38.9173141887856
1852,38.9622916119168
1852.25,39.0072690350479
1852.5,39.052246458179
1852.75,39.0972238813102
1853,39.1422013044413
1853.25,39.1871787275725
1853.5,39.2321561507036
1853.75,39.2771335738348
1854,39.3221109969659
1854.25,39.367088420097
1854.5,39.4120658432282
1854.75,39.4570432663593
1855,39.5020206894904
1855.25,39.5469981126216
1855.5,39.5919755357527
1855.75,39.5548352724753
1856,39.4998628664261
1856.25,39.444890460377
1856.5,39.3899180543278
1856.75,39.3349456482786
1857,39.2799732422295
1857.25,39.2250008361803
1857.5,39.1700284301312
1857.75,39.115056024082
1858,39.0600836180328
1858.25,39.0051112119837
1858.5,38.9501388059345
1858.75,38.8951663998853
1859,38.8401939938362
1859.25,38.785221587787
1859.5,38.7302491817378
1859.75,38.6752767756887
1860,38.6203043696395
1860.25,38.5653319635903
1860.5,38.5103595575412
1860.75,38.5243342810044
1861,38.5543192297585
1861.25,38.5843041785125
1861.5,38.6142891272666
1861.75,38.6442740760208
1862,38.6742590247748
1862.25,38.7042439735289
1862.5,38.734228922283
1862.75,38.7642138710371
1863,38.7941988197912
1863.25,38.8241837685453
1863.5,38.8541687172994
1863.75,38.8841536660535
1864,38.9141386148076
1864.25,38.9441235635617
1864.5,38.9741085123158
1864.75,39.0040934610698
1865,39.0340784098239
1865.25,39.064063358578
1865.5,39.0940483073321
1865.75,39.1280387987672
1866,39.1630212389804
1866.25,39.1980036791934
1866.5,39.2329861194066
1866.75,39.2679685596197
1867,39.3029509998328
1867.25,39.3379334400459
1867.5,39.372915880259
1867.75,39.4078983204721
1868,39.4428807606852
1868.25,39.4778632008983
1868.5,39.5128456411114
1868.75,39.5478280813245
1869,39.5828105215376
1869.25,39.6177929617507
1869.5,39.6527754019638
1869.75,39.6877578421769
1870,39.72274028239
1870.25,39.7577227226032
1870.5,39.7927051628163
1870.75,39.8395537186134
1871,39.8895286332036
1871.25,39.9395035477937
1871.5,39.9894784623838
1871.75,40.039453376974
1872,40.0894282915641
1872.25,40.1394032061543
1872.5,40.1893781207445
1872.75,40.2393530353346
1873,40.2893279499247
1873.25,40.3393028645149
1873.5,40.3892777791051
1873.75,40.4392526936952
1874,40.4892276082854
1874.25,40.5392025228755
1874.5,40.5891774374657
1874.75,40.6391523520558
1875,40.689127266646
1875.25,40.7391021812361
1875.5,40.7890770958263
1875.75,40.7140855770838
1876,40.6041407649855
1876.25,40.4941959528872
1876.5,40.3842511407888
1876.75,40.2743063286905
1877,40.1643615165922
1877.25,40.0544167044939
1877.5,39.9444718923955
1877.75,39.8345270802972
1878,39.7245822681989
1878.25,39.6146374561005
1878.5,39.5046926440022
1878.75,39.3947478319039
1879,39.2848030198055
1879.25,39.1748582077071
1879.5,39.0649133956089
1879.75,38.9549685835105
1880,38.8450237714121
1880.25,38.7350789593139
1880.5,38.6251341472155
1880.75,38.6308402417756
1881,38.6708201734477
1881.25,38.7108001051198
1881.5,38.750780036792
1881.75,38.7907599684641
1882,38.8307399001362
1882.25,38.8707198318083
1882.5,38.9106997634804
1882.75,38.9506796951525
1883,38.9906596268247
1883.25,39.0306395584968
1883.5,39.0706194901689
1883.75,39.110599421841
1884,39.1505793535132
1884.25,39.1905592851853
1884.5,39.2305392168574
1884.75,39.2705191485295
1885,39.3104990802017
1885.25,39.3504790118738
1885.5,39.3904589435459
1885.75,39.4038048594023
1886,39.4088023508613
1886.25,39.4137998423203
1886.5,39.4187973337793
1886.75,39.4237948252383
1887,39.4287923166973
1887.25,39.4337898081563
1887.5,39.4387872996154
1887.75,39.4437847910744
1888,39.4487822825334
1888.25,39.4537797739924
1888.5,39.4587772654514
1888.75,39.4637747569104
1889,39.4687722483694
1889.25,39.4737697398285
1889.5,39.4787672312875
1889.75,39.4837647227465
1890,39.4887622142055
1890.25,39.4937597056645
1890.5,39.4987571971235
1890.75,39.4211515397663
1891,39.316204219127
1891.25,39.2112568984877
1891.5,39.1063095778483
1891.75,39.0013622572091
1892,38.8964149365697
1892.25,38.7914676159304
1892.5,38.6865202952911
1892.75,38.5815729746518
1893,38.4766256540124
1893.25,38.3716783333731
1893.5,38.2667310127338
1893.75,38.1617836920945
1894,38.0568363714551
1894.25,37.9518890508159
1894.5,37.8469417301765
1894.75,37.7419944095372
1895,37.6370470888979
1895.25,37.5320997682586
1895.5,37.4271524476192
1895.75,37.2518192894855
1896,37.051919631125
1896.25,36.8520199727644
1896.5,36.6521203144037
1896.75,36.4522206560432
1897,36.2523209976825
1897.25,36.0524213393219
1897.5,35.8525216809614
1897.75,35.6526220226007
1898,35.4527223642401
1898.25,35.2528227058796
1898.5,35.0529230475189
1898.75,34.8530233891583
1899,34.6531237307976
1899.25,34.4532240724371
1899.5,34.2533244140765
1899.75,34.0534247557158
1900,33.8535250973553
1900.25,33.6536254389946
1900.5,33.453725780634
1900.75,33.4255804286021
1901,33.4605628688153
1901.25,33.4955453090284
1901.5,33.5305277492415
1901.75,33.5655101894546
1902,33.6004926296677
1902.25,33.6354750698808
1902.5,33.6704575100939
1902.75,33.705439950307
1903,33.7404223905201
1903.25,33.7754048307332
1903.5,33.8103872709463
1903.75,33.8453697111594
1904,33.8803521513725
1904.25,33.9153345915856
1904.5,33.9503170317988
1904.75,33.9852994720119
1905,34.020281912225
1905.25,34.0552643524381
1905.5,34.0902467926512
1905.75,34.2657921016795
1906,34.4956767087943
1906.25,34.725561315909
1906.5,34.9554459230236
1906.75,35.1853305301383
1907,35.4152151372531
1907.25,35.6450997443679
1907.5,35.8749843514824
1907.75,36.1048689585972
1908,36.334753565712
1908.25,36.5646381728265
1908.5,36.7945227799413
1908.75,37.024407387056
1909,37.2542919941706
1909.25,37.4841766012854
1909.5,37.7140612084001
1909.75,37.9439458155147
1910,38.1738304226294
1910.25,38.4037150297442
1910.5,38.633599636859
1910.75,38.6893379840887
1911,38.6743455097116
1911.25,38.6593530353346
1911.5,38.6443605609576
1911.75,38.6293680865805
1912,38.6143756122035
1912.25,38.5993831378264
1912.5,38.5843906634494
1912.75,38.5693981890723
1913,38.5544057146953
1913.25,38.5394132403182
1913.5,38.5244207659412
1913.75,38.5094282915641
1914,38.4944358171871
1914.25,38.47944334281
1914.5,38.464450868433
1914.75,38.449458394056
1915,38.4344659196789
1915.25,38.4194734453019
1915.5,38.4044809709248
1915.75,38.2037852688917
1916,37.9239257471868
1916.25,37.6440662254818
1916.5,37.3642067037772
1916.75,37.0843471820722
1917,36.8044876603673
1917.25,36.5246281386626
1917.5,36.2447686169577
1917.75,35.9649090952528
1918,35.6850495735481
1918.25,35.4051900518432
1918.5,35.1253305301382
1918.75,34.8454710084333
1919,34.5656114867286
1919.25,34.2857519650237
1919.5,34.0058924433188
1919.75,33.7260329216141
1920,33.4461733999092
1920.25,33.1663138782042
1920.5,32.8864543564996
1920.75,32.7758243543493
1921,32.7408419141362
1921.25,32.7058594739231
1921.5,32.67087703371
1921.75,32.6358945934969
1922,32.6009121532838
1922.25,32.5659297130707
1922.5,32.5309472728576
1922.75,32.4959648326445
1923,32.4609823924314
1923.25,32.4259999522183
1923.5,32.3910175120051
1923.75,32.3560350717921
1924,32.3210526315789
1924.25,32.2860701913658
1924.5,32.2510877511527
1924.75,32.2161053109396
1925,32.1811228707265
1925.25,32.1461404305134
1925.5,32.1111579903003
1925.75,32.1204209570681
1926,32.1504059058222
1926.25,32.1803908545763
1926.5,32.2103758033304
1926.75,32.2403607520845
1927,32.2703457008386
1927.25,32.3003306495927
1927.5,32.3303155983468
1927.75,32.3603005471009
1928,32.3902854958549
1928.25,32.420270444609
1928.5,32.4502553933631
1928.75,32.4802403421172
1929,32.5102252908713
1929.25,32.5402102396254
1929.5,32.5701951883795
1929.75,32.6001801371336
1930,32.6301650858877
1930.25,32.6601500346418
1930.5,32.6901349833959
1930.75,32.7603597964498
1931,32.8503146427121
1931.25,32.9402694889744
1931.5,33.0302243352367
1931.75,33.120179181499
1932,33.2101340277612
1932.25,33.3000888740235
1932.5,33.3900437202858
1932.75,33.4799985665481
1933,33.5699534128103
1933.25,33.6599082590726
1933.5,33.7498631053349
1933.75,33.8398179515971
1934,33.9297727978594
1934.25,34.0197276441217
1934.5,34.1096824903839
1934.75,34.1996373366462
1935,34.2895921829085
1935.25,34.3795470291707
1935.5,34.469501875433
1935.75,34.4504527319206
1936,34.3754903600353
1936.25,34.3005279881501
1936.5,34.2255656162649
1936.75,34.1506032443796
1937,34.0756408724945
1937.25,34.0006785006092
1937.5,33.925716128724
1937.75,33.8507537568388
1938,33.7757913849535
1938.25,33.7008290130683
1938.5,33.625866641183
1938.75,33.5509042692978
1939,33.4759418974126
1939.25,33.4009795255273
1939.5,33.3260171536422
1939.75,33.2510547817569
1940,33.1760924098717
1940.25,33.1011300379865
1940.5,33.0261676661012
1940.75,33.0195178823136
1941,33.0495028310677
1941.25,33.0794877798218
1941.5,33.1094727285759
1941.75,33.13945767733
1942,33.169442626084
1942.25,33.1994275748381
1942.5,33.2294125235922
1942.75,33.2593974723463
1943,33.2893824211004
1943.25,33.3193673698545
1943.5,33.3493523186086
1943.75,33.3793372673627
1944,33.4093222161168
1944.25,33.4393071648709
1944.5,33.469292113625
1944.75,33.4992770623791
1945,33.5292620111332
1945.25,33.5592469598872
1945.5,33.5892319086413
1945.75,33.6064056191318
1946,33.6164006020498
1946.25,33.6263955849679
1946.5,33.6363905678859
1946.75,33.6463855508039
1947,33.656380533722
1947.25,33.66637551664
1947.5,33.676370499558
1947.75,33.686365482476
1948,33.6963604653941
1948.25,33.7063554483121
1948.5,33.7163504312301
1948.75,33.7263454141482
1949,33.7363403970662
1949.25,33.7463353799842
1949.5,33.7563303629023
1949.75,33.7663253458203
1950,33.7763203287383
1950.25,33.7863153116564
1950.5,33.7963102945744
1950.75,33.8819686074015
1951,34.0119033853358
1951.25,34.1418381632702
1951.5,34.2717729412046
1951.75,34.4017077191389
1952,34.5316424970734
1952.25,34.6615772750078
1952.5,34.7915120529422
1952.75,34.9214468308766
1953,35.051381608811
1953.25,35.1813163867454
1953.5,35.3112511646797
1953.75,35.4411859426142
1954,35.5711207205486
1954.25,35.7010554984829
1954.5,35.8309902764173
1954.75,35.9609250543518
1955,36.0908598322861
1955.25,36.2207946102205
1955.5,36.3507293881549
1955.75,36.3224383018371
1956,36.1975010153618
1956.25,36.0725637288864
1956.5,35.947626442411
1956.75,35.8226891559357
1957,35.6977518694603
1957.25,35.5728145829849
1957.5,35.4478772965096
1957.75,35.3229400100342
1958,35.1980027235587
1958.25,35.0730654370833
1958.5,34.948128150608
1958.75,34.8231908641326
1959,34.6982535776572
1959.25,34.5733162911819
1959.5,34.4483790047065
1959.75,34.3234417182311
1960,34.1985044317558
1960.25,34.0735671452803
1960.5,33.9486298588049
1960.75,33.7962218983683
1961,33.6263071887617
1961.25,33.4563924791552
1961.5,33.2864777695486
1961.75,33.1165630599422
1962,32.9466483503356
1962.25,32.7767336407291
1962.5,32.6068189311227
1962.75,32.4369042215161
1963,32.2669895119095
1963.25,32.0970748023031
1963.5,31.9271600926966
1963.75,31.75724538309
1964,31.5873306734834
1964.25,31.417415963877
1964.5,31.2475012542704
1964.75,31.0775865446639
1965,30.9076718350575
1965.25,30.7377571254509
1965.5,30.5678424158443
1965.75,30.5300212628712
1966,30.5799961774614
1966.25,30.6299710920515
1966.5,30.6799460066417
1966.75,30.7299209212318
1967,30.779895835822
1967.25,30.8298707504121
1967.5,30.8798456650023
1967.75,30.9298205795924
1968,30.9797954941826
1968.25,31.0297704087727
1968.5,31.0797453233629
1968.75,31.1297202379531
1969,31.1796951525432
1969.25,31.2296700671333
1969.5,31.2796449817235
1969.75,31.3296198963137
1970,31.3795948109038
1970.25,31.429569725494
1970.5,31.4795446400841
1970.75,31.5915106194902
1971,31.7464328547197
1971.25,31.9013550899492
1971.5,32.0562773251786
1971.75,32.2111995604081
1972,32.3661217956376
1972.25,32.521044030867
1972.5,32.6759662660965
1972.75,32.830888501326
1973,32.9858107365555
1973.25,33.1407329717849
1973.5,33.2956552070144
1973.75,33.4505774422439
1974,33.6054996774733
1974.25,33.7604219127028
1974.5,33.9153441479323
1974.75,34.0702663831617
1975,34.2251886183912
1975.25,34.3801108536207
1975.5,34.5350330888502
1975.75,34.7334820937955
1976,34.9633667009103
1976.25,35.1932513080251
1976.5,35.4231359151396
1976.75,35.6530205222544
1977,35.8829051293691
1977.25,36.1127897364837
1977.5,36.3426743435985
1977.75,36.5725589507132
1978,36.802443557828
1978.25,37.0323281649425
1978.5,37.2622127720573
1978.75,37.4920973791721
1979,37.7219819862866
1979.25,37.9518665934014
1979.5,38.1817512005162
1979.75,38.4116358076307
1980,38.6415204147455
1980.25,38.8714050218602
1980.5,39.1012896289748
1980.75,39.2598838903887
1981,39.3648312110281
1981.25,39.4697785316674
1981.5,39.5747258523067
1981.75,39.679673172946
1982,39.7846204935854
1982.25,39.8895678142246
1982.5,39.994515134864
1982.75,40.0994624555033
1983,40.2044097761426
1983.25,40.3093570967819
1983.5,40.4143044174213
1983.75,40.5192517380606
1984,40.6241990586999
1984.25,40.7291463793392
1984.5,40.8340936999786
1984.75,40.9390410206178
1985,41.0439883412572
1985.25,41.1489356618965
1985.5,41.2538829825358
1985.75,41.2411696968249
1986,41.1362223761855
1986.25,41.0312750555463
1986.5,40.9263277349069
1986.75,40.8213804142676
1987,40.7164330936282
1987.25,40.611485772989
1987.5,40.5065384523496
1987.75,40.4015911317103
1988,40.296643811071
1988.25,40.1916964904317
1988.5,40.0867491697923
1988.75,39.9818018491531
1989,39.8768545285137
1989.25,39.7719072078744
1989.5,39.666959887235
1989.75,39.5620125665958
1990,39.4570652459564
1990.25,39.3521179253171
1990.5,39.2471706046778
1990.75,39.1587309171704
1991,39.0837685452851
1991.25,39.0088061733999
1991.5,38.9338438015147
1991.75,38.8588814296294
1992,38.7839190577442
1992.25,38.708956685859
1992.5,38.6339943139737
1992.75,38.5590319420885
1993,38.4840695702033
1993.25,38.4091071983181
1993.5,38.3341448264328
1993.75,38.2591824545476
1994,38.1842200826624
1994.25,38.1092577107771
1994.5,38.034295338892
1994.75,37.9593329670067
1995,37.8843705951215
1995.25,37.8094082232362
1995.5,37.734445851351
1995.75,37.6972988986311
1996,37.692301407172
1996.25,37.687303915713
1996.5,37.682306424254
1996.75,37.677308932795
1997,37.672311441336
1997.25,37.667313949877
1997.5,37.6623164584179
1997.75,37.6573189669589
1998,37.6523214754999
1998.25,37.6473239840409
1998.5,37.6423264925819
1998.75,37.6373290011229
1999,37.6323315096639
1999.25,37.6273340182048
1999.5,37.6223365267458
1999.75,37.6173390352868
2000,37.6123415438278
2000.25,37.6073440523688
2000.5,37.6023465609098
2000.75,37.642414888788
2001,37.7223747521323
2001.25,37.8023346154765
2001.5,37.8822944788208
2001.75,37.962254342165
2002,38.0422142055092
2002.25,38.1221740688535
2002.5,38.2021339321978
2002.75,38.282093795542
2003,38.3620536588862
2003.25,38.4420135222305
2003.5,38.5219733855747
2003.75,38.6019332489189
2004,38.6818931122632
2004.25,38.7618529756075
2004.5,38.8418128389517
2004.75,38.9217727022959
2005,39.0017325656402
2005.25,39.0816924289844
2005.5,39.1616522923287
2005.75,39.2
2006,39.2
2006.25,39.2
2006.5,39.2
2006.75,39.2
2007,39.2
2007.25,39.2
2007.5,39.2
2007.75,39.2
2008,39.2
2008.25,39.2
2008.5,39.2
2008.75,39.2
2009,39.2
2009.25,39.2
2009.5,39.2
2009.75,39.2
2010,39.2
2010.25,39.2
2010.5,39.2
2010.75,39.2076517667296
2011,39.2226442411066
2011.25,39.2376367154837
2011.5,39.2526291898607
2011.75,39.2676216642378
2012,39.2826141386148
2012.25,39.2976066129919
2012.5,39.3125990873689
2012.75,39.3275915617459
2013,39.342584036123
2013.25,39.3575765105
2013.5,39.3725689848771
2013.75,39.3875614592541
2014,39.4025539336312
2014.25,39.4175464080082
2014.5,39.4325388823853
2014.75,39.4475313567623
2015,39.4625238311394
2015.25,39.4775163055164
2015.5,39.4925087798934
2015.75,39.5125020904508
2016,39.5374895477459
2016.25,39.562477005041
2016.5,39.5874644623361
2016.75,39.6124519196311
2017,39.6374393769262
2017.25,39.6624268342213
2017.5,39.6874142915163
2017.75,39.7124017488114
2018,39.7373892061065
2018.25,39.7623766634016
2018.5,39.7873641206967
2018.75,39.8123515779917
2019,39.8373390352868
2019.25,39.8623264925819
2019.5,39.887313949877
2019.75,39.9123014071721
2020,39.9372888644671
2020.25,39.9622763217622
2020.5,39.9872637790573
2020.75,40.0049004945409
2021,40.014895477459
2021.25,40.024890460377
2021.5,40.034885443295
2021.75,40.0448804262131
2022,40.0548754091311
2022.25,40.0648703920491
2022.5,40.0748653749671
2022.75,40.0848603578852
2023,40.0948553408032
2023.25,40.1048503237212
2023.5,40.1148453066393
2023.75,40.1248402895573
2024,40.1348352724753
2024.25,40.1448302553934
2024.5,40.1548252383114
2024.75,40.1648202212294
2025,40.1748152041475
2025.25,40.1848101870655
2025.5,40.1948051699835
2025.75,40.1615987767877
2026,40.0816389134434
2026.25,40.0016790500991
2026.5,39.9217191867549
2026.75,39.8417593234107
2027,39.7617994600664
2027.25,39.6818395967221
2027.5,39.6018797333779
2027.75,39.5219198700337
2028,39.4419600066894
2028.25,39.3620001433452
2028.5,39.2820402800009
2028.75,39.2020804166567
2029,39.1221205533125
2029.25,39.0421606899682
2029.5,38.962200826624
2029.75,38.8822409632797
2030,38.8022810999355
2030.25,38.7223212365912
2030.5,38.642361373247
2030.75,38.6422983013594
2031,38.7322531476217
2031.25,38.822207993884
2031.5,38.9121628401462
2031.75,39.0021176864085
2032,39.0920725326708
2032.25,39.1820273789331
2032.5,39.2719822251953
2032.75,39.3619370714576
2033,39.4518919177199
2033.25,39.5418467639821
2033.5,39.6318016102444
2033.75,39.7217564565067
2034,39.8117113027689
2034.25,39.9016661490312
2034.5,39.9916209952935
2034.75,40.0815758415558
2035,40.171530687818
2035.25,40.2614855340804
2035.5,40.3514403803426
2035.75,40.3655039778293
2036,40.290541605944
2036.25,40.2155792340588
2036.5,40.1406168621736
2036.75,40.0656544902884
2037,39.9906921184031
2037.25,39.9157297465179
2037.5,39.8407673746327
2037.75,39.7658050027474
2038,39.6908426308622
2038.25,39.615880258977
2038.5,39.5409178870917
2038.75,39.4659555152065
2039,39.3909931433213
2039.25,39.3160307714361
2039.5,39.2410683995508
2039.75,39.1661060276656
2040,39.0911436557804
2040.25,39.0161812838951
2040.5,38.9412189120099
2040.75,38.8617574121413
2041,38.7768000573381
2041.25,38.6918427025348
2041.5,38.6068853477316
2041.75,38.5219279929283
2042,38.436970638125
2042.25,38.3520132833218
2042.5,38.2670559285185
2042.75,38.1820985737152
2043,38.097141218912
2043.25,38.0121838641087
2043.5,37.9272265093055
2043.75,37.8422691545022
2044,37.757311799699
2044.25,37.6723544448957
2044.5,37.5873970900924
2044.75,37.5024397352892
2045,37.4174823804859
2045.25,37.3325250256826
2045.5,37.2475676708794
2045.75,37.2791781541917
2046,37.4590878467163
2046.25,37.6389975392409
2046.5,37.8189072317653
2046.75,37.9988169242899
2047,38.1787266168145
2047.25,38.3586363093389
2047.5,38.5385460018635
2047.75,38.7184556943881
2048,38.8983653869126
2048.25,39.0782750794372
2048.5,39.2581847719618
2048.75,39.4380944644862
2049,39.6180041570108
2049.25,39.7979138495354
2049.5,39.97782354206
2049.75,40.1577332345844
2050,40.337642927109
2050.25,40.5175526196336
2050.5,40.697462312158
2050.75,39.9231172802634
2051,37.8841407649847
2051.25,35.8451642497077
2051.5,33.806187734429
2051.75,31.7672112191502
2052,29.7282347038714
2052.25,27.6892581885945
2052.5,25.6502816733157
2052.75,23.611305158037
2053,21.57232864276
2053.25,19.5333521274813
2053.5,17.4943756122025
2053.75,15.4553990969256
2054,13.4164225816468
2054.25,11.377446066368
2054.5,9.33846955109111
2054.75,7.29949303581234
2055,5.26051652053357
2055.25,3.22154000525479
2055.5,1.18256348997787
2055.75,0
2056,0
2056.25,0
2056.5,0
2056.75,0
2057,0
2057.25,0
2057.5,0
2057.75,0
2058,0
2058.25,0
2058.5,0
2058.75,0
2059,0
2059.25,0
2059.5,0
2059.75,0
2060,0
2060.25,0
2060.5,0
2060.75,0
2061,0
2061.25,0
2061.5,0
2061.75,0
2062,0
2062.25,0
2062.5,0
2062.75,0
2063,0
2063.25,0
2063.5,0
2063.75,0
2064,0
2064.25,0
2064.5,0
2064.75,0
2065,0
2065.25,0
2065.5,0
2065.75,0
2066,0
2066.25,0
2066.5,0
2066.75,0
2067,0
2067.25,0
2067.5,0
2067.75,0
2068,0
2068.25,0
2068.5,0
2068.75,0
2069,0
2069.25,0
2069.5,0
2069.75,0
2070,0
2070.25,0
2070.5,0
2070.75,0
2071,0
2071.25,0
2071.5,0
2071.75,0
2072,0
2072.25,0
2072.5,0
2072.75,0
2073,0
2073.25,0
2073.5,0
2073.75,0
2074,0
2074.25,0
2074.5,0
2074.75,0
2075,0
2075.25,0
2075.5,0
2075.75,0
2076,0
2076.25,0
2076.5,0
2076.75,0
2077,0
2077.25,0
2077.5,0
2077.75,0
2078,0
2078.25,0
2078.5,0
2078.75,0
2079,0
2079.25,0
2079.5,0
2079.75,0
2080,0
2080.25,0
2080.5,0
2080.75,0
2081,0
2081.25,0
2081.5,0
2081.75,0
2082,0
2082.25,0
2082.5,0
2082.75,0
2083,0
2083.25,0
2083.5,0
2083.75,0
2084,0
2084.25,0
2084.5,0
2084.75,0
2085,0
2085.25,0
2085.5,0
2085.75,0
2086,0
2086.25,0
2086.5,0
2086.75,0
2087,0
2087.25,0
2087.5,0
2087.75,0
2088,0
2088.25,0
2088.5,0
2088.75,0
2089,0
2089.25,0
2089.5,0
2089.75,0
2090,0
2090.25,0
2090.5,0
2090.75,0
2091,0
2091.25,0
2091.5,0
2091.75,0
2092,0
2092.25,0
2092.5,0
2092.75,0
2093,0
2093.25,0
2093.5,0
2093.75,0
2094,0
2094.25,0
2094.5,0
2094.75,0
2095,0
2095.25,0
2095.5,0
2095.75,0
2096,0
2096.25,0
2096.5,0
2096.75,0
2097,0
2097.25,0
2097.5,0
2097.75,0
2098,0
2098.25,0
2098.5,0
2098.75,0
2099,0
2099.25,0
2099.5,0
2099.75,0
2100,0
2100.25,0
2100.5,0
2100.75,0
2101,0
2101.25,0
2101.5,0
2101.75,0
2102,0
2102.25,0
2102.5,0
2102.75,0
2103,0
2103.25,0
2103.5,0
2103.75,0
2104,0
2104.25,0
2104.5,0
2104.75,0
2105,0
2105.25,0
2105.5,0
2105.75,0
2106,0
2106.25,0
2106.5,0
2106.75,0
2107,0
2107.25,0
2107.5,0
2107.75,0
2108,0
2108.25,0
2108.5,0
2108.75,0
2109,0
2109.25,0
2109.5,0
2109.75,0
2110,0
2110.25,0
2110.5,0
2110.75,0
2111,0
2111.25,0
2111.5,0
2111.75,0
2112,0
2112.25,0
2112.5,0
2112.75,0
2113,0
2113.25,0
2113.5,0
2113.75,0
2114,0
2114.25,0
2114.5,0
2114.75,0
2115,0
2115.25,0
2115.5,0
2115.75,0
2116,0
2116.25,0
2116.5,0
2116.75,0
2117,0
2117.25,0
2117.5,0
2117.75,0
2118,0
2118.25,0
2118.5,0
2118.75,0
2119,0
2119.25,0
2119.5,0
2119.75,0
2120,0
2120.25,0
2120.5,0
2120.75,0
2121,0
2121.25,0
2121.5,0
2121.75,0
2122,0
2122.25,0
2122.5,0
2122.75,0
2123,0
2123.25,0
2123.5,0
2123.75,0
2124,0
2124.25,0
2124.5,0
2124.75,0
2125,0
2125.25,0
2125.5,0
2125.75,0
2126,0
2126.25,0
2126.5,0
2126.75,0
2127,0
2127.25,0
2127.5,0
2127.75,0
2128,0
2128.25,0
2128.5,0
2128.75,0
2129,0
2129.25,0
2129.5,0
2129.75,0
2130,0
2130.25,0
2130.5,0
2130.75,0
2131,0
2131.25,0
2131.5,0
2131.75,0
2132,0
2132.25,0
2132.5,0
2132.75,0
2133,0
2133.25,0
2133.5,0
2133.75,0
2134,0
2134.25,0
2134.5,0
2134.75,0
2135,0
2135.25,0
2135.5,0
2135.75,0
2136,0
2136.25,0
2136.5,0
2136.75,0
2137,0
2137.25,0
2137.5,0
2137.75,0
2138,0
2138.25,0
2138.5,0
2138.75,0
2139,0
2139.25,0
2139.5,0
2139.75,0
2140,0
2140.25,0
2140.5,0
2140.75,0
2141,0
2141.25,0
2141.5,0
2141.75,0
2142,0
2142.25,0
2142.5,0
2142.75,0
2143,0
2143.25,0
2143.5,0
2143.75,0
2144,0
2144.25,0
2144.5,0
2144.75,0
2145,0
2145.25,0
2145.5,0
2145.75,0
2146,0
2146.25,0
2146.5,0
2146.75,0
2147,0
2147.25,0
2147.5,0
2147.75,0
2148,0
2148.25,0
2148.5,0
2148.75,0
2149,0
2149.25,0
2149.5,0
2149.75,0
2150,0
2150.25,0
2150.5,0
2150.75,0
2151,0
2151.25,0
2151.5,0
2151.75,0
2152,0
2152.25,0
2152.5,0
2152.75,0
2153,0
2153.25,0
2153.5,0
2153.75,0
2154,0
2154.25,0
2154.5,0
2154.75,0
2155,0
2155.25,0
2155.5,0
2155.75,0
2156,0
2156.25,0
2156.5,0
2156.75,0
2157,0
2157.25,0
2157.5,0
2157.75,0
2158,0
2158.25,0
2158.5,0
2158.75,0
2159,0
2159.25,0
2159.5,0
2159.75,0
2160,0
2160.25,0
2160.5,0
2160.75,0
2161,0
2161.25,0
2161.5,0
2161.75,0
2162,0
2162.25,0
2162.5,0
2162.75,0
2163,0
2163.25,0
2163.5,0
2163.75,0
2164,0
2164.25,0
2164.5,0
2164.75,0
2165,0
2165.25,0
2165.5,0
2165.75,0
2166,0
2166.25,0
2166.5,0
2166.75,0
2167,0
2167.25,0
2167.5,0
2167.75,0
2168,0
2168.25,0
2168.5,0
2168.75,0
2169,0
2169.25,0
2169.5,0
2169.75,0
2170,0
2170.25,0
2170.5,0
2170.75,0
2171,0
2171.25,0
2171.5,0
2171.75,0
2172,0
2172.25,0
2172.5,0
2172.75,0
2173,0
2173.25,0
2173.5,0
2173.75,0
2174,0
2174.25,0
2174.5,0
2174.75,0
2175,0
2175.25,0
2175.5,0
2175.75,0
2176,0
2176.25,0
2176.5,0
2176.75,0
2177,0
2177.25,0
2177.5,0
2177.75,0
2178,0
2178.25,0
2178.5,0
2178.75,0
2179,0
2179.25,0
2179.5,0
2179.75,0
2180,0
2180.25,0
2180.5,0
2180.75,0
2181,0
2181.25,0
2181.5,0
2181.75,0
2182,0
2182.25,0
2182.5,0
2182.75,0
2183,0
2183.25,0
2183.5,0
2183.75,0
2184,0
2184.25,0
2184.5,0
2184.75,0
2185,0
2185.25,0
2185.5,0
2185.75,0
2186,0
2186.25,0
2186.5,0
2186.75,0
2187,0
2187.25,0
2187.5,0
2187.75,0
2188,0
2188.25,0
2188.5,0
2188.75,0
2189,0
2189.25,0
2189.5,0
2189.75,0
2190,0
2190.25,0
2190.5,0
2190.75,0
2191,0
2191.25,0
2191.5,0
2191.75,0
2192,0
2192.25,0
2192.5,0
2192.75,0
2193,0
2193.25,0
2193.5,0
2193.75,0
2194,0
2194.25,0
2194.5,0
2194.75,0
2195,0
2195.25,0
2195.5,0
2195.75,0
2196,0
2196.25,0
2196.5,0
2196.75,0
2197,0
2197.25,0
2197.5,0
2197.75,0
2198,0
2198.25,0
2198.5,0
2198.75,0
2199,0
2199.25,0
2199.5,0
2199.75,0
2200,0
2200.25,0
2200.5,0
2200.75,0
2201,0
2201.25,0
2201.5,0
2201.75,0
2202,0
2202.25,0
2202.5,0
2202.75,0
2203,0
2203.25,0
2203.5,0
2203.75,0
2204,0
2204.25,0
2204.5,0
2204.75,0
2205,0
2205.25,0
2205.5,0
2205.75,0
2206,0
2206.25,0
2206.5,0
2206.75,0
2207,0
2207.25,0
2207.5,0
2207.75,0
2208,0
2208.25,0
2208.5,0
2208.75,0
2209,0
2209.25,0
2209.5,0
2209.75,0
2210,0
2210.25,0
2210.5,0
2210.75,0
2211,0
2211.25,0
2211.5,0
2211.75,0
2212,0
2212.25,0
2212.5,0
2212.75,0
2213,0
2213.25,0
2213.5,0
2213.75,0
2214,0
2214.25,0
2214.5,0
2214.75,0
2215,0
2215.25,0
2215.5,0
2215.75,0
2216,0
2216.25,0
2216.5,0
2216.75,0
2217,0
2217.25,0
2217.5,0
2217.75,0
2218,0
2218.25,0
2218.5,0
2218.75,0
2219,0
2219.25,0
2219.5,0
2219.75,0
2220,0
2220.25,0
2220.5,0
2220.75,0
2221,0
2221.25,0
2221.5,0
2221.75,0
2222,0
2222.25,0
2222.5,0
2222.75,0
2223,0
2223.25,0
2223.5,0
2223.75,0
2224,0
2224.25,0
2224.5,0
2224.75,0
2225,0
2225.25,0
2225.5,0
2225.75,0
2226,0
2226.25,0
2226.5,0
2226.75,0
2227,0
2227.25,0
2227.5,0
2227.75,0
2228,0
2228.25,0
2228.5,0
2228.75,0
2229,0
2229.25,0
2229.5,0
2229.75,0
2230,0
2230.25,0
2230.5,0
2230.75,0.130367680435846
2231,2.02941443486215
2231.25,3.92846118928846
2231.5,5.82750794371304
2231.75,7.72655469813935
2232,9.62560145256566
2232.25,11.5246482069902
2232.5,13.4236949614166
2232.75,15.3227417158429
2233,17.2217884702674
2233.25,19.1208352246937
2233.5,21.0198819791201
2233.75,22.9189287335464
2234,24.8179754879709
2234.25,26.7170222423973
2234.5,28.6160689968236
2234.75,30.5151157512481
2235,32.4141625056744
2235.25,34.3132092601008
2235.5,36.2122560145253
2235.75,37.9985354898822
2236,37.9735480325871
2236.25,37.948560575292
2236.5,37.923573117997
2236.75,37.8985856607019
2237,37.8735982034068
2237.25,37.8486107461118
2237.5,37.8236232888167
2237.75,37.7986358315216
2238,37.7736483742265
2238.25,37.7486609169315
2238.5,37.7236734596364
2238.75,37.6986860023413
2239,37.6736985450462
2239.25,37.6487110877511
2239.5,37.6237236304561
2239.75,37.598736173161
2240,37.5737487158659
2240.25,37.5487612585708
2240.5,37.5237738012758
2240.75,37.5133502162124
2241,37.7882122464583
2241.25,38.063074276704
2241.5,38.3379363069499
2241.75,38.6127983371958
2242,38.8876603674417
2242.25,39.1625223976874
2242.5,39.4373844279333
2242.75,39.7122464581792
2243,39.9871084884249
2243.25,40.2619705186708
2243.5,40.5368325489167
2243.75,40.8116945791623
2244,41.0865566094083
2244.25,41.3614186396542
2244.5,41.6362806698998
2244.75,41.9111427001458
2245,42.1860047303917
2245.25,42.4608667606376
2245.5,42.7357287908832
2245.75,42.9934529469383
2246,42.8235382373318
2246.25,42.6536235277254
2246.5,42.4837088181188
2246.75,42.3137941085122
2247,42.1438793989058
2247.25,41.9739646892993
2247.5,41.8040499796927
2247.75,41.6341352700861
2248,41.4642205604797
2248.25,41.2943058508732
2248.5,41.1243911412666
2248.75,40.9544764316602
2249,40.7845617220536
2249.25,40.6146470124471
2249.5,40.4447323028406
2249.75,40.2748175932341
2250,40.1049028836275
2250.25,39.9349881740211
2250.5,39.7650734644145
2250.75,39.5967250400172
2251,39.4817827364598
2251.25,39.3668404329025
2251.5,39.2518981293451
2251.75,39.1369558257877
2252,39.0220135222305
2252.25,38.9070712186731
2252.5,38.7921289151157
2252.75,38.6771866115584
2253,38.562244308001
2253.25,38.4473020044437
2253.5,38.3323597008863
2253.75,38.217417397329
2254,38.1024750937716
2254.25,37.9875327902142
2254.5,37.872590486657
2254.75,37.7576481830996
2255,37.6427058795422
2255.25,37.5277635759849
2255.5,37.4128212724275
2255.75,37.2969567814224
2256,37.1320395632748
2256.25,36.9671223451275
2256.5,36.8022051269799
2256.75,36.6372879088323
2257,36.472370690685
2257.25,36.3074534725374
2257.5,36.1425362543899
2257.75,35.9776190362425
2258,35.8127018180949
2258.25,35.6477845999474
2258.5,35.4828673818
2258.75,35.3179501636524
2259,35.1530329455049
2259.25,34.9881157273573
2259.5,34.8231985092099
2259.75,34.6582812910624
2260,34.4933640729148
2260.25,34.3284468547674
2260.5,34.1635296366199
2260.75,34.0011773419023
2261,34.1411071027546
2261.25,34.2810368636071
2261.5,34.4209666244595
2261.75,34.560896385312
2262,34.7008261461643
2262.25,34.8407559070168
2262.5,34.9806856678693
2262.75,35.1206154287216
2263,35.2605451895741
2263.25,35.4004749504265
2263.5,35.5404047112789
2263.75,35.6803344721313
2264,35.8202642329838
2264.25,35.9601939938361
2264.5,36.1001237546886
2264.75,36.2400535155411
2265,36.3799832763935
2265.25,36.5199130372459
2265.5,36.6598427980983
2265.75,36.7997725589508
2266,36.6004252574241
2266.25,36.4005255990634
2266.5,36.2006259407028
2266.75,36.0007262823423
2267,35.8008266239816
2267.25,35.600926965621
2267.5,35.4010273072603
2267.75,35.2011276488998
2268,35.0012279905391
2268.25,34.8013283321785
2268.5,34.601428673818
2268.75,34.4015290154573
2269,34.2016293570967
2269.25,34.0017296987362
2269.5,33.8018300403755
2269.75,33.6019303820149
2270,33.4020307236544
2270.25,33.2021310652937
2270.5,33.0022314069331
2270.75,32.8023317485724
2271,32.8444527797023
2271.25,32.8894302028335
2271.5,32.9344076259646
2271.75,32.9793850490957
2272,33.0243624722269
2272.25,33.069339895358
2272.5,33.1143173184891
2272.75,33.1592947416203
2273,33.2042721647514
2273.25,33.2492495878826
2273.5,33.2942270110137
2273.75,33.3392044341448
2274,33.384181857276
2274.25,33.4291592804071
2274.5,33.4741367035383
2274.75,33.5191141266694
2275,33.5640915498005
2275.25,33.6090689729317
2275.5,33.6540463960628
2275.75,33.6990238191939
2276,33.5826633537998
2276.25,33.4627235587834
2276.5,33.342783763767
2276.75,33.2228439687508
2277,33.1029041737344
2277.25,32.982964378718
2277.5,32.8630245837017
2277.75,32.7430847886853
2278,32.6231449936689
2278.25,32.5032051986526
2278.5,32.3832654036362
2278.75,32.2633256086198
2279,32.1433858136034
2279.25,32.0234460185871
2279.5,31.9035062235707
2279.75,31.7835664285543
2280,31.663626633538
2280.25,31.5436868385216
2280.5,31.4237470435052
2280.75,31.3038072484889
2281,31.4112936904222
2281.25,31.5262359939796
2281.5,31.6411782975369
2281.75,31.7561206010942
2282,31.8710629046516
2282.25,31.986005208209
2282.5,32.1009475117663
2282.75,32.2158898153236
2283,32.330832118881
2283.25,32.4457744224383
2283.5,32.5607167259957
2283.75,32.6756590295531
2284,32.7906013331103
2284.25,32.9055436366677
2284.5,33.0204859402251
2284.75,33.1354282437825
2285,33.2503705473398
2285.25,33.3653128508971
2285.5,33.4802551544545
2285.75,33.5951974580118
2286,33.4994376090021
2286.25,33.3944902883627
2286.5,33.2895429677235
2286.75,33.1845956470841
2287,33.0796483264448
2287.25,32.9747010058054
2287.5,32.8697536851662
2287.75,32.7648063645268
2288,32.6598590438875
2288.25,32.5549117232482
2288.5,32.4499644026089
2288.75,32.3450170819695
2289,32.2400697613303
2289.25,32.1351224406909
2289.5,32.0301751200516
2289.75,31.9252277994123
2290,31.820280478773
2290.25,31.7153331581336
2290.5,31.6103858374943
2290.75,31.505438516855
2291,31.5758162314547
2291.25,31.655776094799
2291.5,31.7357359581432
2291.75,31.8156958214875
2292,31.8956556848317
2292.25,31.9756155481759
2292.5,32.0555754115202
2292.75,32.1355352748645
2293,32.2154951382087
2293.25,32.2954550015529
2293.5,32.3754148648972
2293.75,32.4553747282414
2294,32.5353345915856
2294.25,32.6152944549299
2294.5,32.6952543182742
2294.75,32.7752141816184
2295,32.8551740449626
2295.25,32.9351339083069
2295.5,33.0150937716511
2295.75,33.0950536349953
2296,33.1187533745849
2296.25,33.138743340421
2296.5,33.158733306257
2296.75,33.1787232720931
2297,33.1987132379292
2297.25,33.2187032037652
2297.5,33.2386931696013
2297.75,33.2586831354373
2298,33.2786731012734
2298.25,33.2986630671094
2298.5,33.3186530329455
2298.75,33.3386429987816
2299,33.3586329646176
2299.25,33.3786229304537
2299.5,33.3986128962898
2299.75,33.4186028621258
2300,33.4385928279619
2300.25,33.4585827937979
2300.5,33.478572759634
2300.75,33.4985627254701
2301,33.4675327902143
2301.25,33.4325503500012
2301.5,33.3975679097881
2301.75,33.362585469575
2302,33.3276030293619
2302.25,33.2926205891488
2302.5,33.2576381489357
2302.75,33.2226557087225
2303,33.1876732685095
2303.25,33.1526908282963
2303.5,33.1177083880832
2303.75,33.0827259478701
2304,33.047743507657
2304.25,33.0127610674439
2304.5,32.9777786272308
2304.75,32.9427961870177
2305,32.9078137468046
2305.25,32.8728313065915
2305.5,32.8378488663784
2305.75,32.8028664261653
2306,32.7908239959863
2306.25,32.7808290130683
2306.5,32.7708340301503
2306.75,32.7608390472322
2307,32.7508440643142
2307.25,32.7408490813962
2307.5,32.7308540984781
2307.75,32.7208591155601
2308,32.7108641326421
2308.25,32.7008691497241
2308.5,32.690874166806
2308.75,32.680879183888
2309,32.67088420097
2309.25,32.6608892180519
2309.5,32.6508942351339
2309.75,32.6408992522159
2310,32.6309042692978
2310.25,32.6209092863798
2310.5,32.6109143034618
2310.75,32.6009193205438
2311,32.4910920515086
2311.25,32.3711522564924
2311.5,32.251212461476
2311.75,32.1312726664596
2312,32.0113328714433
2312.25,31.8913930764269
2312.5,31.7714532814105
2312.75,31.6515134863941
2313,31.5315736913778
2313.25,31.4116338963614
2313.5,31.291694101345
2313.75,31.1717543063287
2314,31.0518145113123
2314.25,30.9318747162959
2314.5,30.8119349212796
2314.75,30.6919951262632
2315,30.5720553312468
2315.25,30.4521155362305
2315.5,30.3321757412141
2315.75,30.2122359461977
2316,30.3525804524931
2316.25,30.5224951620995
2316.5,30.6924098717061
2316.75,30.8623245813127
2317,31.0322392909191
2317.25,31.2021540005256
2317.5,31.3720687101322
2317.75,31.5419834197386
2318,31.7118981293452
2318.25,31.8818128389517
2318.5,32.0517275485583
2318.75,32.2216422581647
2319,32.3915569677713
2319.25,32.5614716773778
2319.5,32.7313863869842
2319.75,32.9013010965908
2320,33.0712158061974
2320.25,33.2411305158038
2320.5,33.4110452254104
2320.75,33.5809599350169
2321,33.6133124686432
2321.25,33.6283049430203
2321.5,33.6432974173973
2321.75,33.6582898917744
2322,33.6732823661514
2322.25,33.6882748405285
2322.5,33.7032673149055
2322.75,33.7182597892826
2323,33.7332522636596
2323.25,33.7482447380367
2323.5,33.7632372124137
2323.75,33.7782296867908
2324,33.7932221611678
2324.25,33.8082146355448
2324.5,33.8232071099219
2324.75,33.8381995842989
2325,33.853192058676
2325.25,33.868184533053
2325.5,33.8831770074301
2325.75,33.8981694818071
2326,34.1018166614903
2326.25,34.331701268605
2326.5,34.5615858757198
2326.75,34.7914704828346
2327,35.0213550899493
2327.25,35.2512396970637
2327.5,35.4811243041784
2327.75,35.7110089112932
2328,35.940893518408
2328.25,36.1707781255227
2328.5,36.4006627326375
2328.75,36.6305473397523
2329,36.8604319468666
2329.25,37.0903165539814
2329.5,37.3202011610961
2329.75,37.5500857682109
2330,37.7799703753257
2330.25,38.0098549824404
2330.5,38.2397395895548
2330.75,38.4696241966695
2331,38.3612112669327
2331.25,38.2012915402441
2331.5,38.0413718135556
2331.75,37.8814520868671
2332,37.7215323601785
2332.25,37.5616126334903
2332.5,37.4016929068018
2332.75,37.2417731801132
2333,37.0818534534247
2333.25,36.9219337267362
2333.5,36.7620140000476
2333.75,36.6020942733594
2334,36.4421745466709
2334.25,36.2822548199823
2334.5,36.1223350932938
2334.75,35.9624153666053
2335,35.8024956399167
2335.25,35.6425759132282
2335.5,35.48265618654
2335.75,35.3227364598514
2336,35.2099734811382
2336.25,35.1050261604988
2336.5,35.0000788398595
2336.75,34.8951315192201
2337,34.7901841985808
2337.25,34.6852368779416
2337.5,34.5802895573023
2337.75,34.4753422366629
2338,34.3703949160236
2338.25,34.2654475953842
2338.5,34.1605002747449
2338.75,34.0555529541057
2339,33.9506056334664
2339.25,33.845658312827
2339.5,33.7407109921877
2339.75,33.6357636715483
2340,33.530816350909
2340.25,33.4258690302696
2340.5,33.3209217096305
2340.75,33.2159743889911
2341,33.2635520940345
2341.25,33.3385144659197
2341.5,33.413476837805
2341.75,33.4884392096902
2342,33.5634015815753
2342.25,33.6383639534606
2342.5,33.7133263253458
2342.75,33.7882886972311
2343,33.8632510691163
2343.25,33.9382134410016
2343.5,34.0131758128868
2343.75,34.0881381847719
2344,34.1631005566572
2344.25,34.2380629285424
2344.5,34.3130253004277
2344.75,34.3879876723129
2345,34.4629500441982
2345.25,34.5379124160833
2345.5,34.6128747879685
2345.75,34.6878371598538
2346,34.7502396253912
2346.25,34.8102095228994
2346.5,34.8701794204076
2346.75,34.9301493179158
2347,34.9901192154239
2347.25,35.0500891129321
2347.5,35.1100590104403
2347.75,35.1700289079485
2348,35.2299988054567
2348.25,35.2899687029649
2348.5,35.3499386004731
2348.75,35.4099084979812
2349,35.4698783954894
2349.25,35.5298482929976
2349.5,35.5898181905058
2349.75,35.649788088014
2350,35.7097579855222
2350.25,35.7697278830303
2350.5,35.8296977805385
2350.75,35.8896676780467
2351,36.0985503022195
2351.25,36.3384298922523
2351.5,36.5783094822851
2351.75,36.8181890723179
2352,37.0580686623503
2352.25,37.2979482523831
2352.5,37.5378278424159
2352.75,37.7777074324487
2353,38.0175870224815
2353.25,38.2574666125143
2353.5,38.4973462025466
2353.75,38.7372257925794
2354,38.9771053826122
2354.25,39.216984972645
2354.5,39.4568645626778
2354.75,39.6967441527106
2355,39.9366237427434
2355.25,40.1765033327758
2355.5,40.4163829228086
2355.75,40.6562625128414
2356,40.8511928709655
2356.25,41.0361000549491
2356.5,41.2210072389327
2356.75,41.4059144229163
2357,41.5908216068996
2357.25,41.7757287908832
2357.5,41.9606359748668
2357.75,42.1455431588505
2358,42.3304503428341
2358.25,42.5153575268177
2358.5,42.700264710801
2358.75,42.8851718947846
2359,43.0700790787682
2359.25,43.2549862627518
2359.5,43.4398934467354
2359.75,43.624800630719
2360,43.8097078147026
2360.25,43.9946149986859
2360.5,44.1795221826695
2360.75,44.3644293666531
2361,44.2506634493632
2361.25,44.0657562653796
2361.5,43.880849081396
2361.75,43.6959418974127
2362,43.5110347134291
2362.25,43.3261275294455
2362.5,43.1412203454619
2362.75,42.9563131614783
2363,42.7714059774947
2363.25,42.586498793511
2363.5,42.4015916095278
2363.75,42.2166844255442
2364,42.0317772415605
2364.25,41.8468700575769
2364.5,41.6619628735933
2364.75,41.4770556896097
2365,41.2921485056264
2365.25,41.1072413216428
2365.5,40.9223341376592
2365.75,40.7374269536756
2366,40.5206321523281
2366.25,40.2957450366723
2366.5,40.0708579210166
2366.75,39.8459708053612
2367,39.6210836897055
2367.25,39.3961965740497
2367.5,39.171309458394
2367.75,38.9464223427382
2368,38.7215352270825
2368.25,38.4966481114268
2368.5,38.2717609957714
2368.75,38.0468738801157
2369,37.8219867644599
2369.25,37.5970996488042
2369.5,37.3722125331484
2369.75,37.1473254174927
2370,36.9224383018373
2370.25,36.6975511861816
2370.5,36.4726640705258
2370.75,36.2477769548701
2371,36.085862340827
2371.25,35.9409350885155
2371.5,35.7960078362041
2371.75,35.6510805838928
2372,35.5061533315814
2372.25,35.3612260792699
2372.5,35.2162988269584
2372.75,35.0713715746469
2373,34.9264443223354
2373.25,34.7815170700242
2373.5,34.6365898177127
2373.75,34.4916625654013
2374,34.3467353130898
2374.25,34.2018080607783
2374.5,34.0568808084668
2374.75,33.9119535561553
2375,33.7670263038441
2375.25,33.6220990515326
2375.5,33.4771717992211
2375.75,33.3322445469097
2376,33.2844575578756
2376.25,33.2644675920395
2376.5,33.2444776262035
2376.75,33.2244876603674
2377,33.2044976945314
2377.25,33.1845077286953
2377.5,33.1645177628592
2377.75,33.1445277970232
2378,33.1245378311871
2378.25,33.1045478653511
2378.5,33.084557899515
2378.75,33.064567933679
2379,33.0445779678429
2379.25,33.0245880020068
2379.5,33.0045980361708
2379.75,32.9846080703347
2380,32.9646181044987
2380.25,32.9446281386626
2380.5,32.9246381728265
2380.75,32.9046482069905
2381,32.7887722483693
2381.25,32.6438449960579
2381.5,32.4989177437467
2381.75,32.3539904914352
2382,32.2090632391237
2382.25,32.0641359868122
2382.5,31.9192087345007
2382.75,31.7742814821892
2383,31.6293542298778
2383.25,31.4844269775665
2383.5,31.3394997252551
2383.75,31.1945724729436
2384,31.0496452206321
2384.25,30.9047179683206
2384.5,30.7597907160091
2384.75,30.6148634636979
2385,30.4699362113864
2385.25,30.325008959075
2385.5,30.1800817067635
2385.75,30.035154454452
2386,29.9848589244332
2386.25,29.9648689585971
2386.5,29.9448789927611
2386.75,29.924889026925
2387,29.9048990610889
2387.25,29.8849090952529
2387.5,29.8649191294168
2387.75,29.8449291635807
2388,29.8249391977447
2388.25,29.8049492319087
2388.5,29.7849592660726
2388.75,29.7649693002365
2389,29.7449793344005
2389.25,29.7249893685644
2389.5,29.7049994027283
2389.75,29.6850094368923
2390,29.6650194710562
2390.25,29.6450295052202
2390.5,29.6250395393841
2390.75,29.605049573548
2391,29.5626490192799
2391.25,29.5126741046897
2391.5,29.4626991900996
2391.75,29.4127242755095
2392,29.3627493609193
2392.25,29.3127744463292
2392.5,29.262799531739
2392.75,29.2128246171488
2393,29.1628497025587
2393.25,29.1128747879686
2393.5,29.0628998733784
2393.75,29.0129249587882
2394,28.9629500441981
2394.25,28.9129751296079
2394.5,28.8630002150177
2394.75,28.8130253004277
2395,28.7630503858375
2395.25,28.7130754712473
2395.5,28.6631005566572
2395.75,28.613125642067
2396,28.6589588360371
2396.25,28.7389186993812
2396.5,28.8188785627254
2396.75,28.8988384260697
2397,28.978798289414
2397.25,29.0587581527582
2397.5,29.1387180161025
2397.75,29.2186778794468
2398,29.2986377427909
2398.25,29.3785976061352
2398.5,29.4585574694794
2398.75,29.5385173328237
2399,29.618477196168
2399.25,29.6984370595122
2399.5,29.7783969228565
2399.75,29.8583567862006
2400,29.9383166495449
2400.25,30.0182765128891
2400.5,30.0982363762334
2400.75,30.1781962395777
2401,30.3526597701701
2401.25,30.5625544114484
2401.5,30.7724490527271
2401.75,30.9823436940058
2402,31.1922383352845
2402.25,31.4021329765632
2402.5,31.6120276178419
2402.75,31.8219222591206
2403,32.0318169003989
2403.25,32.2417115416776
2403.5,32.4516061829563
2403.75,32.661500824235
2404,32.8713954655137
2404.25,33.0812901067924
2404.5,33.2911847480707
2404.75,33.5010793893494
2405,33.7109740306281
2405.25,33.9208686719068
2405.5,34.1307633131855
2405.75,34.3406579544642
2406,34.4071691712259
2406.25,34.4171641541439
2406.5,34.4271591370619
2406.75,34.4371541199799
2407,34.447149102898
2407.25,34.457144085816
2407.5,34.467139068734
2407.75,34.4771340516521
2408,34.4871290345701
2408.25,34.4971240174881
2408.5,34.5071190004061
2408.75,34.5171139833242
2409,34.5271089662422
2409.25,34.5371039491602
2409.5,34.5470989320783
2409.75,34.5570939149963
2410,34.5670888979143
2410.25,34.5770838808324
2410.5,34.5870788637504
2410.75,34.5970738466684
2411,34.6282753183458
2411.25,34.6682552500179
2411.5,34.70823518169
2411.75,34.7482151133622
2412,34.7881950450343
2412.25,34.8281749767064
2412.5,34.8681549083786
2412.75,34.9081348400506
2413,34.9481147717228
2413.25,34.9880947033949
2413.5,35.028074635067
2413.75,35.0680545667392
2414,35.1080344984113
2414.25,35.1480144300834
2414.5,35.1879943617555
2414.75,35.2279742934276
2415,35.2679542250998
2415.25,35.3079341567719
2415.5,35.347914088444
2415.75,35.3878940201161
2416,35.3128939006619
2416.25,35.1879566141864
2416.5,35.063019327711
2416.75,34.9380820412356
2417,34.8131447547602
2417.25,34.6882074682848
2417.5,34.5632701818094
2417.75,34.4383328953342
2418,34.3133956088588
2418.25,34.1884583223833
2418.5,34.0635210359079
2418.75,33.9385837494325
2419,33.8136464629571
2419.25,33.6887091764817
2419.5,33.5637718900065
2419.75,33.4388346035311
2420,33.3138973170557
2420.25,33.1889600305803
2420.5,33.0640227441048
2420.75,32.9390854576294
2421,32.9309066583845
2421.25,32.9758840815156
2421.5,33.0208615046468
2421.75,33.0658389277779
2422,33.1108163509091
2422.25,33.1557937740402
2422.5,33.2007711971714
2422.75,33.2457486203024
2423,33.2907260434336
2423.25,33.3357034665647
2423.5,33.3806808896959
2423.75,33.425658312827
2424,33.4706357359582
2424.25,33.5156131590892
2424.5,33.5605905822204
2424.75,33.6055680053516
2425,33.6505454284827
2425.25,33.6955228516138
2425.5,33.740500274745
2425.75,33.7854776978761
2426,34.0131858470505
2426.25,34.3280278089686
2426.5,34.6428697708866
2426.75,34.9577117328047
2427,35.2725536947227
2427.25,35.5873956566407
2427.5,35.9022376185582
2427.75,36.2170795804763
2428,36.5319215423943
2428.25,36.8467635043124
2428.5,37.1616054662304
2428.75,37.4764474281484
2429,37.7912893900665
2429.25,38.106131351984
2429.5,38.420973313902
2429.75,38.7358152758201
2430,39.0506572377381
2430.25,39.3654991996561
2430.5,39.6803411615742
2430.75,39.9951831234922
2431,40.0633289533412
2431.25,40.008356547292
2431.5,39.9533841412428
2431.75,39.8984117351936
2432,39.8434393291444
2432.25,39.7884669230953
2432.5,39.7334945170462
2432.75,39.678522110997
2433,39.6235497049478
2433.25,39.5685772988986
2433.5,39.5136048928494
2433.75,39.4586324868003
2434,39.4036600807511
2434.25,39.348687674702
2434.5,39.2937152686528
2434.75,39.2387428626036
2435,39.1837704565544
2435.25,39.1287980505053
2435.5,39.0738256444561
2435.75,39.018853238407
2436,38.8916424970734
2436.25,38.7267252789259
2436.5,38.5618080607783
2436.75,38.3968908426308
2437,38.2319736244832
2437.25,38.0670564063357
2437.5,37.9021391881884
2437.75,37.7372219700409
2438,37.5723047518933
2438.25,37.4073875337458
2438.5,37.2424703155982
2438.75,37.0775530974507
2439,36.9126358793032
2439.25,36.7477186611559
2439.5,36.5828014430084
2439.75,36.4178842248608
2440,36.2529670067133
2440.25,36.0880497885657
2440.5,35.9231325704182
2440.75,35.7582153522709
2441,35.6417989822491
2441.25,35.5518441359868
2441.5,35.4618892897245
2441.75,35.3719344434622
2442,35.2819795971999
2442.25,35.1920247509376
2442.5,35.1020699046755
2442.75,35.0121150584132
2443,34.9221602121509
2443.25,34.8322053658886
2443.5,34.7422505196263
2443.75,34.652295673364
2444,34.5623408271018
2444.25,34.4723859808396
2444.5,34.3824311345773
2444.75,34.292476288315
2445,34.2025214420527
2445.25,34.1125665957904
2445.5,34.0226117495281
2445.75,33.9326569032659
2446,33.8745342475572
2446.25,33.834554315885
2446.5,33.7945743842129
2446.75,33.7545944525408
2447,33.7146145208686
2447.25,33.6746345891966
2447.5,33.6346546575244
2447.75,33.5946747258523
2448,33.5546947941802
2448.25,33.514714862508
2448.5,33.4747349308359
2448.75,33.4347549991638
2449,33.3947750674917
2449.25,33.3547951358196
2449.5,33.3148152041475
2449.75,33.2748352724753
2450,33.2348553408032
2450.25,33.1948754091311
2450.5,33.1548954774589
2450.75,33.1149155457869
2451,33.1
2451.25,33.1
2451.5,33.1
2451.75,33.1
2452,33.1
2452.25,33.1
2452.5,33.1
2452.75,33.1
2453,33.1
2453.25,33.1
2453.5,33.1
2453.75,33.1
2454,33.1
2454.25,33.1
2454.5,33.1
2454.75,33.1
2455,33.1
2455.25,33.1
2455.5,33.1
2455.75,33.1
2456,33.1339116515756
2456.25,33.1888840576248
2456.5,33.243856463674
2456.75,33.2988288697232
2457,33.3538012757723
2457.25,33.4087736818214
2457.5,33.4637460878706
2457.75,33.5187184939198
2458,33.573690899969
2458.25,33.6286633060181
2458.5,33.6836357120673
2458.75,33.7386081181165
2459,33.7935805241656
2459.25,33.8485529302148
2459.5,33.903525336264
2459.75,33.9584977423131
2460,34.0134701483623
2460.25,34.0684425544115
2460.5,34.1234149604606
2460.75,34.1783873665098
2461,34.2
2461.25,34.2
2461.5,34.2
2461.75,34.2
2462,34.2
2462.25,34.2
2462.5,34.2
2462.75,34.2
2463,34.2
2463.25,34.2
2463.5,34.2
2463.75,34.2
2464,34.2
2464.25,34.2
2464.5,34.2
2464.75,34.2
2465,34.2
2465.25,34.2
2465.5,34.2
2465.75,34.2
2466,34.2477205724252
2466.25,34.3276804357694
2466.5,34.4076402991137
2466.75,34.487600162458
2467,34.5675600258021
2467.25,34.6475198891464
2467.5,34.7274797524906
2467.75,34.8074396158349
2468,34.8873994791792
2468.25,34.9673593425234
2468.5,35.0473192058677
2468.75,35.1272790692118
2469,35.2072389325561
2469.25,35.2871987959003
2469.5,35.3671586592446
2469.75,35.4471185225889
2470,35.5270783859331
2470.25,35.6070382492774
2470.5,35.6869981126215
2470.75,35.7669579759658
2471,35.7413527008624
2471.25,35.6414028716821
2471.5,35.5414530425018
2471.75,35.4415032133214
2472,35.3415533841413
2472.25,35.241603554961
2472.5,35.1416537257806
2472.75,35.0417038966003
2473,34.94175406742
2473.25,34.8418042382396
2473.5,34.7418544090593
2473.75,34.6419045798792
2474,34.5419547506988
2474.25,34.4420049215185
2474.5,34.3420550923382
2474.75,34.2421052631578
2475,34.1421554339775
2475.25,34.0422056047973
2475.5,33.942255775617
2475.75,33.8423059464367
2476,33.7567670879423
2476.25,33.681804716057
2476.5,33.6068423441718
2476.75,33.5318799722865
2477,33.4569176004014
2477.25,33.3819552285161
2477.5,33.3069928566309
2477.75,33.2320304847457
2478,33.1570681128604
2478.25,33.0821057409752
2478.5,33.00714336909
2478.75,32.9321809972048
2479,32.8572186253195
2479.25,32.7822562534343
2479.5,32.707293881549
2479.75,32.6323315096638
2480,32.5573691377786
2480.25,32.4824067658934
2480.5,32.4074443940082
2480.75,32.3324820221229
2481,32.28867190673
2481.25,32.268681940894
2481.5,32.2486919750579
2481.75,32.2287020092218
2482,32.2087120433858
2482.25,32.1887220775498
2482.5,32.1687321117137
2482.75,32.1487421458776
2483,32.1287521800416
2483.25,32.1087622142055
2483.5,32.0887722483695
2483.75,32.0687822825334
2484,32.0487923166973
2484.25,32.0288023508613
2484.5,32.0088123850252
2484.75,31.9888224191891
2485,31.9688324533531
2485.25,31.948842487517
2485.5,31.928852521681
2485.75,31.9088625558449
2486,31.8805270325155
2486.25,31.8455445923023
2486.5,31.8105621520892
2486.75,31.7755797118762
2487,31.7405972716631
2487.25,31.7056148314499
2487.5,31.6706323912368
2487.75,31.6356499510237
2488,31.6006675108106
2488.25,31.5656850705975
2488.5,31.5307026303844
2488.75,31.4957201901713
2489,31.4607377499582
2489.25,31.4257553097451
2489.5,31.390772869532
2489.75,31.3557904293188
2490,31.3208079891057
2490.25,31.2858255488927
2490.5,31.2508431086796
2490.75,31.2158606684664
2491,31.1344396397257
2491.25,31.0144998447093
2491.5,30.8945600496929
2491.75,30.7746202546767
2492,30.6546804596603
2492.25,30.5347406646439
2492.5,30.4148008696275
2492.75,30.2948610746111
2493,30.1749212795947
2493.25,30.0549814845783
2493.5,29.9350416895621
2493.75,29.8151018945457
2494,29.6951620995293
2494.25,29.5752223045129
2494.5,29.4552825094965
2494.75,29.3353427144801
2495,29.215402919464
2495.25,29.0954631244476
2495.5,28.9755233294312
2495.75,28.8555835344148
2496,28.7892739565664
2496.25,28.7692839907303
2496.5,28.7492940248943
2496.75,28.7293040590582
2497,28.7093140932222
2497.25,28.6893241273861
2497.5,28.66933416155
2497.75,28.649344195714
2498,28.6293542298779
2498.25,28.6093642640419
2498.5,28.5893742982058
2498.75,28.5693843323697
2499,28.5493943665337
2499.25,28.5294044006976
2499.5,28.5094144348615
2499.75,28.4894244690255
2500,28.4694345031894
2500.25,28.4494445373534
2500.5,28.4294545715173
2500.75,28.4094646056812
2501,28.4105253601548
2501.25,28.4305153259909
2501.5,28.450505291827
2501.75,28.470495257663
2502,28.4904852234991
2502.25,28.5104751893351
2502.5,28.5304651551712
2502.75,28.5504551210073
2503,28.5704450868433
2503.25,28.5904350526794
2503.5,28.6104250185154
2503.75,28.6304149843515
2504,28.6504049501876
2504.25,28.6703949160236
2504.5,28.6903848818597
2504.75,28.7103748476958
2505,28.7303648135318
2505.25,28.7503547793678
2505.5,28.7703447452039
2505.75,28.79033471104
2506,28.797418830781
2506.25,28.792421339322
2506.5,28.787423847863
2506.75,28.7824263564039
2507,28.7774288649449
2507.25,28.7724313734859
2507.5,28.7674338820269
2507.75,28.7624363905679
2508,28.7574388991089
2508.25,28.7524414076499
2508.5,28.7474439161908
2508.75,28.7424464247318
2509,28.7374489332728
2509.25,28.7324514418138
2509.5,28.7274539503548
2509.75,28.7224564588958
2510,28.7174589674368
2510.25,28.7124614759777
2510.5,28.7074639845187
2510.75,28.7024664930597
2511,28.7
