3529,38.9339747749448
3529.25,38.7440218507026
3529.5,38.5540689264603
3529.75,38.364116002218
3530,38.1741630779758
3530.25,37.9842101537335
3530.5,37.7942572294913
3530.75,37.604304305249
3531,37.4143513810067
3531.25,37.2243984567648
3531.5,37.0344455325225
3531.75,36.8444926082803
3532,36.654539684038
3532.25,36.4645867597958
3532.5,36.2746338355535
3532.75,36.0846809113112
3533,35.894727987069
3533.25,35.7047750628267
3533.5,35.5148221385845
3533.75,35.3709562631995
3534,35.2309909506
3534.25,35.0910256380004
3534.5,34.9510603254008
3534.75,34.8110950128013
3535,34.6711297002017
3535.25,34.5311643876021
3535.5,34.3911990750026
3535.75,34.251233762403
3536,34.1112684498035
3536.25,33.9713031372039
3536.5,33.8313378246046
3536.75,33.691372512005
3537,33.5514071994055
3537.25,33.4114418868059
3537.5,33.2714765742064
3537.75,33.1315112616068
3538,32.9915459490072
3538.25,32.8515806364077
3538.5,32.7116153238081
3538.75,32.7916785634225
3539,32.8916537867079
3539.25,32.9916290099933
3539.5,33.0916042332787
3539.75,33.1915794565641
3540,33.2915546798495
3540.25,33.3915299031349
3540.5,33.4915051264203
3540.75,33.5914803497057
3541,33.6914555729911
3541.25,33.7914307962765
3541.5,33.8914060195619
3541.75,33.9913812428473
3542,34.0913564661325
3542.25,34.1913316894179
3542.5,34.2913069127033
3542.75,34.3912821359887
3543,34.4912573592741
3543.25,34.5912325825595
3543.5,34.6912078058449
3543.75,34.8686886038911
3544,35.053642766969
3544.25,35.238596930047
3544.5,35.423551093125
3544.75,35.608505256203
3545,35.793459419281
3545.25,35.978413582359
3545.5,36.163367745437
3545.75,36.348321908515
3546,36.533276071593
3546.25,36.718230234671
3546.5,36.903184397749
3546.75,37.0881385608269
3547,37.2730927239049
3547.25,37.4580468869829
3547.5,37.6430010500606
3547.75,37.8279552131386
3548,38.0129093762166
3548.25,38.1978635392946
3548.5,38.3828177023725
3548.75,38.4634812463867
3549,38.5334639026865
3549.25,38.6034465589862
3549.5,38.673429215286
3549.75,38.7434118715858
3550,38.8133945278856
3550.25,38.8833771841854
3550.5,38.9533598404852
3550.75,39.0233424967849
3551,39.0933251530847
3551.25,39.1633078093845
3551.5,39.2332904656843
3551.75,39.3032731219841
3552,39.3732557782838
3552.25,39.4432384345836
3552.5,39.5132210908834
3552.75,39.5832037471832
3553,39.6531864034828
3553.25,39.7231690597826
3553.5,39.7931517160824
3553.75,39.7188272355086
3554,39.6288495345518
3554.25,39.5388718335949
3554.5,39.4488941326381
3554.75,39.3589164316812
3555,39.2689387307243
3555.25,39.1789610297675
3555.5,39.0889833288106
3555.75,38.9990056278537
3556,38.9090279268969
3556.25,38.81905022594
3556.5,38.7290725249832
3556.75,38.6390948240263
3557,38.5491171230694
3557.25,38.4591394221126
3557.5,38.3691617211557
3557.75,38.2791840201989
3558,38.189206319242
3558.25,38.0992286182853
3558.5,38.0092509173284
3558.75,38.0672723196903
3559,38.1422537371544
3559.25,38.2172351546185
3559.5,38.2922165720825
3559.75,38.3671979895465
3560,38.4421794070106
3560.25,38.5171608244747
3560.5,38.5921422419387
3560.75,38.6671236594027
3561,38.7421050768668
3561.25,38.8170864943309
3561.5,38.8920679117949
3561.75,38.967049329259
3562,39.042030746723
3562.25,39.1170121641871
3562.5,39.1919935816511
3562.75,39.2669749991152
3563,39.3419564165792
3563.25,39.4169378340433
3563.5,39.4919192515073
3563.75,39.3126781268806
3564,39.1027301579812
3564.25,38.8927821890819
3564.5,38.6828342201826
3564.75,38.4728862512832
3565,38.2629382823839
3565.25,38.0529903134845
3565.5,37.8430423445852
3565.75,37.6330943756859
3566,37.4231464067865
3566.25,37.2131984378872
3566.5,37.0032504689878
3566.75,36.7933025000885
3567,36.5833545311891
3567.25,36.3734065622898
3567.5,36.1634585933905
3567.75,35.9535106244911
3568,35.7435626555918
3568.25,35.5336146866924
3568.5,35.3236667177931
3568.75,35.7036093773969
3569,36.1584966433454
3569.25,36.6133839092932
3569.5,37.0682711752418
3569.75,37.5231584411903
3570,37.9780457071389
3570.25,38.4329329730875
3570.5,38.8878202390361
3570.75,39.3427075049846
3571,39.7975947709332
3571.25,40.2524820368818
3571.5,40.7073693028303
3571.75,41.1622565687789
3572,41.6171438347275
3572.25,42.0720311006761
3572.5,42.5269183666246
3572.75,42.9818056325732
3573,43.4366928985218
3573.25,43.8915801644704
3573.5,44.3464674304189
3573.75,44.0383397241524
3574,43.6284413086822
3574.25,43.2185428932121
3574.5,42.8086444777419
3574.75,42.3987460622725
3575,41.9888476468024
3575.25,41.5789492313322
3575.5,41.1690508158621
3575.75,40.759152400392
3576,40.3492539849218
3576.25,39.9393555694517
3576.5,39.5294571539815
3576.75,39.1195587385114
3577,38.7096603230412
3577.25,38.2997619075711
3577.5,37.889863492101
3577.75,37.4799650766308
3578,37.0700666611607
3578.25,36.6601682456905
3578.5,36.2502698302204
3578.75,36.2131571433628
3579,36.2281534268556
3579.25,36.2431497103484
3579.5,36.2581459938412
3579.75,36.273142277334
3580,36.2881385608268
3580.25,36.3031348443196
3580.5,36.3181311278124
3580.75,36.3331274113052
3581,36.3481236947981
3581.25,36.3631199782909
3581.5,36.3781162617837
3581.75,36.3931125452765
3582,36.4081088287693
3582.25,36.4231051122621
3582.5,36.4381013957549
3582.75,36.4530976792477
3583,36.4680939627405
3583.25,36.4830902462334
3583.5,36.4980865297262
3583.75,36.4215031206862
3584,36.3315254197293
3584.25,36.2415477187725
3584.5,36.1515700178156
3584.75,36.0615923168587
3585,35.9716146159019
3585.25,35.881636914945
3585.5,35.7916592139883
3585.75,35.7016815130315
3586,35.6117038120746
3586.25,35.5217261111177
3586.5,35.4317484101609
3586.75,35.341770709204
3587,35.2517930082472
3587.25,35.1618153072903
3587.5,35.0718376063334
3587.75,34.9818599053766
3588,34.8918822044197
3588.25,34.8019045034629
3588.5,34.711926802506
3588.75,34.9037995681773
3589,35.138741342898
3589.25,35.3736831176187
3589.5,35.6086248923394
3589.75,35.8435666670601
3590,36.0785084417807
3590.25,36.3134502165014
3590.5,36.5483919912221
3590.75,36.7833337659428
3591,37.0182755406631
3591.25,37.2532173153838
3591.5,37.4881590901045
3591.75,37.7231008648252
3592,37.9580426395458
3592.25,38.1929844142665
3592.5,38.4279261889872
3592.75,38.6628679637079
3593,38.8978097384286
3593.25,39.1327515131493
3593.5,39.36769328787
3593.75,39.5552098351758
3594,39.7351652370896
3594.25,39.9151206390033
3594.5,40.095076040917
3594.75,40.2750314428307
3595,40.4549868447445
3595.25,40.6349422466582
3595.5,40.8148976485719
3595.75,40.9948530504856
3596,41.1748084523993
3596.25,41.3547638543131
3596.5,41.5347192562265
3596.75,41.7146746581402
3597,41.8946300600539
3597.25,42.0745854619676
3597.5,42.2545408638813
3597.75,42.4344962657951
3598,42.6144516677088
3598.25,42.7944070696225
3598.5,42.9743624715362
3598.75,43.1757509114291
3599,43.3807001191642
3599.25,43.5856493268992
3599.5,43.7905985346343
3599.75,43.9955477423694
3600,44.2004969501045
3600.25,44.4054461578395
3600.5,44.6103953655746
3600.75,44.8153445733097
3601,45.0202937810447
3601.25,45.2252429887798
3601.5,45.4301921965149
3601.75,45.6351414042496
3602,45.8400906119847
3602.25,46.0450398197197
3602.5,46.2499890274548
3602.75,46.4549382351899
3603,46.6598874429249
3603.25,46.86483665066
3603.5,47.0697858583951
3603.75,47.0403343676629
3604,46.9703517113631
3604.25,46.9003690550633
3604.5,46.8303863987635
3604.75,46.7604037424638
3605,46.690421086164
3605.25,46.6204384298642
3605.5,46.5504557735644
3605.75,46.4804731172646
3606,46.4104904609649
3606.25,46.3405078046651
3606.5,46.2705251483653
3606.75,46.2005424920655
3607,46.1305598357657
3607.25,46.0605771794661
3607.5,45.9905945231663
3607.75,45.9206118668665
3608,45.8506292105667
3608.25,45.780646554267
3608.5,45.7106638979672
3608.75,45.3779838833373
3609,44.9980780348527
3609.25,44.6181721863682
3609.5,44.2382663378837
3609.75,43.8583604893992
3610,43.4784546409146
3610.25,43.0985487924301
3610.5,42.7186429439456
3610.75,42.3387370954611
3611,41.9588312469766
3611.25,41.578925398492
3611.5,41.1990195500075
3611.75,40.819113701523
3612,40.4392078530385
3612.25,40.0593020045539
3612.5,39.6793961560694
3612.75,39.2994903075856
3613,38.9195844591011
3613.25,38.5396786106165
3613.5,38.159772762132
3613.75,38.1
3614,38.1
3614.25,38.1
3614.5,38.1
3614.75,38.1
3615,38.1
3615.25,38.1
3615.5,38.1
3615.75,38.1
3616,38.1
3616.25,38.1
3616.5,38.1
3616.75,38.1
3617,38.1
3617.25,38.1
3617.5,38.1
3617.75,38.1
3618,38.1
3618.25,38.1
3618.5,38.1
3618.75,38.0036874830398
3619,37.8887159762616
3619.25,37.7737444694834
3619.5,37.6587729627052
3619.75,37.543801455927
3620,37.4288299491488
3620.25,37.3138584423706
3620.5,37.1988869355924
3620.75,37.0839154288142
3621,36.9689439220359
3621.25,36.8539724152577
3621.5,36.7390009084795
3621.75,36.6240294017013
3622,36.5090578949231
3622.25,36.3940863881449
3622.5,36.2791148813667
3622.75,36.1641433745885
3623,36.0491718678103
3623.25,35.934200361032
3623.5,35.8192288542538
3623.75,36.0081362011395
3624,36.258074259353
3624.25,36.5080123175665
3624.5,36.75795037578
3624.75,37.0078884339935
3625,37.257826492207
3625.25,37.5077645504205
3625.5,37.757702608634
3625.75,38.0076406668475
3626,38.257578725061
3626.25,38.5075167832745
3626.5,38.757454841488
3626.75,39.0073928997015
3627,39.257330957915
3627.25,39.5072690161285
3627.5,39.757207074342
3627.75,40.0071451325555
3628,40.257083190769
3628.25,40.5070212489825
3628.5,40.756959307196
3628.75,40.8
3629,40.8
3629.25,40.8
3629.5,40.8
3629.75,40.8
3630,40.8
3630.25,40.8
3630.5,40.8
3630.75,40.8
3631,40.8
3631.25,40.8
3631.5,40.8
3631.75,40.8
3632,40.8
3632.25,40.8
3632.5,40.8
3632.75,40.8
3633,40.8
3633.25,40.8
3633.5,40.8
3633.75,40.6149073232888
3634,40.3899630708966
3634.25,40.1650188185045
3634.5,39.9400745661127
3634.75,39.7151303137206
3635,39.4901860613284
3635.25,39.2652418089363
3635.5,39.0402975565441
3635.75,38.815353304152
3636,38.5904090517598
3636.25,38.3654647993677
3636.5,38.1405205469755
3636.75,37.9155762945834
3637,37.6906320421912
3637.25,37.4656877897991
3637.5,37.2407435374069
3637.75,37.0157992850148
3638,36.7908550326226
3638.25,36.5659107802305
3638.5,36.3409665278383
3638.75,36.2591160612103
3639,36.2091284495676
3639.25,36.1591408379249
3639.5,36.1091532262822
3639.75,36.0591656146395
3640,36.0091780029968
3640.25,35.9591903913541
3640.5,35.9092027797115
3640.75,35.8592151680687
3641,35.809227556426
3641.25,35.7592399447833
3641.5,35.7092523331406
3641.75,35.6592647214979
3642,35.6092771098552
3642.25,35.5592894982125
3642.5,35.5093018865698
3642.75,35.4593142749271
3643,35.4093266632844
3643.25,35.3593390516417
3643.5,35.309351439999
3643.75,35.3284453201506
3644,35.3634366483004
3644.25,35.3984279764503
3644.5,35.4334193046002
3644.75,35.4684106327501
3645,35.5034019609
3645.25,35.5383932890499
3645.5,35.5733846171997
3645.75,35.6083759453496
3646,35.6433672734995
3646.25,35.6783586016494
3646.5,35.7133499297993
3646.75,35.7483412579492
3647,35.7833325860991
3647.25,35.818323914249
3647.5,35.8533152423989
3647.75,35.8883065705487
3648,35.9232978986986
3648.25,35.9582892268485
3648.5,35.9932805549984
3648.75,35.9757669573015
3649,35.9457743903158
3649.25,35.9157818233302
3649.5,35.8857892563446
3649.75,35.855796689359
3650,35.8258041223734
3650.25,35.7958115553877
3650.5,35.7658189884021
3650.75,35.7358264214165
3651,35.7058338544309
3651.25,35.6758412874453
3651.5,35.6458487204597
3651.75,35.6158561534741
3652,35.5858635864885
3652.25,35.5558710195028
3652.5,35.5258784525172
3652.75,35.4958858855316
3653,35.465893318546
3653.25,35.4359007515603
3653.5,35.4059081845747
3653.75,35.6488719515792
3654,35.958795143764
3654.25,36.2687183359487
3654.5,36.5786415281334
3654.75,36.8885647203182
3655,37.1984879125029
3655.25,37.5084111046877
3655.5,37.8183342968724
3655.75,38.1282574890572
3656,38.4381806812419
3656.25,38.7481038734261
3656.5,39.0580270656108
3656.75,39.3679502577956
3657,39.6778734499803
3657.25,39.9877966421651
3657.5,40.2977198343498
3657.75,40.6076430265345
3658,40.9175662187193
3658.25,41.227489410904
3658.5,41.5374126030888
3658.75,41.8991965265405
3659,42.2741036138608
3659.25,42.649010701181
3659.5,43.0239177885013
3659.75,43.3988248758215
3660,43.7737319631418
3660.25,44.148639050462
3660.5,44.5235461377823
3660.75,44.8984532251026
3661,45.2733603124228
3661.25,45.6482673997431
3661.5,46.0231744870633
3661.75,46.3980815743829
3662,46.7729886617031
3662.25,47.1478957490234
3662.5,47.5228028363436
3662.75,47.8977099236639
3663,48.2726170109841
3663.25,48.6475240983044
3663.5,49.0224311856246
3663.75,48.806626237361
3664,48.4367179112051
3664.25,48.0668095850491
3664.5,47.6969012588931
3664.75,47.3269929327371
3665,46.9570846065811
3665.25,46.5871762804251
3665.5,46.2172679542692
3665.75,45.8473596281132
3666,45.4774513019572
3666.25,45.1075429758012
3666.5,44.7376346496452
3666.75,44.3677263234892
3667,43.9978179973333
3667.25,43.627909671178
3667.5,43.258001345022
3667.75,42.888093018866
3668,42.51818469271
3668.25,42.148276366554
3668.5,41.778368040398
3668.75,41.6448437297215
3669,41.5748610734217
3669.25,41.5048784171219
3669.5,41.4348957608221
3669.75,41.3649131045224
3670,41.2949304482226
3670.25,41.2249477919228
3670.5,41.154965135623
3670.75,41.0849824793232
3671,41.0149998230234
3671.25,40.9450171667237
3671.5,40.8750345104239
3671.75,40.8050518541241
3672,40.7350691978243
3672.25,40.6650865415245
3672.5,40.5951038852249
3672.75,40.5251212289251
3673,40.4551385726253
3673.25,40.3851559163255
3673.5,40.3151732600258
3673.75,40.2491055606027
3674,40.1841216654672
3674.25,40.1191377703317
3674.5,40.0541538751962
3674.75,39.9891699800607
3675,39.9241860849251
3675.25,39.8592021897896
3675.5,39.7942182946541
3675.75,39.7292343995186
3676,39.6642505043831
3676.25,39.5992666092476
3676.5,39.5342827141121
3676.75,39.4692988189766
3677,39.4043149238411
3677.25,39.3393310287056
3677.5,39.27434713357
3677.75,39.2093632384345
3678,39.1443793432991
3678.25,39.0793954481636
3678.5,39.0144115530281
3678.75,39.0427919817832
3679,39.0977783545901
3679.25,39.1527647273971
3679.5,39.2077511002041
3679.75,39.2627374730111
3680,39.317723845818
3680.25,39.372710218625
3680.5,39.427696591432
3680.75,39.4826829642389
3681,39.5376693370459
3681.25,39.5926557098529
3681.5,39.6476420826599
3681.75,39.7026284554668
3682,39.7576148282738
3682.25,39.8126012010808
3682.5,39.8675875738877
3682.75,39.9225739466947
3683,39.9775603195017
3683.25,40.0325466923086
3683.5,40.0875330651155
3683.75,40.05361515863
3684,39.9936300246588
3684.25,39.9336448906875
3684.5,39.8736597567163
3684.75,39.8136746227451
3685,39.7536894887738
3685.25,39.6937043548026
3685.5,39.6337192208313
3685.75,39.5737340868601
3686,39.5137489528889
3686.25,39.4537638189176
3686.5,39.3937786849464
3686.75,39.3337935509751
3687,39.2738084170039
3687.25,39.2138232830327
3687.5,39.1538381490614
3687.75,39.0938530150902
3688,39.0338678811189
3688.25,38.9738827471477
3688.5,38.9138976131765
3688.75,38.7694186910814
3689,38.5994608114966
3689.25,38.4295029319114
3689.5,38.2595450523262
3689.75,38.089587172741
3690,37.9196292931558
3690.25,37.7496714135706
3690.5,37.5797135339855
3690.75,37.4097556544003
3691,37.2397977748151
3691.25,37.0698398952299
3691.5,36.8998820156447
3691.75,36.7299241360596
3692,36.5599662564744
3692.25,36.3900083768892
3692.5,36.220050497304
3692.75,36.0500926177188
3693,35.8801347381337
3693.25,35.7101768585485
3693.5,35.5402189789633
3693.75,35.3778927994147
3694,35.2179324421581
3694.25,35.0579720849017
3694.5,34.8980117276451
3694.75,34.7380513703884
3695,34.5780910131318
3695.25,34.4181306558751
3695.5,34.2581702986185
3695.75,34.0982099413619
3696,33.9382495841052
3696.25,33.7782892268486
3696.5,33.6183288695919
3696.75,33.4583685123353
3697,33.2984081550786
3697.25,33.138447797822
3697.5,32.9784874405654
3697.75,32.8185270833087
3698,32.6585667260521
3698.25,32.4986063687954
3698.5,32.3386460115388
3698.75,32.4251054190215
3699,32.5900645374424
3699.25,32.7550236558633
3699.5,32.9199827742843
3699.75,33.0849418927049
3700,33.2499010111258
3700.25,33.4148601295467
3700.5,33.5798192479676
3700.75,33.7447783663885
3701,33.9097374848094
3701.25,34.0746966032303
3701.5,34.2396557216512
3701.75,34.4046148400722
3702,34.5695739584931
3702.25,34.734533076914
3702.5,34.8994921953349
3702.75,35.0644513137558
3703,35.2294104321767
3703.25,35.3943695505976
3703.5,35.5593286690185
3703.75,35.6263640761235
3704,35.6613554042734
3704.25,35.6963467324233
3704.5,35.7313380605732
3704.75,35.7663293887231
3705,35.801320716873
3705.25,35.8363120450228
3705.5,35.8713033731727
3705.75,35.9062947013226
3706,35.9412860294725
3706.25,35.9762773576224
3706.5,36.0112686857722
3706.75,36.0462600139221
3707,36.081251342072
3707.25,36.1162426702219
3707.5,36.1512339983718
3707.75,36.1862253265217
3708,36.2212166546716
3708.25,36.2562079828215
3708.5,36.2911993109714
3708.75,36.3448982384936
3709,36.4048833724648
3709.25,36.4648685064361
3709.5,36.5248536404073
3709.75,36.5848387743785
3710,36.6448239083498
3710.25,36.704809042321
3710.5,36.7647941762923
3710.75,36.8247793102634
3711,36.8847644442346
3711.25,36.9447495782059
3711.5,37.0047347121771
3711.75,37.0647198461484
3712,37.1247049801196
3712.25,37.1846901140908
3712.5,37.2446752480621
3712.75,37.3046603820333
3713,37.3646455160046
3713.25,37.4246306499758
3713.5,37.484615783947
3713.75,37.395931191524
3714,37.2559658789244
3714.25,37.1160005663249
3714.5,36.9760352537253
3714.75,36.8360699411258
3715,36.6961046285262
3715.25,36.5561393159266
3715.5,36.4161740033271
3715.75,36.2762086907275
3716,36.1362433781282
3716.25,35.9962780655286
3716.5,35.8563127529291
3716.75,35.7163474403295
3717,35.57638212773
3717.25,35.4364168151304
3717.5,35.2964515025308
3717.75,35.1564861899313
3718,35.0165208773317
3718.25,34.8765555647322
3718.5,34.7365902521326
3718.75,34.862446523591
3719,35.0823920148188
3719.25,35.3023375060467
3719.5,35.5222829972746
3719.75,35.7422284885025
3720,35.9621739797304
3720.25,36.1821194709582
3720.5,36.4020649621861
3720.75,36.622010453414
3721,36.8419559446419
3721.25,37.0619014358698
3721.5,37.2818469270972
3721.75,37.5017924183251
3722,37.721737909553
3722.25,37.9416834007809
3722.5,38.1616288920088
3722.75,38.3815743832367
3723,38.6015198744645
3723.25,38.8214653656924
3723.5,39.0414108569203
3723.75,39.0889984308081
3724,39.0740021473153
3724.25,39.0590058638225
3724.5,39.0440095803297
3724.75,39.0290132968368
3725,39.014017013344
3725.25,38.9990207298512
3725.5,38.9840244463584
3725.75,38.9690281628656
3726,38.9540318793728
3726.25,38.93903559588
3726.5,38.9240393123872
3726.75,38.9090430288944
3727,38.8940467454016
3727.25,38.8790504619088
3727.5,38.864054178416
3727.75,38.8490578949231
3728,38.8340616114303
3728.25,38.8190653279375
3728.5,38.8040690444447
3728.75,38.6943700225351
3729,38.5494059487712
3729.25,38.4044418750074
3729.5,38.2594778012436
3729.75,38.1145137274797
3730,37.9695496537159
3730.25,37.8245855799521
3730.5,37.6796215061882
3730.75,37.5346574324244
3731,37.3896933586606
3731.25,37.2447292848968
3731.5,37.0997652111329
3731.75,36.9548011373691
3732,36.8098370636053
3732.25,36.6648729898414
3732.5,36.5199089160779
3732.75,36.374944842314
3733,36.2299807685502
3733.25,36.0850166947864
3733.5,35.9400526210225
3733.75,35.7950885472587
3734,35.6501244734949
3734.25,35.505160399731
3734.5,35.3601963259672
3734.75,35.2152322522034
3735,35.0702681784396
3735.25,34.9253041046757
3735.5,34.7803400309119
3735.75,34.6353759571481
3736,34.4904118833842
3736.25,34.3454478096204
3736.5,34.2004837358566
3736.75,34.0555196620927
3737,33.9105555883289
3737.25,33.7655915145651
3737.5,33.6206274408012
3737.75,33.4756633670377
3738,33.3306992932738
3738.25,33.18573521951
3738.5,33.0407711457462
3738.75,33.0467071746286
3739,33.1116910697641
3739.25,33.1766749648996
3739.5,33.2416588600351
3739.75,33.3066427551706
3740,33.3716266503062
3740.25,33.4366105454417
3740.5,33.5015944405772
3740.75,33.5665783357127
3741,33.6315622308482
3741.25,33.6965461259837
3741.5,33.7615300211192
3741.75,33.8265139162547
3742,33.8914978113902
3742.25,33.9564817065257
3742.5,34.0214656016613
3742.75,34.0864494967968
3743,34.1514333919323
3743.25,34.2164172870677
3743.5,34.2814011822032
3743.75,34.3
3744,34.3
3744.25,34.3
3744.5,34.3
3744.75,34.3
3745,34.3
3745.25,34.3
3745.5,34.3
3745.75,34.3
3746,34.3
3746.25,34.3
3746.5,34.3
3746.75,34.3
3747,34.3
3747.25,34.3
3747.5,34.3
3747.75,34.3
3748,34.3
3748.25,34.3
3748.5,34.3
3748.75,34.3283464492608
3749,34.3683365385749
3749.25,34.4083266278891
3749.5,34.4483167172033
3749.75,34.4883068065174
3750,34.5282968958316
3750.25,34.5682869851457
3750.5,34.6082770744599
3750.75,34.6482671637741
3751,34.6882572530882
3751.25,34.7282473424024
3751.5,34.7682374317166
3751.75,34.8082275210307
3752,34.8482176103449
3752.25,34.888207699659
3752.5,34.9281977889732
3752.75,34.9681878782874
3753,35.0081779676015
3753.25,35.0481680569157
3753.5,35.0881581462298
3753.75,35.34629706101
3754,35.6962103425089
3754.25,36.0461236240071
3754.5,36.396036905506
3754.75,36.7459501870049
3755,37.0958634685038
3755.25,37.4457767500027
3755.5,37.7956900315016
3755.75,38.1456033130005
3756,38.4955165944994
3756.25,38.8454298759983
3756.5,39.1953431574972
3756.75,39.5452564389961
3757,39.8951697204951
3757.25,40.245083001994
3757.5,40.5949962834929
3757.75,40.9449095649918
3758,41.2948228464907
3758.25,41.6447361279896
3758.5,41.9946494094885
3758.75,42.117468763642
3759,42.1424625694633
3759.25,42.1674563752847
3759.5,42.192450181106
3759.75,42.2174439869273
3760,42.2424377927487
3760.25,42.26743159857
3760.5,42.2924254043914
3760.75,42.3174192102127
3761,42.3424130160341
3761.25,42.3674068218554
3761.5,42.3924006276768
3761.75,42.4173944334981
3762,42.4423882393195
3762.25,42.4673820451408
3762.5,42.4923758509622
3762.75,42.5173696567835
3763,42.5423634626049
3763.25,42.5673572684262
3763.5,42.5923510742476
3763.75,42.6
3764,42.6
3764.25,42.6
3764.5,42.6
3764.75,42.6
3765,42.6
3765.25,42.6
3765.5,42.6
3765.75,42.6
3766,42.6
3766.25,42.6
3766.5,42.6
3766.75,42.6
3767,42.6
3767.25,42.6
3767.5,42.6
3767.75,42.6
3768,42.6
3768.25,42.6
3768.5,42.6
3768.75,42.5070066189223
3769,42.372040067487
3769.25,42.2370735160517
3769.5,42.1021069646164
3769.75,41.9671404131811
3770,41.8321738617458
3770.25,41.6972073103106
3770.5,41.5622407588755
3770.75,41.4272742074402
3771,41.2923076560049
3771.25,41.1573411045696
3771.5,41.0223745531343
3771.75,40.8874080016991
3772,40.7524414502638
3772.25,40.6174748988285
3772.5,40.4825083473932
3772.75,40.3475417959579
3773,40.2125752445226
3773.25,40.0776086930873
3773.5,39.942642141652
3773.75,40.0367769033826
3774,40.2367273499534
3774.25,40.4366777965242
3774.5,40.636628243095
3774.75,40.8365786896658
3775,41.0365291362366
3775.25,41.2364795828074
3775.5,41.4364300293782
3775.75,41.636380475949
3776,41.8363309225195
3776.25,42.0362813690903
3776.5,42.2362318156611
3776.75,42.4361822622319
3777,42.6361327088027
3777.25,42.8360831553735
3777.5,43.0360336019443
3777.75,43.2359840485151
3778,43.4359344950859
3778.25,43.6358849416567
3778.5,43.8358353882275
3778.75,43.8932107082601
3779,43.8832131859315
3779.25,43.873215663603
3779.5,43.8632181412745
3779.75,43.8532206189459
3780,43.8432230966174
3780.25,43.8332255742888
3780.5,43.8232280519603
3780.75,43.8132305296318
3781,43.8032330073032
3781.25,43.7932354849747
3781.5,43.7832379626462
3781.75,43.7732404403176
3782,43.7632429179891
3782.25,43.7532453956605
3782.5,43.743247873332
3782.75,43.7332503510035
3783,43.7232528286749
3783.25,43.7132553063464
3783.5,43.7032577840178
3783.75,43.4674790282809
3784,43.1225645079463
3784.25,42.7776499876117
3784.5,42.432735467277
3784.75,42.0878209469424
3785,41.7429064266078
3785.25,41.3979919062731
3785.5,41.0530773859385
3785.75,40.7081628656039
3786,40.3632483452692
3786.25,40.0183338249346
3786.5,39.6734193046
3786.75,39.328504784266
3787,38.9835902639313
3787.25,38.6386757435967
3787.5,38.2937612232621
3787.75,37.9488467029274
3788,37.6039321825928
3788.25,37.2590176622582
3788.5,36.9141031419235
3788.75,36.813380369763
3789,36.83337541442
3789.25,36.8533704590771
3789.5,36.8733655037342
3789.75,36.8933605483913
3790,36.9133555930484
3790.25,36.9333506377054
3790.5,36.9533456823625
3790.75,36.9733407270196
3791,36.9933357716767
3791.25,37.0133308163338
3791.5,37.0333258609908
3791.75,37.0533209056479
3792,37.073315950305
3792.25,37.0933109949621
3792.5,37.1133060396191
3792.75,37.1333010842762
3793,37.1532961289333
3793.25,37.1732911735904
3793.5,37.1932862182475
3793.75,37.0439451608718
3794,36.8090033861511
3794.25,36.5740616114304
3794.5,36.3391198367097
3794.75,36.104178061989
3795,35.8692362872683
3795.25,35.6342945125476
3795.5,35.3993527378269
3795.75,35.1644109631062
3796,34.9294691883856
3796.25,34.6945274136649
3796.5,34.4595856389442
3796.75,34.2246438642235
3797,33.9897020895028
3797.25,33.7547603147821
3797.5,33.5198185400614
3797.75,33.2848767653411
3798,33.0499349906205
3798.25,32.8149932158998
3798.5,32.5800514411791
3798.75,32.5395464681383
3799,32.5995316021095
3799.25,32.6595167360808
3799.5,32.719501870052
3799.75,32.7794870040233
3800,32.8394721379945
3800.25,32.8994572719657
3800.5,32.959442405937
3800.75,33.0194275399082
3801,33.0794126738795
3801.25,33.1393978078507
3801.5,33.1993829418219
3801.75,33.2593680757932
3802,33.3193532097644
3802.25,33.3793383437357
3802.5,33.4393234777069
3802.75,33.4993086116781
3803,33.5592937456494
3803.25,33.6192788796205
3803.5,33.6792640135917
3803.75,33.7588737213445
3804,33.8488514223013
3804.25,33.9388291232582
3804.5,34.0288068242151
3804.75,34.1187845251719
3805,34.2087622261288
3805.25,34.2987399270856
3805.5,34.3887176280425
3805.75,34.4786953289994
3806,34.5686730299562
3806.25,34.6586507309131
3806.5,34.7486284318699
3806.75,34.8386061328268
3807,34.9285838337837
3807.25,35.0185615347405
3807.5,35.1085392356974
3807.75,35.1985169366543
3808,35.2884946376111
3808.25,35.378472338568
3808.5,35.4684500395247
3808.75,35.5908875963046
3809,35.7308529089042
3809.25,35.8708182215037
3809.5,36.0107835341033
3809.75,36.1507488467028
3810,36.2907141593024
3810.25,36.430679471902
3810.5,36.5706447845015
3810.75,36.7106100971011
3811,36.8505754097006
3811.25,36.9905407223002
3811.5,37.1305060348998
3811.75,37.2704713474993
3812,37.4104366600989
3812.25,37.5504019726985
3812.5,37.690367285298
3812.75,37.8303325978976
3813,37.9702979104971
3813.25,38.1102632230967
3813.5,38.2502285356963
3813.75,38.1614880186886
3814,37.9465412886253
3814.25,37.7315945585617
3814.5,37.5166478284981
3814.75,37.3017010984345
3815,37.0867543683709
3815.25,36.8718076383073
3815.5,36.6568609082437
3815.75,36.4419141781801
3816,36.2269674481164
3816.25,36.0120207180528
3816.5,35.7970739879892
3816.75,35.5821272579256
3817,35.367180527862
3817.25,35.1522337977984
3817.5,34.9372870677348
3817.75,34.7223403376712
3818,34.5073936076076
3818.25,34.2924468775439
3818.5,34.0775001474803
3818.75,33.9328749247849
3819,33.8279009403352
3819.25,33.7229269558856
3819.5,33.6179529714361
3819.75,33.5129789869864
3820,33.4080050025367
3820.25,33.3030310180871
3820.5,33.1980570336374
3820.75,33.0930830491877
3821,32.9881090647381
3821.25,32.8831350802884
3821.5,32.7781610958387
3821.75,32.673187111389
3822,32.5682131269394
3822.25,32.4632391424897
3822.5,32.35826515804
3822.75,32.2532911735904
3823,32.1483171891407
3823.25,32.043343204691
3823.5,31.9383692202414
3823.75,31.7731337824604
3824,31.5731833358896
3824.25,31.3732328893188
3824.5,31.1732824427479
3824.75,30.9733319961771
3825,30.7733815496067
3825.25,30.5734311030359
3825.5,30.3734806564651
3825.75,30.1735302098943
3826,29.9735797633235
3826.25,29.7736293167527
3826.5,29.5736788701819
3826.75,29.3737284236111
3827,29.1737779770403
3827.25,28.9738275304695
3827.5,28.7738770838987
3827.75,28.5739266373279
3828,28.3739761907571
3828.25,28.1740257441863
3828.5,27.9740752976155
3828.75,27.9503500595821
3829,28.0303302382104
3829.25,28.1103104168388
3829.5,28.1902905954671
3829.75,28.2702707740954
3830,28.3502509527237
3830.25,28.4302311313519
3830.5,28.5102113099802
3830.75,28.5901914886085
3831,28.6701716672369
3831.25,28.7501518458652
3831.5,28.8301320244935
3831.75,28.9101122031218
3832,28.9900923817501
3832.25,29.0700725603785
3832.5,29.1500527390068
3832.75,29.2300329176351
3833,29.3100130962634
3833.25,29.3899932748917
3833.5,29.4699734535201
3833.75,29.6342503863988
3834,29.8491971164624
3834.25,30.064143846526
3834.5,30.2790905765896
3834.75,30.4940373066532
3835,30.7089840367169
3835.25,30.9239307667805
3835.5,31.1388774968441
3835.75,31.3538242269073
3836,31.5687709569709
3836.25,31.7837176870345
3836.5,31.9986644170981
3836.75,32.2136111471617
3837,32.4285578772254
3837.25,32.643504607289
3837.5,32.8584513373526
3837.75,33.0733980674162
3838,33.2883447974798
3838.25,33.5032915275434
3838.5,33.718238257607
3838.75,33.93937963826
3839,34.1643238906521
3839.25,34.3892681430443
3839.5,34.6142123954364
3839.75,34.8391566478286
3840,35.0641009002207
3840.25,35.2890451526129
3840.5,35.513989405005
3840.75,35.7389336573972
3841,35.9638779097893
3841.25,36.1888221621811
3841.5,36.4137664145732
3841.75,36.6387106669654
3842,36.8636549193575
3842.25,37.0885991717497
3842.5,37.3135434241418
3842.75,37.538487676534
3843,37.7634319289261
3843.25,37.9883761813183
3843.5,38.2133204337104
3843.75,38.3184352914803
3844,38.348427858466
3844.25,38.3784204254516
3844.5,38.4084129924372
3844.75,38.4384055594228
3845,38.4683981264084
3845.25,38.4983906933941
3845.5,38.5283832603797
3845.75,38.5583758273653
3846,38.5883683943509
3846.25,38.6183609613365
3846.5,38.6483535283222
3846.75,38.6783460953077
3847,38.7083386622934
3847.25,38.738331229279
3847.5,38.7683237962646
3847.75,38.7983163632502
3848,38.8283089302358
3848.25,38.8583014972215
3848.5,38.8882940642071
3848.75,38.9152388593272
3849,38.9402326651486
3849.25,38.9652264709699
3849.5,38.9902202767913
3849.75,39.0152140826126
3850,39.040207888434
3850.25,39.0652016942553
3850.5,39.0901955000767
3850.75,39.115189305898
3851,39.1401831117194
3851.25,39.1651769175407
3851.5,39.1901707233621
3851.75,39.2151645291834
3852,39.2401583350048
3852.25,39.2651521408261
3852.5,39.2901459466474
3852.75,39.3151397524688
3853,39.3401335582902
3853.25,39.3651273641115
3853.5,39.3901211699329
3853.75,39.3486090824357
3854,39.2636301426431
3854.25,39.1786512028505
3854.5,39.0936722630579
3854.75,39.0086933232653
3855,38.9237143834727
3855.25,38.8387354436802
3855.5,38.7537565038876
3855.75,38.668777564095
3856,38.5837986243024
3856.25,38.4988196845098
3856.5,38.4138407447172
3856.75,38.3288618049246
3857,38.243882865132
3857.25,38.1589039253394
3857.5,38.073924985547
3857.75,37.9889460457544
3858,37.9039671059618
3858.25,37.8189881661692
3858.5,37.7340092263766
3858.75,37.8738966693015
3859,38.1638248168291
3859.25,38.4537529643568
3859.5,38.7436811118845
3859.75,39.0336092594121
3860,39.3235374069398
3860.25,39.6134655544675
3860.5,39.9033937019951
3860.75,40.1933218495228
3861,40.4832499970504
3861.25,40.7731781445781
3861.5,41.0631062921058
3861.75,41.3530344396334
3862,41.6429625871611
3862.25,41.9328907346888
3862.5,42.2228188822164
3862.75,42.5127470297441
3863,42.8026751772712
3863.25,43.0926033247989
3863.5,43.3825314723265
3863.75,43.4375577238459
3864,43.3325837393962
3864.25,43.2276097549465
3864.5,43.1226357704969
3864.75,43.0176617860472
3865,42.9126878015975
3865.25,42.8077138171479
3865.5,42.7027398326982
3865.75,42.5977658482485
3866,42.4927918637989
3866.25,42.3878178793492
3866.5,42.2828438948995
3866.75,42.1778699104498
3867,42.0728959260002
3867.25,41.9679219415505
3867.5,41.8629479571008
3867.75,41.7579739726512
3868,41.6529999882015
3868.25,41.5480260037518
3868.5,41.4430520193023
3868.75,41.3616673549088
3869,41.2966834597733
3869.25,41.2316995646378
3869.5,41.1667156695023
3869.75,41.1017317743668
3870,41.0367478792312
3870.25,40.9717639840957
3870.5,40.9067800889602
3870.75,40.8417961938247
3871,40.7768122986892
3871.25,40.7118284035537
3871.5,40.6468445084182
3871.75,40.5818606132827
3872,40.5168767181472
3872.25,40.4518928230116
3872.5,40.3869089278761
3872.75,40.3219250327406
3873,40.2569411376051
3873.25,40.1919572424696
3873.5,40.1269733473341
3873.75,40.0444461224443
3874,39.9494696603231
3874.25,39.854493198202
3874.5,39.7595167360809
3874.75,39.6645402739597
3875,39.5695638118386
3875.25,39.4745873497175
3875.5,39.3796108875964
3875.75,39.2846344254752
3876,39.1896579633541
3876.25,39.094681501233
3876.5,38.9997050391118
3876.75,38.9047285769907
3877,38.8097521148696
3877.25,38.7147756527484
3877.5,38.6197991906273
3877.75,38.5248227285062
3878,38.429846266385
3878.25,38.3348698042639
3878.5,38.2398933421428
3878.75,38.214495557889
3879,38.2394893637104
3879.25,38.2644831695317
3879.5,38.289476975353
3879.75,38.3144707811744
3880,38.3394645869957
3880.25,38.3644583928171
3880.5,38.3894521986385
3880.75,38.4144460044598
3881,38.4394398102812
3881.25,38.4644336161025
3881.5,38.4894274219239
3881.75,38.5144212277452
3882,38.5394150335665
3882.25,38.5644088393879
3882.5,38.5894026452092
3882.75,38.6143964510306
3883,38.639390256852
3883.25,38.6643840626733
3883.5,38.6893778684947
3883.75,38.714371674316
3884,38.7393654801374
3884.25,38.7643592859587
3884.5,38.7893530917801
3884.75,38.8143468976014
3885,38.8393407034227
3885.25,38.8643345092441
3885.5,38.8893283150654
3885.75,38.9143221208868
3886,38.9393159267081
3886.25,38.9643097325295
3886.5,38.9893035383508
3886.75,39.0142973441722
3887,39.0392911499935
3887.25,39.0642849558149
3887.5,39.0892787616362
3887.75,39.1142725674576
3888,39.1392663732789
3888.25,39.1642601791003
3888.5,39.1892539849216
3888.75,39.0974159066507
3889,38.917460504737
3889.25,38.7375051028233
3889.5,38.5575497009096
3889.75,38.3775942989958
3890,38.1976388970821
3890.25,38.0176834951687
3890.5,37.837728093255
3890.75,37.6577726913413
3891,37.4778172894275
3891.25,37.2978618875138
3891.5,37.1179064856001
3891.75,36.9379510836864
3892,36.7579956817727
3892.25,36.5780402798589
3892.5,36.3980848779452
3892.75,36.2181294760315
3893,36.0381740741178
3893.25,35.8582186722041
3893.5,35.6782632702903
3893.75,35.6706195358496
3894,35.7955885649563
3894.25,35.9205575940631
3894.5,36.0455266231698
3894.75,36.1704956522766
3895,36.2954646813833
3895.25,36.4204337104901
3895.5,36.5454027395966
3895.75,36.6703717687034
3896,36.7953407978101
3896.25,36.9203098269169
3896.5,37.0452788560236
3896.75,37.1702478851304
3897,37.2952169142371
3897.25,37.4201859433439
3897.5,37.5451549724506
3897.75,37.6701240015574
3898,37.7950930306641
3898.25,37.9200620597709
3898.5,38.0450310888776
3898.75,38.05519992449
3899,37.9752197458617
3899.25,37.8952395672334
3899.5,37.8152593886051
3899.75,37.7352792099767
3900,37.6552990313484
3900.25,37.5753188527201
3900.5,37.4953386740918
3900.75,37.4153584954634
3901,37.3353783168353
3901.25,37.2553981382069
3901.5,37.1754179595786
3901.75,37.0954377809503
3902,37.015457602322
3902.25,36.9354774236937
3902.5,36.8554972450653
3902.75,36.775517066437
3903,36.6955368878087
3903.25,36.6155567091804
3903.5,36.5355765305521
3903.75,36.5638302441096
3904,36.6788017508878
3904.25,36.793773257666
3904.5,36.9087447644443
3904.75,37.0237162712225
3905,37.1386877780007
3905.25,37.2536592847789
3905.5,37.3686307915571
3905.75,37.4836022983353
3906,37.5985738051135
3906.25,37.7135453118917
3906.5,37.8285168186697
3906.75,37.9434883254479
3907,38.0584598322261
3907.25,38.1734313390044
3907.5,38.2884028457826
3907.75,38.4033743525608
3908,38.518345859339
3908.25,38.6333173661172
3908.5,38.7482888728954
3908.75,38.7229873638756
3909,38.583022051276
3909.25,38.4430567386765
3909.5,38.3030914260769
3909.75,38.1631261134773
3910,38.0231608008778
3910.25,37.8831954882782
3910.5,37.7432301756787
3910.75,37.6032648630791
3911,37.4632995504795
3911.25,37.32333423788
3911.5,37.1833689252804
3911.75,37.0434036126808
3912,36.9034383000815
3912.25,36.763472987482
3912.5,36.6235076748824
3912.75,36.4835423622829
3913,36.3435770496833
3913.25,36.2036117370837
3913.5,36.0636464244842
3913.75,36.0953986101442
3914,36.2703552508937
3914.25,36.4453118916431
3914.5,36.6202685323926
3914.75,36.795225173142
3915,36.9701818138915
3915.25,37.1451384546409
3915.5,37.3200950953904
3915.75,37.4950517361398
3916,37.6700083768893
3916.25,37.8449650176387
3916.5,38.0199216583882
3916.75,38.1948782991376
3917,38.3698349398871
3917.25,38.5447915806362
3917.5,38.7197482213857
3917.75,38.8947048621351
3918,39.0696615028846
3918.25,39.244618143634
3918.5,39.4195747843835
3918.75,39.5081026935828
3919,39.5230989770756
3919.25,39.5380952605684
3919.5,39.5530915440613
3919.75,39.5680878275541
3920,39.5830841110469
3920.25,39.5980803945397
3920.5,39.6130766780325
3920.75,39.6280729615253
3921,39.6430692450181
3921.25,39.6580655285109
3921.5,39.6730618120037
3921.75,39.6880580954965
3922,39.7030543789894
3922.25,39.7180506624822
3922.5,39.733046945975
3922.75,39.7480432294678
3923,39.7630395129606
3923.25,39.7780357964534
3923.5,39.7930320799462
3923.75,39.8026761211463
3924,39.8076748823106
3924.25,39.8126736434749
3924.5,39.8176724046391
3924.75,39.8226711658034
3925,39.8276699269677
3925.25,39.832668688132
3925.5,39.8376674492962
3925.75,39.8426662104605
3926,39.8476649716248
3926.25,39.852663732789
3926.5,39.8576624939533
3926.75,39.8626612551176
3927,39.8676600162818
3927.25,39.8726587774461
3927.5,39.8776575386104
3927.75,39.8826562997747
3928,39.8876550609389
3928.25,39.8926538221032
3928.5,39.8976525832675
3928.75,39.9
3929,39.9
3929.25,39.9
3929.5,39.9
3929.75,39.9
3930,39.9
3930.25,39.9
3930.5,39.9
3930.75,39.9
3931,39.9
3931.25,39.9
3931.5,39.9
3931.75,39.9
3932,39.9
3932.25,39.9
3932.5,39.9
3932.75,39.9
3933,39.9
3933.25,39.9
3933.5,39.9
3933.75,39.9315188126054
3934,39.9915039465766
3934.25,40.0514890805479
3934.5,40.1114742145191
3934.75,40.1714593484904
3935,40.2314444824616
3935.25,40.2914296164328
3935.5,40.3514147504041
3935.75,40.4113998843753
3936,40.4713850183466
3936.25,40.5313701523178
3936.5,40.591355286289
3936.75,40.6513404202603
3937,40.7113255542315
3937.25,40.7713106882028
3937.5,40.831295822174
3937.75,40.8912809561452
3938,40.9512660901165
3938.25,41.0112512240877
3938.5,41.071236358059
3938.75,41.2352931321309
3939,41.4952287126724
3939.25,41.7551642932145
3939.5,42.0150998737565
3939.75,42.2750354542986
3940,42.5349710348406
3940.25,42.7949066153826
3940.5,43.0548421959247
3940.75,43.3147777764667
3941,43.5747133570088
3941.25,43.8346489375508
3941.5,44.0945845180929
3941.75,44.3545200986349
3942,44.6144556791769
3942.25,44.874391259719
3942.5,45.134326840261
3942.75,45.3942624208031
3943,45.6541980013451
3943.25,45.9141335818871
3943.5,46.1740691624292
3943.75,46.3901955000768
3944,46.5651521408262
3944.25,46.7401087815757
3944.5,46.9150654223248
3944.75,47.0900220630743
3945,47.2649787038237
3945.25,47.4399353445732
3945.5,47.6148919853226
3945.75,47.7898486260721
3946,47.9648052668215
3946.25,48.139761907571
3946.5,48.3147185483204
3946.75,48.4896751890699
3947,48.6646318298193
3947.25,48.8395884705688
3947.5,49.0145451113182
3947.75,49.1895017520677
3948,49.3644583928171
3948.25,49.5394150335666
3948.5,49.714371674316
3948.75,50.0271491440237
3949,50.4720388876437
3949.25,50.9169286312638
3949.5,51.3618183748838
3949.75,51.8067081185038
3950,52.251597862123
3950.25,52.6964876057431
3950.5,53.1413773493631
3950.75,53.5862670929831
3951,54.0311568366032
3951.25,54.4760465802232
3951.5,54.9209363238432
3951.75,55.3658260674633
3952,55.8107158110833
3952.25,56.2556055547033
3952.5,56.7004952983234
3952.75,57.1453850419434
3953,57.5902747855634
3953.25,58.0351645291835
3953.5,58.4800542728035
3953.75,58.8819771818258
3954,59.2418879856532
3954.25,59.6017987894807
3954.5,59.9617095933081
3954.75,60.3216203971356
3955,60.681531200963
3955.25,61.0414420047904
3955.5,61.4013528086172
3955.75,61.7612636124447
3956,62.1211744162721
3956.25,62.4810852200996
3956.5,62.840996023927
3956.75,63.2009068277544
3957,63.5608176315819
3957.25,63.9207284354093
3957.5,64.2806392392368
3957.75,64.6405500430642
3958,65.0004608468917
3958.25,65.3603716507191
3958.5,65.7202824545465
3958.75,65.9250268414408
3959,65.9750144530835
3959.25,66.0250020647262
3959.5,66.0749896763689
3959.75,66.1249772880116
3960,66.1749648996543
3960.25,66.224952511297
3960.5,66.2749401229397
3960.75,66.3249277345824
3961,66.3749153462251
3961.25,66.4249029578677
3961.5,66.4748905695105
3961.75,66.5248781811532
3962,66.5748657927958
3962.25,66.6248534044386
3962.5,66.6748410160812
3962.75,66.724828627724
3963,66.7748162393667
3963.25,66.8248038510093
3963.5,66.8747914626521
3963.75,66.3845952546693
3964,65.3448529325011
3964.25,64.3051106103329
3964.5,63.2653682881648
3964.75,62.2256259659966
3965,61.1858836438284
3965.25,60.1461413216603
3965.5,59.1063989994921
3965.75,58.0666566773239
3966,57.0269143551558
3966.25,55.9871720329895
3966.5,54.9474297108213
3966.75,53.9076873886531
3967,52.867945066485
3967.25,51.8282027443168
3967.5,50.7884604221486
3967.75,49.7487180999805
3968,48.7089757778123
3968.25,47.6692334556441
3968.5,46.629491133476
3968.75,45.9307339806742
3969,45.5858194603396
3969.25,45.240904940005
3969.5,44.8959904196703
3969.75,44.5510758993357
3970,44.2061613790011
3970.25,43.8612468586664
3970.5,43.5163323383318
3970.75,43.1714178179972
3971,42.8265032976625
3971.25,42.4815887773279
3971.5,42.1366742569933
3971.75,41.7917597366593
3972,41.4468452163246
3972.25,41.10193069599
3972.5,40.7570161756554
3972.75,40.4121016553207
3973,40.0671871349861
3973.25,39.7222726146515
3973.5,39.3773580943168
3973.75,39.2048567080005
3974,39.2148542303291
3974.25,39.2248517526576
3974.5,39.2348492749861
3974.75,39.2448467973147
3975,39.2548443196432
3975.25,39.2648418419718
3975.5,39.2748393643003
3975.75,39.2848368866288
3976,39.2948344089574
3976.25,39.3048319312859
3976.5,39.3148294536145
3976.75,39.324826975943
3977,39.3348244982715
3977.25,39.3448220206001
3977.5,39.3548195429286
3977.75,39.3648170652571
3978,39.3748145875857
3978.25,39.3848121099142
3978.5,39.3948096322428
3978.75,39.351928454287
3979,39.2519532310016
3979.25,39.1519780077162
3979.5,39.0520027844308
3979.75,38.9520275611454
3980,38.85205233786
3980.25,38.7520771145746
3980.5,38.6521018912892
3980.75,38.5521266680038
3981,38.4521514447184
3981.25,38.352176221433
3981.5,38.2522009981476
3981.75,38.1522257748622
3982,38.0522505515768
3982.25,37.9522753282914
3982.5,37.852300105006
3982.75,37.7523248817208
3983,37.6523496584354
3983.25,37.55237443515
3983.5,37.4523992118646
3983.75,37.5094248262679
3984,37.7393678398243
3984.25,37.9693108533807
3984.5,38.1992538669372
3984.75,38.4291968804936
3985,38.65913989405
3985.25,38.8890829076064
3985.5,39.1190259211628
3985.75,39.3489689347193
3986,39.5789119482757
3986.25,39.8088549618321
3986.5,40.0387979753885
3986.75,40.268740988945
3987,40.4986840025014
3987.25,40.7286270160578
3987.5,40.9585700296142
3987.75,41.1885130431706
3988,41.4184560567266
3988.25,41.6483990702831
3988.5,41.8783420838395
3988.75,42.016478166995
3989,42.0514694951449
3989.25,42.0864608232948
3989.5,42.1214521514447
3989.75,42.1564434795946
3990,42.1914348077445
3990.25,42.2264261358944
3990.5,42.2614174640443
3990.75,42.2964087921942
3991,42.331400120344
3991.25,42.3663914484939
3991.5,42.4013827766438
3991.75,42.4363741047937
3992,42.4713654329436
3992.25,42.5063567610935
3992.5,42.5413480892434
3992.75,42.5763394173933
3993,42.6113307455432
3993.25,42.6463220736931
3993.5,42.6813134018429
3993.75,42.6394395743126
3994,42.5094717840415
3994.25,42.3795039937705
3994.5,42.2495362034995
3994.75,42.1195684132285
3995,41.9896006229575
3995.25,41.8596328326864
3995.5,41.7296650424154
3995.75,41.5996972521444
3996,41.4697294618734
3996.25,41.3397616716024
3996.5,41.2097938813313
3996.75,41.0798260910603
3997,40.9498583007893
3997.25,40.8198905105183
3997.5,40.6899227202473
3997.75,40.5599549299762
3998,40.4299871397052
3998.25,40.3000193494342
3998.5,40.1700515591632
3998.75,40.0377792984649
3999,39.9028127470299
3999.25,39.7678461955946
3999.5,39.6328796441593
3999.75,39.497913092724
4000,39.3629465412887
4000.25,39.2279799898534
4000.5,39.0930134384181
4000.75,38.9580468869828
4001,38.8230803355475
4001.25,38.6881137841123
4001.5,38.553147232677
4001.75,38.4181806812417
4002,38.2832141298064
4002.25,38.1482475783711
4002.5,38.0132810269358
4002.75,37.8783144755005
4003,37.7433479240652
4003.25,37.6083813726299
4003.5,37.4734148211946
4003.75,37.3772030628738
4004,37.3272154512311
4004.25,37.2772278395884
4004.5,37.2272402279458
4004.75,37.1772526163031
4005,37.1272650046604
4005.25,37.0772773930177
4005.5,37.027289781375
4005.75,36.9773021697323
4006,36.9273145580896
4006.25,36.8773269464469
4006.5,36.8273393348042
4006.75,36.7773517231615
4007,36.7273641115188
4007.25,36.6773764998761
4007.5,36.6273888882334
4007.75,36.5774012765907
4008,36.527413664948
4008.25,36.4774260533053
4008.5,36.4274384416626
4008.75,36.5691187748506
4009,36.9440258621709
4009.25,37.3189329494911
4009.5,37.6938400368114
4009.75,38.068747124131
4010,38.4436542114512
4010.25,38.8185612987715
4010.5,39.1934683860917
4010.75,39.568375473412
4011,39.9432825607322
4011.25,40.3181896480525
4011.5,40.6930967353727
4011.75,41.068003822693
4012,41.4429109100132
4012.25,41.8178179973335
4012.5,42.1927250846537
4012.75,42.567632171974
4013,42.9425392592942
4013.25,43.3174463466145
4013.5,43.6923534339347
4013.75,43.9468329459514
4014,44.0518069304011
4014.25,44.1567809148507
4014.5,44.2617548993004
4014.75,44.3667288837501
4015,44.4717028681998
4015.25,44.5766768526492
4015.5,44.6816508370989
4015.75,44.7866248215486
4016,44.8915988059982
4016.25,44.9965727904479
4016.5,45.1015467748976
4016.75,45.2065207593473
4017,45.3114947437969
4017.25,45.4164687282466
4017.5,45.5214427126963
4017.75,45.6264166971459
4018,45.7313906815956
4018.25,45.8363646660453
4018.5,45.941338650495
4018.75,45.8787050037165
4019,45.6037731396816
4019.25,45.3288412756468
4019.5,45.0539094116119
4019.75,44.7789775475771
4020,44.5040456835422
4020.25,44.2291138195073
4020.5,43.9541819554725
4020.75,43.6792500914381
4021,43.4043182274033
4021.25,43.1293863633684
4021.5,42.8544544993336
4021.75,42.5795226352987
4022,42.3045907712639
4022.25,42.029658907229
4022.5,41.7547270431942
4022.75,41.4797951791593
4023,41.2048633151245
4023.25,40.9299314510896
4023.5,40.6549995870548
4023.75,40.3757065493116
4024,40.0907771629482
4024.25,39.8058477765848
4024.5,39.5209183902214
4024.75,39.235989003858
4025,38.9510596174946
4025.25,38.6661302311312
4025.5,38.3812008447678
4025.75,38.0962714584044
4026,37.811342072041
4026.25,37.5264126856782
4026.5,37.2414832993148
4026.75,36.9565539129514
4027,36.671624526588
4027.25,36.3866951402246
4027.5,36.1017657538612
4027.75,35.8168363674978
4028,35.5319069811344
4028.25,35.246977594771
4028.5,34.9620482084076
4028.75,34.7978441898604
4029,34.7928454286962
4029.25,34.7878466675319
4029.5,34.7828479063676
4029.75,34.7778491452033
4030,34.7728503840391
4030.25,34.7678516228748
4030.5,34.7628528617105
4030.75,34.7578541005463
4031,34.752855339382
4031.25,34.7478565782177
4031.5,34.7428578170535
4031.75,34.7378590558892
4032,34.7328602947249
4032.25,34.7278615335607
4032.5,34.7228627723964
4032.75,34.7178640112321
4033,34.7128652500678
4033.25,34.7078664889036
4033.5,34.7028677277393
4033.75,34.7831103035737
4034,34.9780619889802
4034.25,35.1730136743868
4034.5,35.3679653597933
4034.75,35.5629170451998
4035,35.7578687306064
4035.25,35.9528204160129
4035.5,36.1477721014194
4035.75,36.342723786826
4036,36.5376754722325
4036.25,36.732627157639
4036.5,36.9275788430455
4036.75,37.1225305284521
4037,37.3174822138582
4037.25,37.5124338992648
4037.5,37.7073855846713
4037.75,37.9023372700778
4038,38.0972889554844
4038.25,38.2922406408909
4038.5,38.4871923262974
4038.75,38.6674002147315
4039,38.8273605719881
4039.25,38.9873209292447
4039.5,39.1472812865014
4039.75,39.307241643758
4040,39.4672020010147
4040.25,39.6271623582713
4040.5,39.787122715528
4040.75,39.9470830727846
4041,40.1070434300412
4041.25,40.2670037872979
4041.5,40.4269641445545
4041.75,40.5869245018112
4042,40.7468848590678
4042.25,40.9068452163244
4042.5,41.0668055735808
4042.75,41.2267659308374
4043,41.3867262880941
4043.25,41.5466866453507
4043.5,41.7066470026073
4043.75,41.8270592399447
4044,41.8920431350803
4044.25,41.9570270302158
4044.5,42.0220109253513
4044.75,42.0869948204868
4045,42.1519787156223
4045.25,42.2169626107578
4045.5,42.2819465058933
4045.75,42.3469304010288
4046,42.4119142961643
4046.25,42.4768981912999
4046.5,42.5418820864354
4046.75,42.6068659815709
4047,42.6718498767064
4047.25,42.7368337718419
4047.5,42.8018176669774
4047.75,42.8668015621129
4048,42.9317854572483
4048.25,42.9967693523838
4048.5,43.0617532475193
4048.75,43.1
4049,43.1
4049.25,43.1
4049.5,43.1
4049.75,43.1
4050,43.1
4050.25,43.1
4050.5,43.1
4050.75,43.1
4051,43.1
4051.25,43.1
4051.5,43.1
4051.75,43.1
4052,43.1
4052.25,43.1
4052.5,43.1
4052.75,43.1
4053,43.1
4053.25,43.1
4053.5,43.1
4053.75,43.1
4054,43.1
4054.25,43.1
4054.5,43.1
4054.75,43.1
4055,43.1
4055.25,43.1
4055.5,43.1
4055.75,43.1
4056,43.1
4056.25,43.1
4056.5,43.1
4056.75,43.1
4057,43.1
4057.25,43.1
4057.5,43.1
4057.75,43.1
4058,43.1
4058.25,43.1
4058.5,43.1
4058.75,42.9735495593288
4059,42.6586276059797
4059.25,42.3437056526307
4059.5,42.0287836992817
4059.75,41.7138617459327
4060,41.3989397925837
4060.25,41.0840178392347
4060.5,40.7690958858857
4060.75,40.4541739325366
4061,40.1392519791876
4061.25,39.8243300258386
4061.5,39.5094080724896
4061.75,39.1944861191406
4062,38.8795641657916
4062.25,38.5646422124426
4062.5,38.2497202590936
4062.75,37.9347983057446
4063,37.6198763523955
4063.25,37.3049543990465
4063.5,36.9900324456975
4063.75,36.7405288058802
4064,36.5905659709521
4064.25,36.4406031360243
4064.5,36.2906403010962
4064.75,36.1406774661681
4065,35.99071463124
4065.25,35.8407517963119
4065.5,35.6907889613838
4065.75,35.5408261264557
4066,35.3908632915276
4066.25,35.2409004565995
4066.5,35.0909376216714
4066.75,34.9409747867433
4067,34.7910119518152
4067.25,34.6410491168871
4067.5,34.491086281959
4067.75,34.3411234470309
4068,34.1911606121028
4068.25,34.0411977771747
4068.5,33.8912349422466
4068.75,33.7804240357728
4069,33.7304364241301
4069.25,33.6804488124874
4069.5,33.6304612008447
4069.75,33.5804735892021
4070,33.5304859775594
4070.25,33.4804983659167
4070.5,33.430510754274
4070.75,33.3805231426313
4071,33.3305355309886
4071.25,33.2805479193459
4071.5,33.2305603077032
4071.75,33.1805726960605
4072,33.1305850844178
4072.25,33.0805974727751
4072.5,33.0306098611324
4072.75,32.9806222494897
4073,32.930634637847
4073.25,32.8806470262043
4073.5,32.8306594145616
4073.75,32.9159691824865
4074,33.2158948523427
4074.25,33.5158205221989
4074.5,33.8157461920551
4074.75,34.1156718619113
4075,34.415597531767
4075.25,34.7155232016232
4075.5,35.0154488714794
4075.75,35.3153745413356
4076,35.6153002111918
4076.25,35.915225881048
4076.5,36.2151515509042
4076.75,36.5150772207604
4077,36.8150028906166
4077.25,37.1149285604728
4077.5,37.414854230329
4077.75,37.7147799001852
4078,38.0147055700414
4078.25,38.3146312398976
4078.5,38.6145569097538
4078.75,38.899218235662
4079,39.1591538162041
4079.25,39.4190893967461
4079.5,39.6790249772881
4079.75,39.9389605578302
4080,40.1988961383722
4080.25,40.4588317189143
4080.5,40.7187672994558
4080.75,40.9787028799979
4081,41.2386384605399
4081.25,41.498574041082
4081.5,41.758509621624
4081.75,42.018445202166
4082,42.2783807827081
4082.25,42.5383163632501
4082.5,42.7982519437922
4082.75,43.0581875243342
4083,43.3181231048763
4083.25,43.5780586854183
4083.5,43.8379942659603
4083.75,44.0282489941834
4084,44.1032304116474
4084.25,44.1782118291115
4084.5,44.2531932465755
4084.75,44.3281746640396
4085,44.4031560815036
4085.25,44.4781374989677
4085.5,44.5531189164317
4085.75,44.6281003338958
4086,44.7030817513597
4086.25,44.7780631688237
4086.5,44.8530445862878
4086.75,44.9280260037518
4087,45.0030074212159
4087.25,45.07798883868
4087.5,45.152970256144
4087.75,45.227951673608
4088,45.3029330910721
4088.25,45.3779145085362
4088.5,45.4528959260002
4088.75,45.4256604174287
4089,45.2257099708579
4089.25,45.0257595242871
4089.5,44.8258090777163
4089.75,44.6258586311455
4090,44.4259081845747
4090.25,44.2259577380039
4090.5,44.0260072914331
4090.75,43.8260568448623
4091,43.6261063982914
4091.25,43.4261559517206
4091.5,43.2262055051502
4091.75,43.0262550585794
4092,42.8263046120086
4092.25,42.6263541654378
4092.5,42.426403718867
4092.75,42.2264532722962
4093,42.0265028257254
4093.25,41.8265523791546
4093.5,41.6266019325838
4093.75,41.432152624562
4094,41.247198461484
4094.25,41.062244298406
4094.5,40.877290135328
4094.75,40.6923359722501
4095,40.5073818091721
4095.25,40.3224276460941
4095.5,40.1374734830161
4095.75,39.9525193199381
4096,39.7675651568601
4096.25,39.5826109937821
4096.5,39.3976568307041
4096.75,39.2127026676265
4097,39.0277485045485
4097.25,38.8427943414705
4097.5,38.6578401783925
4097.75,38.4728860153145
4098,38.2879318522365
4098.25,38.1029776891585
4098.5,37.9180235260805
4098.75,37.8397965949715
4099,37.9497693405854
4099.25,38.0597420861994
4099.5,38.1697148318133
4099.75,38.2796875774272
4100,38.3896603230412
4100.25,38.4996330686551
4100.5,38.6096058142691
4100.75,38.719578559883
4101,38.8295513054969
4101.25,38.9395240511109
4101.5,39.0494967967248
4101.75,39.1594695423388
4102,39.2694422879527
4102.25,39.3794150335664
4102.5,39.4893877791804
4102.75,39.5993605247943
4103,39.7093332704083
4103.25,39.8193060160222
4103.5,39.9292787616361
4103.75,39.9286336231817
4104,39.7286831766109
4104.25,39.5287327300401
4104.5,39.3287822834693
4104.75,39.1288318368985
4105,38.9288813903277
4105.25,38.7289309437569
4105.5,38.5289804971861
4105.75,38.3290300506153
4106,38.1290796040445
4106.25,37.9291291574737
4106.5,37.7291787109029
4106.75,37.529228264332
4107,37.3292778177613
4107.25,37.1293273711904
4107.5,36.9293769246196
4107.75,36.7294264780492
4108,36.5294760314784
4108.25,36.3295255849076
4108.5,36.1295751383368
4108.75,35.9929624691766
4109,35.9729674245195
4109.25,35.9529723798624
4109.5,35.9329773352054
4109.75,35.9129822905483
4110,35.8929872458912
4110.25,35.8729922012341
4110.5,35.852997156577
4110.75,35.83300211192
4111,35.8130070672629
4111.25,35.7930120226058
4111.5,35.7730169779487
4111.75,35.7530219332916
4112,35.7330268886346
4112.25,35.7130318439775
4112.5,35.6930367993204
4112.75,35.6730417546633
4113,35.6530467100062
4113.25,35.6330516653492
4113.5,35.6130566206921
4113.75,35.593061576035
4114,35.573066531378
4114.25,35.5530714867209
4114.5,35.5330764420638
4114.75,35.5130813974067
4115,35.4930863527496
4115.25,35.4730913080926
4115.5,35.4530962634355
4115.75,35.4331012187784
4116,35.4131061741213
4116.25,35.3931111294642
4116.5,35.3731160848072
4116.75,35.3531210401501
4117,35.333125995493
4117.25,35.3131309508359
4117.5,35.2931359061788
4117.75,35.2731408615218
4118,35.2531458168647
4118.25,35.2331507722076
4118.5,35.2131557275505
4118.75,35.1846115365103
4119,35.1396226860319
4119.25,35.0946338355534
4119.5,35.049644985075
4119.75,35.0046561345966
4120,34.9596672841182
4120.25,34.9146784336397
4120.5,34.8696895831613
4120.75,34.8247007326829
4121,34.7797118822044
4121.25,34.734723031726
4121.5,34.6897341812476
4121.75,34.6447453307691
4122,34.5997564802907
4122.25,34.5547676298123
4122.5,34.5097787793338
4122.75,34.4647899288554
4123,34.419801078377
4123.25,34.3748122278986
4123.5,34.3298233774201
4123.75,34.2730391590075
4124,34.1930589803793
4124.25,34.113078801751
4124.5,34.0330986231226
4124.75,33.9531184444943
4125,33.873138265866
4125.25,33.7931580872377
4125.5,33.7131779086094
4125.75,33.633197729981
4126,33.5532175513527
4126.25,33.4732373727244
4126.5,33.3932571940961
4126.75,33.3132770154678
4127,33.2332968368394
4127.25,33.1533166582111
4127.5,33.0733364795828
4127.75,32.9933563009545
4128,32.9133761223262
4128.25,32.8333959436978
4128.5,32.7534157650695
4128.75,32.7
4129,32.7
4129.25,32.7
4129.5,32.7
4129.75,32.7
4130,32.7
4130.25,32.7
4130.5,32.7
4130.75,32.7
4131,32.7
4131.25,32.7
4131.5,32.7
4131.75,32.7
4132,32.7
4132.25,32.7
4132.5,32.7
4132.75,32.7
4133,32.7
4133.25,32.7
4133.5,32.7
4133.75,32.6885515060703
4134,32.6535601779204
4134.25,32.6185688497705
4134.5,32.5835775216206
4134.75,32.5485861934707
4135,32.5135948653209
4135.25,32.478603537171
4135.5,32.4436122090211
4135.75,32.4086208808712
4136,32.3736295527213
4136.25,32.3386382245714
4136.5,32.3036468964216
4136.75,32.2686555682717
4137,32.2336642401218
4137.25,32.1986729119719
4137.5,32.163681583822
4137.75,32.1286902556721
4138,32.0936989275222
4138.25,32.0587075993723
4138.5,32.0237162712224
4138.75,31.9323496584352
4139,31.7224016895359
4139.25,31.5124537206366
4139.5,31.3025057517372
4139.75,31.0925577828379
4140,30.8826098139385
4140.25,30.6726618450392
4140.5,30.4627138761402
4140.75,30.2527659072409
4141,30.0428179383415
4141.25,29.8328699694422
4141.5,29.6229220005429
4141.75,29.4129740316435
4142,29.2030260627442
4142.25,28.9930780938448
4142.5,28.7831301249455
4142.75,28.5731821560462
4143,28.3632341871468
4143.25,28.1532862182475
4143.5,27.9433382493481
4143.75,27.7888983800748
4144,27.7539070519249
4144.25,27.718915723775
4144.5,27.6839243956251
4144.75,27.6489330674752
4145,27.6139417393253
4145.25,27.5789504111755
4145.5,27.5439590830256
4145.75,27.5089677548757
4146,27.4739764267259
4146.25,27.438985098576
4146.5,27.4039937704261
4146.75,27.3690024422762
4147,27.3340111141263
4147.25,27.2990197859764
4147.5,27.2640284578265
4147.75,27.2290371296766
4148,27.1940458015267
4148.25,27.1590544733768
4148.5,27.1240631452269
4148.75,27.095316493033
4149,27.0803202095402
4149.25,27.0653239260474
4149.5,27.0503276425546
4149.75,27.0353313590618
4150,27.020335075569
4150.25,27.0053387920762
4150.5,26.9903425085834
4150.75,26.9753462250905
4151,26.9603499415977
4151.25,26.945353658105
4151.5,26.9303573746121
4151.75,26.9153610911193
4152,26.9003648076265
4152.25,26.8853685241337
4152.5,26.8703722406409
4152.75,26.8553759571481
4153,26.8403796736553
4153.25,26.8253833901625
4153.5,26.8103871066697
4153.75,26.8
4154,26.8
4154.25,26.8
4154.5,26.8
4154.75,26.8
4155,26.8
4155.25,26.8
4155.5,26.8
4155.75,26.8
4156,26.8
4156.25,26.8
4156.5,26.8
4156.75,26.8
4157,26.8
4157.25,26.8
4157.5,26.8
4157.75,26.8
4158,26.8
4158.25,26.8
4158.5,26.8
4158.75,26.7833722288425
4159,26.7283858560355
4159.25,26.6733994832285
4159.5,26.6184131104216
4159.75,26.5634267376146
4160,26.5084403648076
4160.25,26.4534539920007
4160.5,26.3984676191937
4160.75,26.3434812463867
4161,26.2884948735797
4161.25,26.2335085007728
4161.5,26.1785221279658
4161.75,26.1235357551588
4162,26.0685493823519
4162.25,26.013563009545
4162.5,25.958576636738
4162.75,25.903590263931
4163,25.8486038911241
4163.25,25.7936175183171
4163.5,25.7386311455101
4163.75,25.6895921280838
4164,25.6546007999339
4164.25,25.6196094717841
4164.5,25.5846181436342
4164.75,25.5496268154843
4165,25.5146354873344
4165.25,25.4796441591845
4165.5,25.4446528310346
4165.75,25.4096615028847
4166,25.3746701747348
4166.25,25.3396788465849
4166.5,25.304687518435
4166.75,25.2696961902851
4167,25.2347048621353
4167.25,25.1997135339854
4167.5,25.1647222058355
4167.75,25.1297308776857
4168,25.0947395495358
4168.25,25.0597482213859
4168.5,25.024756893236
4168.75,24.9941517514778
4169,24.9741567068207
4169.25,24.9541616621636
4169.5,24.9341666175065
4169.75,24.9141715728494
4170,24.8941765281924
4170.25,24.8741814835353
4170.5,24.8541864388782
4170.75,24.8341913942211
4171,24.814196349564
4171.25,24.794201304907
4171.5,24.7742062602499
4171.75,24.7542112155928
4172,24.7342161709357
4172.25,24.7142211262786
4172.5,24.6942260816216
4172.75,24.6742310369645
4173,24.6542359923074
4173.25,24.6342409476504
4173.5,24.6142459029933
4173.75,24.5928135729202
4174,24.5678197670989
4174.25,24.5428259612776
4174.5,24.5178321554562
4174.75,24.4928383496349
4175,24.4678445438135
4175.25,24.4428507379921
4175.5,24.4178569321708
4175.75,24.3928631263495
4176,24.3678693205281
4176.25,24.3428755147067
4176.5,24.3178817088854
4176.75,24.292887903064
4177,24.2678940972427
4177.25,24.2429002914214
4177.5,24.2179064856
4177.75,24.1929126797786
4178,24.1679188739573
4178.25,24.1429250681359
4178.5,24.1179312623146
4178.75,24.0759873520772
4179,23.9910084122846
4179.25,23.906029472492
4179.5,23.8210505326994
4179.75,23.7360715929068
4180,23.6510926531142
4180.25,23.5661137133216
4180.5,23.4811347735291
4180.75,23.3961558337365
4181,23.3111768939439
4181.25,23.2261979541513
4181.5,23.1412190143587
4181.75,23.0562400745661
4182,22.9712611347735
4182.25,22.8862821949809
4182.5,22.8013032551883
4182.75,22.7163243153957
4183,22.6313453756032
4183.25,22.5463664358106
4183.5,22.461387496018
4183.75,22.4
4184,22.4
4184.25,22.4
4184.5,22.4
4184.75,22.4
4185,22.4
4185.25,22.4
4185.5,22.4
4185.75,22.4
4186,22.4
4186.25,22.4
4186.5,22.4
4186.75,22.4
4187,22.4
4187.25,22.4
4187.5,22.4
4187.75,22.4
4188,22.4
4188.25,22.4
4188.5,22.4
4188.75,22.4
4189,22.4
4189.25,22.4
4189.5,22.4
4189.75,22.4
4190,22.4
4190.25,22.4
4190.5,22.4
4190.75,22.4
4191,22.4
4191.25,22.4
4191.5,22.4
4191.75,22.4
4192,22.4
4192.25,22.4
4192.5,22.4
4192.75,22.4
4193,22.4
4193.25,22.4
4193.5,22.4
4193.75,22.3799273216371
4194,22.3049459041731
4194.25,22.229964486709
4194.5,22.154983069245
4194.75,22.080001651781
4195,22.005020234317
4195.25,21.9300388168529
4195.5,21.8550573993889
4195.75,21.7800759819248
4196,21.7050945644608
4196.25,21.6301131469967
4196.5,21.5551317295327
4196.75,21.4801503120686
4197,21.4051688946046
4197.25,21.3301874771405
4197.5,21.2552060596765
4197.75,21.1802246422124
4198,21.1052432247484
4198.25,21.0302618072843
4198.5,20.9552803898203
4198.75,20.9118206165863
4199,20.9568094670647
4199.25,21.0017983175431
4199.5,21.0467871680215
4199.75,21.0917760185
4200,21.1367648689784
4200.25,21.1817537194568
4200.5,21.2267425699352
4200.75,21.2717314204136
4201,21.316720270892
4201.25,21.3617091213705
4201.5,21.4066979718489
4201.75,21.4516868223273
4202,21.4966756728058
4202.25,21.5416645232842
4202.5,21.5866533737626
4202.75,21.6316422242411
4203,21.6766310747195
4203.25,21.7216199251979
4203.5,21.7666087756764
4203.75,21.8270611276945
4204,21.9320351121442
4204.25,22.0370090965938
4204.5,22.1419830810435
4204.75,22.2469570654932
4205,22.3519310499428
4205.25,22.4569050343925
4205.5,22.5618790188422
4205.75,22.6668530032917
4206,22.7718269877413
4206.25,22.876800972191
4206.5,22.9817749566407
4206.75,23.0867489410903
4207,23.19172292554
4207.25,23.2966969099897
4207.5,23.4016708944394
4207.75,23.506644878889
4208,23.6116188633387
4208.25,23.7165928477884
4208.5,23.821566832238
4208.75,23.9151661809644
4209,23.9751513149356
4209.25,24.0351364489069
4209.5,24.0951215828781
4209.75,24.1551067168494
4210,24.2150918508206
4210.25,24.2750769847918
4210.5,24.3350621187631
4210.75,24.3950472527343
4211,24.4550323867055
4211.25,24.5150175206767
4211.5,24.5750026546479
4211.75,24.6349877886192
4212,24.6949729225904
4212.25,24.7549580565617
4212.5,24.8149431905329
4212.75,24.8749283245041
4213,24.9349134584754
4213.25,24.9948985924466
4213.5,25.0548837264179
4213.75,25.1161079320882
4214,25.1810918272237
4214.25,25.2460757223592
4214.5,25.3110596174947
4214.75,25.3760435126302
4215,25.4410274077658
4215.25,25.5060113029013
4215.5,25.5709951980368
4215.75,25.6359790931723
4216,25.7009629883078
4216.25,25.7659468834433
4216.5,25.8309307785787
4216.75,25.8959146737142
4217,25.9608985688497
4217.25,26.0258824639852
4217.5,26.0908663591207
4217.75,26.1558502542562
4218,26.2208341493918
4218.25,26.2858180445273
4218.5,26.3508019396628
4218.75,26.3829998702172
4219,26.3130172139174
4219.25,26.2430345576177
4219.5,26.1730519013179
4219.75,26.1030692450181
4220,26.0330865887183
4220.25,25.9631039324185
4220.5,25.8931212761188
4220.75,25.823138619819
4221,25.7531559635192
4221.25,25.6831733072194
4221.5,25.6131906509196
4221.75,25.5432079946199
4222,25.4732253383202
4222.25,25.4032426820204
4222.5,25.3332600257206
4222.75,25.2632773694209
4223,25.1932947131211
4223.25,25.1233120568213
4223.5,25.0533294005215
4223.75,24.9773991528724
4224,24.8824226907512
4224.25,24.7874462286301
4224.5,24.692469766509
4224.75,24.5974933043878
4225,24.5025168422667
4225.25,24.4075403801456
4225.5,24.3125639180245
4225.75,24.2175874559033
4226,24.1226109937822
4226.25,24.0276345316611
4226.5,23.9326580695399
4226.75,23.8376816074188
4227,23.7427051452977
4227.25,23.6477286831765
4227.5,23.5527522210556
4227.75,23.4577757589344
4228,23.3627992968133
4228.25,23.2678228346922
4228.5,23.1728463725711
4228.75,23.1046589662211
4229,23.1246540108782
4229.25,23.1446490555352
4229.5,23.1646441001923
4229.75,23.1846391448494
4230,23.2046341895065
4230.25,23.2246292341636
4230.5,23.2446242788206
4230.75,23.2646193234777
4231,23.2846143681348
4231.25,23.3046094127919
4231.5,23.3246044574489
4231.75,23.344599502106
4232,23.3645945467631
4232.25,23.3845895914202
4232.5,23.4045846360773
4232.75,23.4245796807343
4233,23.4445747253914
4233.25,23.4645697700485
4233.5,23.4845648147056
4233.75,23.4737808086649
4234,23.3588093018866
4234.25,23.2438377951084
4234.5,23.1288662883302
4234.75,23.013894781552
4235,22.8989232747738
4235.25,22.7839517679956
4235.5,22.6689802612174
4235.75,22.5540087544392
4236,22.439037247661
4236.25,22.3240657408827
4236.5,22.2090942341045
4236.75,22.0941227273263
4237,21.9791512205481
4237.25,21.8641797137699
4237.5,21.7492082069917
4237.75,21.6342367002135
4238,21.5192651934353
4238.25,21.4042936866573
4238.5,21.2893221798791
4238.75,21.1654291680924
4239,21.0104675720001
4239.25,20.8555059759077
4239.5,20.7005443798153
4239.75,20.545582783723
4240,20.3906211876306
4240.25,20.2356595915382
4240.5,20.0806979954458
4240.75,19.9257363993535
4241,19.7707748032611
4241.25,19.6158132071687
4241.5,19.4608516110764
4241.75,19.305890014984
4242,19.1509284188916
4242.25,18.9959668227992
4242.5,18.8410052267069
4242.75,18.6860436306145
4243,18.5310820345221
4243.25,18.3761204384298
4243.5,18.2211588423374
4243.75,18.0749205375368
4244,17.9599490307586
4244.25,17.8449775239804
4244.5,17.7300060172022
4244.75,17.615034510424
4245,17.5000630036458
4245.25,17.3850914968676
4245.5,17.2701199900894
4245.75,17.1551484833112
4246,17.0401769765329
4246.25,16.9252054697547
4246.5,16.8102339629765
4246.75,16.6952624561983
4247,16.5802909494201
4247.25,16.4653194426419
4247.5,16.3503479358637
4247.75,16.2353764290855
4248,16.1204049223073
4248.25,16.005433415529
4248.5,15.8904619087508
4248.75,15.7818842101537
4249,15.6969052703611
4249.25,15.6119263305687
4249.5,15.5269473907761
4249.75,15.4419684509835
4250,15.3569895111909
4250.25,15.2720105713983
4250.5,15.1870316316057
4250.75,15.1020526918131
4251,15.0170737520205
4251.25,14.9320948122279
4251.5,14.8471158724353
4251.75,14.7621369326427
4252,14.6771579928502
4252.25,14.5921790530576
4252.5,14.507200113265
4252.75,14.4222211734724
4253,14.3372422336798
4253.25,14.2522632938872
4253.5,14.1672843540946
4253.75,14.0718968344797
4254,13.9369302830444
4254.25,13.8019637316091
4254.5,13.666997180174
4254.75,13.5320306287388
4255,13.3970640773035
4255.25,13.2620975258682
4255.5,13.1271309744329
4255.75,12.9921644229976
4256,12.8571978715623
4256.25,12.722231320127
4256.5,12.5872647686917
4256.75,12.4522982172564
4257,12.3173316658211
4257.25,12.1823651143858
4257.5,12.0473985629506
4257.75,11.9124320115153
4258,11.77746546008
4258.25,11.6424989086447
4258.5,11.5075323572094
4258.75,11.3685014807036
4259,11.2135398846112
4259.25,11.0585782885189
4259.5,10.9036166924265
4259.75,10.7486550963341
4260,10.593693500242
4260.25,10.4387319041497
4260.5,10.2837703080573
4260.75,10.1288087119649
4261,9.97384711587254
4261.25,9.81888551978017
4261.5,9.6639239236878
4261.75,9.50896232759543
4262,9.35400073150306
4262.25,9.19903913541069
4262.5,9.04407753931831
4262.75,8.88911594322594
4263,8.73415434713357
4263.25,8.5791927510412
4263.5,8.42423115494883
4263.75,8.30396521821207
4264,8.32396026286915
4264.25,8.34395530752623
4264.5,8.36395035218331
4264.75,8.38394539684039
4265,8.40394044149747
4265.25,8.42393548615455
4265.5,8.4439305308116
4265.75,8.46392557546868
4266,8.48392062012575
4266.25,8.50391566478283
4266.5,8.52391070943992
4266.75,8.543905754097
4267,8.56390079875407
4267.25,8.58389584341116
4267.5,8.60389088806824
4267.75,8.62388593272532
4268,8.64388097738239
4268.25,8.66387602203948
4268.5,8.68387106669656
4268.75,8.72223014028341
4269,8.83720164706162
4269.25,8.95217315383983
4269.5,9.06714466061804
4269.75,9.18211616739625
4270,9.29708767417446
4270.25,9.41205918095267
4270.5,9.52703068773089
4270.75,9.64200219450909
4271,9.7569737012871
4271.25,9.87194520806531
4271.5,9.98691671484352
4271.75,10.1018882216217
4272,10.2168597283999
4272.25,10.3318312351782
4272.5,10.4468027419564
4272.75,10.5617742487346
4273,10.6767457555128
4273.25,10.791717262291
4273.5,10.9066887690692
4273.75,11.018835022476
4274,11.1188102457614
4274.25,11.2187854690468
4274.5,11.3187606923322
4274.75,11.4187359156176
4275,11.518711138903
4275.25,11.6186863621884
4275.5,11.7186615854738
4275.75,11.8186368087592
4276,11.9186120320446
4276.25,12.0185872553298
4276.5,12.1185624786152
4276.75,12.2185377019006
4277,12.318512925186
4277.25,12.4184881484714
4277.5,12.5184633717568
4277.75,12.6184385950422
4278,12.7184138183276
4278.25,12.818389041613
4278.5,12.9183642648984
4278.75,13.0293431810942
4279,13.1893035383508
4279.25,13.3492638956074
4279.5,13.5092242528641
4279.75,13.6691846101207
4280,13.8291449673774
4280.25,13.989105324634
4280.5,14.1490656818906
4280.75,14.3090260391473
4281,14.4689863964039
4281.25,14.6289467536606
4281.5,14.7889071109172
4281.75,14.9488674681736
4282,15.1088278254302
4282.25,15.2687881826868
4282.5,15.4287485399435
4282.75,15.5887088972001
4283,15.7486692544568
4283.25,15.9086296117134
4283.5,16.06858996897
4283.75,16.2240893377538
4284,16.3590558891891
4284.25,16.4940224406243
4284.5,16.6289889920596
4284.75,16.7639555434949
4285,16.8989220949302
4285.25,17.0338886463655
4285.5,17.1688551978008
4285.75,17.3038217492361
4286,17.4387883006714
4286.25,17.5737548521067
4286.5,17.708721403542
4286.75,17.8436879549773
4287,17.9786545064126
4287.25,18.1136210578476
4287.5,18.2485876092829
4287.75,18.3835541607182
4288,18.5185207121535
4288.25,18.6534872635888
4288.5,18.788453815024
4288.75,18.9407687860589
4289,19.1757105607795
4289.25,19.4106523355002
4289.5,19.6455941102209
4289.75,19.8805358849416
4290,20.1154776596623
4290.25,20.350419434383
4290.5,20.5853612091037
4290.75,20.8203029838244
4291,21.0552447585451
4291.25,21.2901865332658
4291.5,21.5251283079865
4291.75,21.7600700827072
4292,21.9950118574278
4292.25,22.2299536321485
4292.5,22.4648954068692
4292.75,22.6998371815895
4293,22.9347789563102
4293.25,23.1697207310309
4293.5,23.4046625057516
4293.75,23.6210661066342
4294,23.7460351357409
4294.25,23.8710041648477
4294.5,23.9959731939544
4294.75,24.1209422230612
4295,24.2459112521679
4295.25,24.3708802812747
4295.5,24.4958493103814
4295.75,24.6208183394882
4296,24.7457873685949
4296.25,24.8707563977017
4296.5,24.9957254268084
4296.75,25.1206944559152
4297,25.2456634850219
4297.25,25.3706325141287
4297.5,25.4956015432354
4297.75,25.6205705723422
4298,25.7455396014489
4298.25,25.8705086305555
4298.5,25.9954776596622
4298.75,26.1106322781599
4299,26.1756161732954
4299.25,26.2406000684309
4299.5,26.3055839635664
4299.75,26.3705678587019
4300,26.4355517538374
4300.25,26.5005356489729
4300.5,26.5655195441084
4300.75,26.6305034392439
4301,26.6954873343795
4301.25,26.760471229515
4301.5,26.8254551246505
4301.75,26.890439019786
4302,26.9554229149215
4302.25,27.020406810057
4302.5,27.0853907051925
4302.75,27.150374600328
4303,27.2153584954635
4303.25,27.2803423905991
4303.5,27.3453262857344
4303.75,27.4142756350507
4304,27.5042533360076
4304.25,27.5942310369644
4304.5,27.6842087379213
4304.75,27.7741864388782
4305,27.864164139835
4305.25,27.9541418407919
4305.5,28.0441195417487
4305.75,28.1340972427056
4306,28.2240749436625
4306.25,28.3140526446193
4306.5,28.4040303455762
4306.75,28.494008046533
4307,28.5839857474899
4307.25,28.6739634484468
4307.5,28.7639411494036
4307.75,28.8539188503605
4308,28.9438965513173
4308.25,29.0338742522742
4308.5,29.1238519532311
4308.75,29.215366282431
4309,29.3153415057162
4309.25,29.4153167290016
4309.5,29.515291952287
4309.75,29.6152671755724
4310,29.7152423988578
4310.25,29.8152176221432
4310.5,29.9151928454286
4310.75,30.015168068714
4311,30.1151432919994
4311.25,30.2151185152848
4311.5,30.3150937385702
4311.75,30.4150689618556
4312,30.5150441851411
4312.25,30.6150194084265
4312.5,30.7149946317119
4312.75,30.8149698549973
4313,30.9149450782827
4313.25,31.0149203015681
4313.5,31.1148955248535
4313.75,31.2141272107319
4314,31.309103672853
4314.25,31.4040801349742
4314.5,31.4990565970951
4314.75,31.5940330592163
4315,31.6890095213374
4315.25,31.7839859834585
4315.5,31.8789624455797
4315.75,31.9739389077008
4316,32.0689153698219
4316.25,32.163891831943
4316.5,32.2588682940642
4316.75,32.3538447561853
4317,32.4488212183064
4317.25,32.5437976804276
4317.5,32.6387741425487
4317.75,32.7337506046698
4318,32.828727066791
4318.25,32.9237035289121
4318.5,33.0186799910332
4318.75,33.1014375213847
4319,33.1114350437132
4319.25,33.1214325660417
4319.5,33.1314300883703
4319.75,33.1414276106988
4320,33.1514251330274
4320.25,33.1614226553559
4320.5,33.1714201776844
4320.75,33.181417700013
4321,33.1914152223415
4321.25,33.2014127446701
4321.5,33.2114102669986
4321.75,33.2214077893271
4322,33.2314053116557
4322.25,33.2414028339842
4322.5,33.2514003563128
4322.75,33.2613978786413
4323,33.2713954009698
4323.25,33.2813929232984
4323.5,33.2913904456269
4323.75,33.2979180480668
4324,33.282921764574
4324.25,33.2679254810812
4324.5,33.2529291975884
4324.75,33.2379329140956
4325,33.2229366306028
4325.25,33.20794034711
4325.5,33.1929440636172
4325.75,33.1779477801244
4326,33.1629514966316
4326.25,33.1479552131387
4326.5,33.1329589296459
4326.75,33.1179626461531
4327,33.1029663626603
4327.25,33.0879700791675
4327.5,33.0729737956747
4327.75,33.0579775121819
4328,33.0429812286891
4328.25,33.0279849451963
4328.5,33.0129886617035
4328.75,32.9892926837901
4329,32.9093125051618
4329.25,32.8293323265335
4329.5,32.7493521479052
4329.75,32.6693719692768
4330,32.5893917906485
4330.25,32.5094116120202
4330.5,32.4294314333919
4330.75,32.3494512547637
4331,32.2694710761354
4331.25,32.1894908975071
4331.5,32.1095107188787
4331.75,32.0295305402504
4332,31.9495503616221
4332.25,31.8695701829938
4332.5,31.7895900043655
4332.75,31.7096098257371
4333,31.6296296471088
4333.25,31.5496494684805
4333.5,31.4696692898522
4333.75,31.3729339169626
4334,31.1629859480633
4334.25,30.9530379791639
4334.5,30.7430900102646
4334.75,30.5331420413652
4335,30.3231940724659
4335.25,30.1132461035666
4335.5,29.9032981346672
4335.75,29.6933501657679
4336,29.4834021968685
4336.25,29.2734542279696
4336.5,29.0635062590702
4336.75,28.8535582901709
4337,28.6436103212716
4337.25,28.4336623523722
4337.5,28.2237143834729
4337.75,28.0137664145735
4338,27.8038184456742
4338.25,27.5938704767748
4338.5,27.3839225078755
4338.75,27.1708762698067
4339,26.935934495086
4339.25,26.7009927203653
4339.5,26.4660509456446
4339.75,26.2311091709239
4340,25.9961673962032
4340.25,25.7612256214825
4340.5,25.5262838467618
4340.75,25.2913420720411
4341,25.0564002973204
4341.25,24.8214585225997
4341.5,24.586516747879
4341.75,24.3515749731588
4342,24.1166331984381
4342.25,23.8816914237174
4342.5,23.6467496489967
4342.75,23.411807874276
4343,23.1768660995553
4343.25,22.9419243248346
4343.5,22.7069825501139
4343.75,22.4833434406598
4344,22.3433781280602
4344.25,22.2034128154607
4344.5,22.0634475028611
4344.75,21.9234821902616
4345,21.783516877662
4345.25,21.6435515650624
4345.5,21.5035862524629
4345.75,21.3636209398633
4346,21.2236556272638
4346.25,21.0836903146642
4346.5,20.9437250020646
4346.75,20.8037596894651
4347,20.6637943768658
4347.25,20.5238290642662
4347.5,20.3838637516666
4347.75,20.2438984390671
4348,20.1039331264675
4348.25,19.963967813868
4348.5,19.8240025012684
4348.75,19.6828969878595
4349,19.5329341529314
4349.25,19.3829713180033
4349.5,19.2330084830752
4349.75,19.0830456481471
4350,18.933082813219
4350.25,18.7831199782909
4350.5,18.6331571433628
4350.75,18.4831943084347
4351,18.3332314735066
4351.25,18.1832686385785
4351.5,18.0333058036504
4351.75,17.8833429687223
4352,17.7333801337942
4352.25,17.5834172988661
4352.5,17.4334544639382
4352.75,17.2834916290101
4353,17.133528794082
4353.25,16.9835659591539
4353.5,16.8336031242258
4353.75,16.6880028788183
4354,16.5780301332044
4354.25,16.4680573875905
4354.5,16.3580846419765
4354.75,16.2481118963626
4355,16.1381391507486
4355.25,16.0281664051347
4355.5,15.9181936595207
4355.75,15.8082209139068
4356,15.6982481682929
4356.25,15.5882754226789
4356.5,15.478302677065
4356.75,15.368329931451
4357,15.2583571858371
4357.25,15.1483844402232
4357.5,15.0384116946092
4357.75,14.9284389489953
4358,14.8184662033815
4358.25,14.7084934577676
4358.5,14.5985207121537
4358.75,14.5104109395093
4359,14.6103861627947
4359.25,14.7103613860801
4359.5,14.8103366093656
4359.75,14.910311832651
4360,15.0102870559364
4360.25,15.1102622792218
4360.5,15.2102375025072
4360.75,15.3102127257926
4361,15.410187949078
4361.25,15.5101631723634
4361.5,15.6101383956488
4361.75,15.7101136189342
4362,15.8100888422196
4362.25,15.910064065505
4362.5,16.0100392887904
4362.75,16.1100145120758
4363,16.2099897353612
4363.25,16.3099649586466
4363.5,16.4099401819318
4363.75,16.5084280944346
4364,16.5934070342272
4364.25,16.6783859740198
4364.5,16.7633649138124
4364.75,16.848343853605
4365,16.9333227933976
4365.25,17.0183017331901
4365.5,17.1032806729827
4365.75,17.1882596127753
4366,17.2732385525679
4366.25,17.3582174923605
4366.5,17.4431964321531
4366.75,17.5281753719457
4367,17.6131543117383
4367.25,17.6981332515309
4367.5,17.7831121913235
4367.75,17.8680911311161
4368,17.9530700709086
4368.25,18.0380490107012
4368.5,18.1230279504938
4368.75,18.2051809290088
4369,18.2601673018157
4369.25,18.3151536746227
4369.5,18.3701400474297
4369.75,18.4251264202366
4370,18.4801127930436
4370.25,18.5350991658506
4370.5,18.5900855386576
4370.75,18.6450719114645
4371,18.7000582842715
4371.25,18.7550446570785
4371.5,18.8100310298854
4371.75,18.8650174026924
4372,18.9200037754994
4372.25,18.9749901483063
4372.5,19.0299765211133
4372.75,19.0849628939203
4373,19.1399492667273
4373.25,19.1949356395342
4373.5,19.2499220123412
4373.75,19.2906294465353
4374,19.1856554620857
4374.25,19.0806814776362
4374.5,18.9757074931865
4374.75,18.8707335087368
4375,18.7657595242872
4375.25,18.6607855398375
4375.5,18.5558115553878
4375.75,18.4508375709381
4376,18.3458635864885
4376.25,18.2408896020388
4376.5,18.1359156175891
4376.75,18.0309416331395
4377,17.9259676486898
4377.25,17.8209936642401
4377.5,17.7160196797905
4377.75,17.6110456953408
4378,17.5060717108911
4378.25,17.4010977264414
4378.5,17.2961237419918
4378.75,17.1886211168398
4379,17.0536545654046
4379.25,16.9186880139693
4379.5,16.783721462534
4379.75,16.6487549110989
4380,16.5137883596636
4380.25,16.3788218082283
4380.5,16.243855256793
4380.75,16.1088887053578
4381,15.9739221539225
4381.25,15.8389556024872
4381.5,15.7039890510519
4381.75,15.5690224996166
4382,15.4340559481813
4382.25,15.299089396746
4382.5,15.1641228453107
4382.75,15.0291562938754
4383,14.8941897424401
4383.25,14.7592231910048
4383.5,14.6242566395696
4383.75,14.5067432778414
4384,14.591722217634
4384.25,14.6767011574266
4384.5,14.7616800972192
4384.75,14.8466590370118
4385,14.9316379768043
4385.25,15.0166169165968
4385.5,15.1015958563894
4385.75,15.186574796182
4386,15.2715537359745
4386.25,15.3565326757671
4386.5,15.4415116155597
4386.75,15.5264905553523
4387,15.6114694951449
4387.25,15.6964484349375
4387.5,15.7814273747301
4387.75,15.8664063145227
4388,15.9513852543153
4388.25,16.0363641941079
4388.5,16.1213431339005
4388.75,16.206322073693
4389,16.2913010134856
4389.25,16.3762799532782
4389.5,16.4612588930708
4389.75,16.5462378328634
4390,16.631216772656
4390.25,16.7161957124486
4390.5,16.801174652241
4390.75,16.8861535920336
4391,16.9711325318262
4391.25,17.0561114716188
4391.5,17.1410904114114
4391.75,17.226069351204
4392,17.3110482909966
4392.25,17.3960272307892
4392.5,17.4810061705817
4392.75,17.5659851103743
4393,17.6509640501669
4393.25,17.7359429899595
4393.5,17.8209219297521
4393.75,17.9003471099732
4394,17.9053458711375
4394.25,17.9103446323018
4394.5,17.915343393466
4394.75,17.9203421546303
4395,17.9253409157946
4395.25,17.9303396769588
4395.5,17.9353384381231
4395.75,17.9403371992874
4396,17.9453359604516
4396.25,17.9503347216159
4396.5,17.9553334827802
4396.75,17.9603322439445
4397,17.9653310051087
4397.25,17.970329766273
4397.5,17.9753285274373
4397.75,17.9803272886015
4398,17.9853260497658
4398.25,17.9903248109301
4398.5,17.9953235720943
4398.75,18.0096699977583
4399,18.1596328326864
4399.25,18.3095956676145
4399.5,18.4595585025426
4399.75,18.6095213374707
4400,18.7594841723988
4400.25,18.9094470073269
4400.5,19.059409842255
4400.75,19.2093726771831
4401,19.3593355121112
4401.25,19.5092983470393
4401.5,19.6592611819671
4401.75,19.8092240168952
4402,19.9591868518233
4402.25,20.1091496867514
4402.5,20.2591125216795
4402.75,20.4090753566076
4403,20.5590381915357
4403.25,20.7090010264638
4403.5,20.8589638613919
4403.75,21.0220191842561
4404,21.3919275104121
4404.25,21.761835836568
4404.5,22.131744162724
4404.75,22.50165248888
4405,22.871560815036
4405.25,23.241469141192
4405.5,23.611377467348
4405.75,23.9812857935039
4406,24.3511941196599
4406.25,24.7211024458159
4406.5,25.0910107719719
4406.75,25.4609190981279
4407,25.8308274242832
4407.25,26.2007357504392
4407.5,26.5706440765951
4407.75,26.9405524027511
4408,27.3104607289071
4408.25,27.6803690550631
4408.5,28.0502773812191
4408.75,28.4122750923227
4409,28.6372193447148
4409.25,28.862163597107
4409.5,29.0871078494991
4409.75,29.3120521018913
4410,29.5369963542834
4410.25,29.7619406066756
4410.5,29.9868848590677
4410.75,30.2118291114599
4411,30.436773363852
4411.25,30.6617176162442
4411.5,30.8866618686363
4411.75,31.1116061210285
4412,31.3365503734206
4412.25,31.5614946258124
4412.5,31.7864388782045
4412.75,32.0113831305967
4413,32.2363273829888
4413.25,32.461271635381
4413.5,32.6862158877731
4413.75,32.9037200467218
4414,32.9787014641858
4414.25,33.0536828816499
4414.5,33.1286642991139
4414.75,33.203645716578
4415,33.278627134042
4415.25,33.3536085515061
4415.5,33.4285899689701
4415.75,33.5035713864342
4416,33.5785528038982
4416.25,33.6535342213623
4416.5,33.7285156388263
4416.75,33.8034970562904
4417,33.8784784737544
4417.25,33.9534598912185
4417.5,34.0284413086825
4417.75,34.1034227261464
4418,34.1784041436105
4418.25,34.2533855610745
4418.5,34.3283669785386
4418.75,34.4002232264002
4419,34.4052219875644
4419.25,34.4102207487287
4419.5,34.415219509893
4419.75,34.4202182710573
4420,34.4252170322215
4420.25,34.4302157933858
4420.5,34.4352145545501
4420.75,34.4402133157143
4421,34.4452120768786
4421.25,34.4502108380429
4421.5,34.4552095992071
4421.75,34.4602083603714
4422,34.4652071215357
4422.25,34.4702058827
4422.5,34.4752046438642
4422.75,34.4802034050285
4423,34.4852021661928
4423.25,34.490200927357
4423.5,34.4951996885213
4423.75,34.498610852201
4424,34.4636195240511
4424.25,34.4286281959012
4424.5,34.3936368677514
4424.75,34.3586455396015
4425,34.3236542114516
4425.25,34.2886628833017
4425.5,34.2536715551518
4425.75,34.2186802270019
4426,34.183688898852
4426.25,34.1486975707021
4426.5,34.1137062425522
4426.75,34.0787149144023
4427,34.0437235862525
4427.25,34.0087322581026
4427.5,33.9737409299527
4427.75,33.9387496018028
4428,33.9037582736529
4428.25,33.868766945503
4428.5,33.8337756173531
4428.75,33.7989579621742
4429,33.7689653951886
4429.25,33.738972828203
4429.5,33.7089802612174
4429.75,33.6789876942318
4430,33.6489951272461
4430.25,33.6190025602605
4430.5,33.5890099932749
4430.75,33.5590174262893
4431,33.5290248593037
4431.25,33.499032292318
4431.5,33.4690397253324
4431.75,33.4390471583468
4432,33.4090545913612
4432.25,33.3790620243756
4432.5,33.3490694573899
4432.75,33.3190768904043
4433,33.2890843234187
4433.25,33.2590917564331
4433.5,33.2290991894475
4433.75,33.2022334438454
4434,33.2772148613093
4434.25,33.3521962787734
4434.5,33.4271776962374
4434.75,33.5021591137015
4435,33.5771405311655
4435.25,33.6521219486296
4435.5,33.7271033660936
4435.75,33.8020847835577
4436,33.8770662010217
4436.25,33.9520476184858
4436.5,34.0270290359498
4436.75,34.1020104534139
4437,34.1769918708779
4437.25,34.251973288342
4437.5,34.326954705806
4437.75,34.4019361232701
4438,34.4769175407341
4438.25,34.5518989581982
4438.5,34.6268803756622
4438.75,34.702482390835
4439,34.8024576141204
4439.25,34.9024328374058
4439.5,35.0024080606911
4439.75,35.1023832839765
4440,35.2023585072619
4440.25,35.3023337305473
4440.5,35.4023089538327
4440.75,35.5022841771181
4441,35.6022594004035
4441.25,35.7022346236889
4441.5,35.8022098469743
4441.75,35.9021850702597
4442,36.0021602935451
4442.25,36.1021355168305
4442.5,36.2021107401159
4442.75,36.3020859634013
4443,36.4020611866867
4443.25,36.5020364099721
4443.5,36.6020116332575
4443.75,36.7009934282714
4444,36.7509810399141
4444.25,36.8009686515568
4444.5,36.8509562631995
4444.75,36.9009438748422
4445,36.9509314864848
4445.25,37.0009190981275
4445.5,37.0509067097702
4445.75,37.1008943214129
4446,37.1508819330556
4446.25,37.2008695446984
4446.5,37.250857156341
4446.75,37.3008447679837
4447,37.3508323796264
4447.25,37.4008199912691
4447.5,37.4508076029119
4447.75,37.5007952145546
4448,37.5507828261972
4448.25,37.6007704378399
4448.5,37.6507580494826
4448.75,37.7
4449,37.7
4449.25,37.7
4449.5,37.7
4449.75,37.7
4450,37.7
4450.25,37.7
4450.5,37.7
4450.75,37.7
4451,37.7
4451.25,37.7
4451.5,37.7
4451.75,37.7
4452,37.7
4452.25,37.7
4452.5,37.7
4452.75,37.7
4453,37.7
4453.25,37.7
4453.5,37.7
4453.75,37.6997510530104
4454,37.674757247189
4454.25,37.6497634413677
4454.5,37.6247696355463
4454.75,37.599775829725
4455,37.5747820239036
4455.25,37.5497882180823
4455.5,37.5247944122609
4455.75,37.4998006064396
4456,37.4748068006183
4456.25,37.4498129947969
4456.5,37.4248191889756
4456.75,37.3998253831542
4457,37.3748315773329
4457.25,37.3498377715115
4457.5,37.3248439656902
4457.75,37.2998501598688
4458,37.2748563540475
4458.25,37.2498625482261
4458.5,37.2248687424048
4458.75,37.1997748858501
4459,37.1547860353717
4459.25,37.1097971848933
4459.5,37.0648083344148
4459.75,37.0198194839364
4460,36.974830633458
4460.25,36.9298417829796
4460.5,36.8848529325011
4460.75,36.8398640820227
4461,36.7948752315443
4461.25,36.7498863810659
4461.5,36.7048975305875
4461.75,36.6599086801091
4462,36.6149198296306
4462.25,36.5699309791522
4462.5,36.5249421286738
4462.75,36.4799532781953
4463,36.4349644277169
4463.25,36.3899755772385
4463.5,36.34498672676
4463.75,36.2999811225032
4464,35.9000802293616
4464.25,35.50017933622
4464.5,35.1002784430784
4464.75,34.7003775499368
4465,34.3004766567952
4465.25,33.9005757636536
4465.5,33.500674870512
4465.75,33.1007739773704
4466,32.7008730842288
4466.25,32.3009721910872
4466.5,31.9010712979456
4466.75,31.5011704048047
4467,31.1012695116631
4467.25,30.7013686185215
4467.5,30.3014677253799
4467.75,29.9015668322383
4468,29.5016659390967
4468.25,29.1017650459551
4468.5,28.7018641528135
4468.75,28.3019632596719
4469,28.2552320162347
4469.25,28.2102431657562
4469.5,28.1652543152778
4469.75,28.1202654647994
4470,28.0752766143209
4470.25,28.0302877638425
4470.5,27.9852989133641
4470.75,27.9403100628856
4471,27.8953212124072
4471.25,27.8503323619288
4471.5,27.8053435114504
4471.75,27.7603546609719
4472,27.7153658104935
4472.25,27.6703769600151
4472.5,27.6253881095367
4472.75,27.5803992590583
4473,27.5354104085799
4473.25,27.4904215581014
4473.5,27.445432707623
4473.75,27.4004438571446
4474,27.3802022251849
4474.25,27.3602071805279
4474.5,27.3402121358708
4474.75,27.3202170912137
4475,27.3002220465566
4475.25,27.2802270018995
4475.5,27.2602319572425
4475.75,27.2402369125854
4476,27.2202418679283
4476.25,27.2002468232712
4476.5,27.1802517786141
4476.75,27.1602567339571
4477,27.1402616893
4477.25,27.1202666446429
4477.5,27.1002715999858
4477.75,27.0802765553288
4478,27.0602815106717
4478.25,27.0402864660146
4478.5,27.0202914213575
4478.75,27.0002963767005
4479,26.9261299951627
4479.25,26.8511485776986
4479.5,26.7761671602346
4479.75,26.7011857427705
4480,26.6262043253065
4480.25,26.5512229078424
4480.5,26.4762414903784
4480.75,26.4012600729143
4481,26.3262786554503
4481.25,26.2512972379862
4481.5,26.1763158205222
4481.75,26.1013344030581
4482,26.0263529855941
4482.25,25.95137156813
4482.5,25.876390150666
4482.75,25.8014087332019
4483,25.726427315738
4483.25,25.651445898274
4483.5,25.5764644808099
4483.75,25.5014830633459
4484,25.5391991221964
4484.25,25.5791892115105
4484.5,25.6191793008247
4484.75,25.6591693901389
4485,25.699159479453
4485.25,25.7391495687672
4485.5,25.7791396580813
4485.75,25.8191297473955
4486,25.8591198367097
4486.25,25.8991099260238
4486.5,25.939100015338
4486.75,25.9790901046521
4487,26.0190801939663
4487.25,26.0590702832805
4487.5,26.0990603725946
4487.75,26.1390504619088
4488,26.1790405512229
4488.25,26.2190306405371
4488.5,26.2590207298512
4488.75,26.2990108191653
4489,26.3341257949196
