3529,947.496593696054
3529.25,946.049855706645
3529.5,950.959204917901
3529.75,959.59639237171
3530,969.281723471716
3530.25,977.513430858714
3530.5,983.054617535819
3530.75,985.216269063328
3531,983.311572656246
3531.25,977.006454126652
3531.5,967.718169343291
3531.75,957.406481434111
3532,948.031316960948
3532.25,941.218377124633
3532.5,937.241146353974
3532.75,936.031182292325
3533,937.517857408002
3533.25,941.191299732094
3533.5,945.573160968167
3533.75,949.055821055027
3534,950.077884861098
3534.25,948.396098666677
3534.5,945.244795442901
3534.75,941.936552545731
3535,939.72704971001
3535.25,939.184956917501
3535.5,940.423257890424
3535.75,943.546761919333
3536,948.930737524114
3536.25,958.448129688514
3536.5,974.487386800883
3536.75,999.435122764772
3537,1033.64565474922
3537.25,1071.71544335308
3537.5,1107.22829901321
3537.75,1133.77155655805
3538,1147.12561427055
3538.25,1149.00231003967
3538.5,1142.10641366372
3538.75,1129.14269494105
3539,1112.70954037843
3539.25,1093.86519269764
3539.5,1072.50816969151
3539.75,1048.50861433904
3540,1021.73763101446
3540.25,992.910467899377
3540.5,965.133392296694
3540.75,941.933077134063
3541,926.836189918757
3541.25,922.087885245335
3541.5,925.053842537576
3541.75,931.938578624517
3542,938.969215436147
3542.25,944.007832816953
3542.5,947.625407684892
3542.75,950.647628568538
3543,953.839559678063
3543.25,956.900390322466
3543.5,958.619174345291
3543.75,957.755732984054
3544,953.27078746599
3544.25,945.859059077497
3544.5,937.101954498301
3544.75,928.588027113882
3545,921.638062215149
3545.25,916.228650462114
3545.5,911.915487998619
3545.75,908.257008141617
3546,905.335261314872
3546.25,904.360243283352
3546.5,906.688509663153
3546.75,913.572144889275
3547,924.545323281256
3547.25,937.73588706319
3547.5,951.23030627309
3547.75,963.340299953583
3548,973.45470024523
3548.25,981.283927732231
3548.5,986.538732923724
3548.75,989.098921198911
3549,989.301159615415
3549.25,987.558528248032
3549.5,984.284940772274
3549.75,980.099473089873
3550,976.09376854431
3550.25,973.425774252503
3550.5,973.247395646728
3550.75,975.969865255479
3551,980.560710337502
3551.25,985.820856427988
3551.5,990.55147213117
3551.75,993.566127283418
3552,993.696453642566
3552.25,989.77550859113
3552.5,980.693097812273
3552.75,967.535558718884
3553,954.237083696116
3553.25,944.921638077618
3553.5,943.622616539835
3553.75,951.84969061632
3554,968.316664296132
3554.25,991.592163031464
3554.5,1019.95166818482
3554.75,1048.5225574789
3555,1070.51805235932
3555.25,1079.12433432905
3555.5,1068.40262144694
3555.75,1041.81036841892
3556,1008.51786701939
3556.25,977.776093901836
3556.5,958.702040582529
3556.75,954.413790657035
3557,959.745905867529
3557.25,968.927072795724
3557.5,976.345702741203
3557.75,979.72750585838
3558,979.958670928404
3558.25,978.049714547927
3558.5,974.975322261946
3558.75,971.230902891078
3559,966.969994754255
3559.25,962.338773436615
3559.5,957.572573204165
3559.75,953.762891282242
3560,952.478507591389
3560.25,955.29337469636
3560.5,963.445115196228
3560.75,976.219010570243
3561,992.197642745487
3561.25,1009.96260917649
3561.5,1027.66282397587
3561.75,1041.97004972848
3562,1049.24109718078
3562.25,1045.8327853835
3562.5,1029.88210171237
3562.75,1006.2929240861
3563,981.576759961451
3563.25,962.245116795218
3563.5,953.721356257648
3563.75,954.187713194953
3564,958.869827191624
3564.25,962.984573589157
3564.5,962.81168341671
3564.75,958.971950381064
3565,953.194314329808
3565.25,947.207188932198
3565.5,942.462439772977
3565.75,939.682527805678
3566,939.471063302833
3566.25,942.418360588864
3566.5,948.400527592816
3566.75,956.232194494732
3567,964.641804487406
3567.25,972.405956773226
3567.5,979.066047236291
3567.75,984.775693766586
3568,989.705680918592
3568.25,993.951488925188
3568.5,996.865891009886
3568.75,997.378802034586
3569,994.415235968374
3569.25,987.141934976311
3569.5,976.835403387388
3569.75,965.860925467087
3570,956.592857840859
3570.25,951.159055951729
3570.5,949.726022578908
3570.75,951.523435055861
3571,955.775163176642
3571.25,961.610532388489
3571.5,967.728846764399
3571.75,972.70721506587
3572,975.124027468755
3572.25,974.346014009467
3572.5,971.866581432896
3572.75,969.534162648186
3573,969.191033914562
3573.25,971.794323613607
3573.5,976.500976423101
3573.75,982.24932128564
3574,987.997689915211
3574.25,993.720947388507
3574.5,1000.87219412108
3574.75,1011.02095171201
3575,1025.68467860501
3575.25,1044.50753886413
3575.5,1064.78396086221
3575.75,1083.65948508189
3576,1098.29359421269
3576.25,1106.65861447679
3576.5,1107.9733440116
3576.75,1101.56224926644
3577,1086.74979669068
3577.25,1063.72993341842
3577.5,1036.60216622533
3577.75,1010.56212770272
3578,990.805506815913
3578.25,982.15592659224
3578.5,984.236231194918
3578.75,992.845200366239
3579,1003.69307793706
3579.25,1012.66255321326
3579.5,1017.59256239741
3579.75,1017.56151343452
3580,1011.66747910985
3580.25,999.22652336462
3580.5,982.294304837978
3580.75,964.796675728217
3581,950.69561552255
3581.25,943.695729750116
3581.5,943.84894249526
3581.75,948.493472050892
3582,954.903171221763
3582.25,960.566179444558
3582.5,964.430783697974
3582.75,966.054307241531
3583,964.996097027686
3583.25,961.257239380113
3583.5,956.597662902402
3583.75,953.214987276001
3584,953.304987145997
3584.25,958.103247308643
3584.5,966.316383060295
3584.75,976.239559802029
3585,986.179966285174
3585.25,995.186053899777
3585.5,1003.46679945313
3585.75,1011.33237431815
3586,1019.0726653133
3586.25,1026.17774768939
3586.5,1031.09215790846
3586.75,1032.18989399097
3587,1027.873281706
3587.25,1018.24060513646
3587.5,1006.01675466784
3587.75,994.15231665586
3588,985.589988679945
3588.25,981.858207362654
3588.5,981.448243721592
3588.75,982.458141864744
3589,982.993020859058
3589.25,981.894561504311
3589.5,979.374800785563
3589.75,975.795137965128
3590,971.513782712319
3590.25,966.698093988318
3590.5,961.2199135639
3590.75,954.925697571235
3591,947.691473718036
3591.25,940.303080839066
3591.5,934.605661884519
3591.75,932.504047060467
3592,935.7196542067
3592.25,943.601553695563
3592.5,953.84592130963
3592.75,964.115326861921
3593,972.36272731719
3593.25,978.084238288185
3593.5,981.286583540709
3593.75,981.97681360304
3594,980.162338662757
3594.25,975.851823188643
3594.5,969.054204906346
3594.75,959.780969909472
3595,950.208708358072
3595.25,948.621201717658
3595.5,964.371337268403
3595.75,1006.71602402956
3596,1075.63709705329
3596.25,1154.2407061417
3596.5,1223.84399411618
3596.75,1265.90818370838
3597,1272.52862133306
3597.25,1253.5422553164
3597.5,1220.46942054262
3597.75,1184.83045189604
3598,1158.08760387823
3598.25,1146.28913131831
3598.5,1145.74085493396
3598.75,1151.73000732518
3599,1159.54382109199
3599.25,1164.70120992038
3599.5,1165.9033107114
3599.75,1164.16317028775
3600,1160.54586457741
3600.25,1156.11646950836
3600.5,1151.83851567409
3600.75,1148.23636851746
3601,1145.71569746806
3601.25,1144.6821700205
3601.5,1145.53099516617
3601.75,1148.09911398759
3602,1151.39577895902
3602.25,1154.36326660431
3602.5,1155.94385344731
3602.75,1155.24802389048
3603,1152.75634880684
3603.25,1149.61691521962
3603.5,1146.9822896209
3603.75,1146.00382464977
3604,1147.25148751186
3604.25,1149.78371622006
3604.5,1152.41645777564
3604.75,1153.96565917984
3605,1153.30572064068
3605.25,1150.33177531227
3605.5,1145.80686156571
3605.75,1140.5216531503
3606,1135.26682381531
3606.25,1130.71677410532
3606.5,1126.99909400558
3606.75,1124.08077457074
3607,1121.92878540019
3607.25,1120.50888901426
3607.5,1119.74158782265
3607.75,1119.48953529206
3608,1119.61161241433
3608.25,1119.96670018125
3608.5,1120.44308050765
3608.75,1121.07767918534
3609,1121.95428840122
3609.25,1123.15671799977
3609.5,1124.75999266006
3609.75,1126.56954262033
3610,1128.07730240338
3610.25,1128.75757841681
3610.5,1128.08467706826
3610.75,1125.72475558849
3611,1122.24588929745
3611.25,1118.48095542778
3611.5,1115.26286636915
3611.75,1113.40338513223
3612,1113.03699417632
3612.25,1113.49406505243
3612.5,1114.0582193401
3612.75,1114.01307861887
3613,1112.85001335656
3613.25,1110.94727300686
3613.5,1108.91972451201
3613.75,1107.38223707796
3614,1106.91940925333
3614.25,1107.48755192885
3614.5,1108.45026278851
3614.75,1109.1479913277
3615,1108.92137912045
3615.25,1107.40985665853
3615.5,1105.15543301409
3615.75,1102.86987975891
3616,1101.26496846478
3616.25,1101.00319557143
3616.5,1102.15669823739
3616.75,1104.40824114185
3617,1107.43370683839
3617.25,1110.90877391527
3617.5,1114.48549107824
3617.75,1117.77056841911
3618,1120.3655834243
3618.25,1121.87211358021
3618.5,1121.99493971377
3618.75,1121.16714663849
3619,1120.13524392309
3619.25,1119.64696134102
3619.5,1120.44266673786
3619.75,1122.7984242081
3620,1126.257329359
3620.25,1130.29784652569
3620.5,1134.39844004325
3620.75,1138.05118828521
3621,1140.83501342395
3621.25,1142.36295757785
3621.5,1142.24814401495
3621.75,1140.11089902192
3622,1136.1004463812
3622.25,1131.2468548567
3622.5,1126.66357911231
3622.75,1123.46407381188
3623,1122.62462681764
3623.25,1123.89762207568
3623.5,1126.39229686583
3623.75,1129.21217383579
3624,1131.46357854404
3624.25,1132.58996889184
3624.5,1132.6884803631
3624.75,1131.93120081728
3625,1130.49021811383
3625.25,1128.55631317595
3625.5,1126.49629933241
3625.75,1124.77360825719
3626,1123.85266697389
3626.25,1124.19575743317
3626.5,1125.84675328236
3626.75,1127.93325216004
3627,1129.46150339955
3627.25,1129.43775633424
3627.5,1127.00376154929
3627.75,1122.64906111863
3628,1117.63567489522
3628.25,1113.23476351806
3628.5,1110.71474850887
3628.75,1110.7223456141
3629,1112.49645949038
3629.25,1115.08225821423
3629.5,1117.52490986216
3629.75,1118.96310968205
3630,1119.34755216786
3630.25,1119.04616462456
3630.5,1118.43029696756
3630.75,1117.86899922355
3631,1117.51854162602
3631.25,1117.15318810261
3631.5,1116.50737987825
3631.75,1115.3155581779
3632,1113.38413637061
3632.25,1111.0399708578
3632.5,1108.8387659902
3632.75,1107.33721425839
3633,1107.08344536923
3633.25,1108.15844219126
3633.5,1109.9447155177
3633.75,1111.76758867593
3634,1112.95238499333
3634.25,1112.99240265124
3634.5,1112.23879376374
3634.75,1111.31585376137
3635,1110.8479937099
3635.25,1111.43656005651
3635.5,1113.05986315349
3635.75,1115.0169617507
3636,1116.572580569
3636.25,1116.99144703331
3636.5,1115.77852373781
3636.75,1113.33588586671
3637,1110.27497646546
3637.25,1107.20723857953
3637.5,1104.727975743
3637.75,1103.14201326704
3638,1102.5025246366
3638.25,1102.85435925308
3638.5,1104.24213201312
3638.75,1106.56042950827
3639,1109.29645766622
3639.25,1111.86893698864
3639.5,1113.69658797717
3639.75,1114.2582437333
3640,1113.62180875089
3640.25,1112.18888126107
3640.5,1110.36486585619
3640.75,1108.55393734008
3641,1107.02398561735
3641.25,1105.78469493513
3641.5,1104.8169681396
3641.75,1104.10170807695
3642,1103.6293991551
3642.25,1103.45632012902
3642.5,1103.66638334323
3642.75,1104.34359632028
3643,1105.56592033165
3643.25,1107.18583412206
3643.5,1108.76832333945
3643.75,1109.85969532767
3644,1110.00625743056
3644.25,1108.90442070083
3644.5,1106.87465441655
3644.75,1104.39958417218
3645,1101.96183589509
3645.25,1100.02420187166
3645.5,1098.68040299244
3645.75,1097.69783454872
3646,1096.83264797836
3646.25,1095.84118309577
3646.5,1094.57489702988
3646.75,1093.13460141261
3647,1091.66147231779
3647.25,1090.29668581924
3647.5,1089.18978411321
3647.75,1088.5609299455
3648,1088.66573795697
3648.25,1089.76008967731
3648.5,1092.08942169776
3648.75,1095.49129856888
3649,1099.27238638477
3649.25,1102.70376375101
3649.5,1105.05652130259
3649.75,1105.90591646689
3650,1105.92187487039
3650.25,1106.02049285899
3650.5,1107.11786677855
3650.75,1110.03762928027
3651,1114.30036269007
3651.25,1118.463189891
3651.5,1121.06063513058
3651.75,1120.63076722184
3652,1116.65069444021
3652.25,1110.79325777022
3652.5,1105.04464099641
3652.75,1101.39102790334
3653,1101.61084059894
3653.25,1105.3328204759
3653.5,1110.91531181101
3653.75,1116.70015369582
3654,1121.03856677455
3654.25,1123.035475256
3654.5,1123.08939834212
3654.75,1121.72619347762
3655,1119.47171810719
3655.25,1116.842105906
3655.5,1114.28507910357
3655.75,1112.21899872592
3656,1111.06211300512
3656.25,1111.22654052159
3656.5,1112.77229809198
3656.75,1115.22247333219
3657,1118.05498306139
3657.25,1120.7477440988
3657.5,1122.82159572757
3657.75,1124.032767243
3658,1124.21776291938
3658.25,1123.21315529732
3658.5,1120.86721856356
3658.75,1117.45367255123
3659,1113.7824446732
3659.25,1110.69768882585
3659.5,1109.04355890558
3659.75,1109.41908806191
3660,1111.18905382428
3660.25,1113.33061525487
3660.5,1114.82079227217
3660.75,1114.67546484468
3661,1112.85874702839
3661.25,1110.31426298441
3661.5,1108.03075419246
3661.75,1106.99695551352
3662,1107.85966738132
3662.25,1110.00651129333
3662.5,1112.53533105076
3662.75,1114.54397045482
3663,1115.18976950889
3663.25,1114.52165253519
3663.5,1113.27557570178
3663.75,1112.20520783435
3664,1112.06362338019
3664.25,1113.28322368293
3664.5,1115.44715635263
3664.75,1117.99957798042
3665,1120.38464515739
3665.25,1122.06477465971
3665.5,1122.69648774309
3665.75,1122.05341376416
3666,1119.91079946081
3666.25,1116.04630337337
3666.5,1110.70204392314
3666.75,1105.13430043897
3667,1100.73321228163
3667.25,1098.88891881186
3667.5,1100.77910418854
3667.75,1105.66759403665
3668,1111.80466066022
3668.25,1117.43132335988
3668.5,1120.80832192387
3668.75,1121.29540466635
3669,1119.90904411417
3669.25,1117.80290058709
3669.5,1116.13063440485
3669.75,1115.8740441331
3670,1116.97596960131
3670.25,1118.9908156536
3670.5,1121.47231331451
3670.75,1123.97632142473
3671,1126.14150445995
3671.25,1127.71414457615
3671.5,1128.44772125514
3671.75,1128.09571397868
3672,1126.52997446042
3672.25,1124.2474634838
3672.5,1121.95073315538
3672.75,1120.34245936562
3673,1120.10980890399
3673.25,1121.32209747016
3673.5,1123.23728184082
3673.75,1125.05820525061
3674,1125.98771093422
3674.25,1125.43564982982
3674.5,1123.87859677027
3674.75,1122.1357453521
3675,1121.02644936774
3675.25,1121.35153206545
3675.5,1123.23977350449
3675.75,1125.97392070551
3676,1128.7828129158
3676.25,1130.89528938266
3676.5,1131.69687988365
3676.75,1131.35156559495
3677,1130.26461612587
3677.25,1128.84137436755
3677.5,1127.48193764968
3677.75,1126.38721862347
3678,1125.50208928295
3678.25,1124.75457963162
3678.5,1124.07271967302
3678.75,1123.44126829724
3679,1123.15938542157
3679.25,1123.63453484147
3679.5,1125.27428095276
3679.75,1128.46723823359
3680,1132.84788899393
3680.25,1137.06085237416
3680.5,1139.6835552683
3680.75,1139.29342457036
3681,1134.85458663543
3681.25,1127.50034738391
3681.5,1119.11987855926
3681.75,1111.60312574136
3682,1106.82224554146
3682.25,1105.57264672671
3682.5,1106.97534570823
3682.75,1110.006688253
3683,1113.64302012798
3683.25,1116.9550278651
3683.5,1119.5234396511
3683.75,1121.1005628996
3684,1121.43883380838
3684.25,1120.30483419912
3684.5,1117.8947688833
3684.75,1114.90188257664
3685,1112.04713886945
3685.25,1110.05150135204
3685.5,1109.45620004415
3685.75,1109.99227593781
3686,1111.16258570794
3686.25,1112.4699732339
3686.5,1113.42985527751
3686.75,1113.82109839828
3687,1113.67247269688
3687.25,1113.02260953824
3687.5,1111.91015635095
3687.75,1110.43526224511
3688,1108.8987199197
3688.25,1107.64217174701
3688.5,1107.00726009935
3688.75,1107.30138445738
3689,1108.35858825153
3689.25,1109.66750339423
3689.5,1110.70890697243
3689.75,1110.96493906068
3690,1110.23707392796
3690.25,1109.05479392663
3690.5,1108.04853858866
3690.75,1107.84874744602
3691,1108.98311885822
3691.25,1111.08017971139
3691.5,1113.30337570615
3691.75,1114.81224567741
3692,1114.77537169969
3692.25,1112.97656255961
3692.5,1110.19751701564
3692.75,1107.31116730225
3693,1105.19044565392
3693.25,1104.56660458238
3693.5,1105.29454780174
3693.75,1106.89449962064
3694,1108.88601651552
3694.25,1110.79446197906
3694.5,1112.32900969443
3694.75,1113.41583754607
3695,1113.99362664577
3695.25,1114.00105810536
3695.5,1113.41613487024
3695.75,1112.3758242473
3696,1111.05725835109
3696.25,1109.63756929791
3696.5,1108.29189317433
3696.75,1107.15713607154
3697,1106.33580828793
3697.25,1105.92919361869
3697.5,1106.03853774142
3697.75,1106.72025912567
3698,1107.8993281516
3698.25,1109.47674587085
3698.5,1111.35351333507
3698.75,1113.41864677457
3699,1115.42863219067
3699.25,1117.0575711717
3699.5,1117.97832579593
3699.75,1117.86526006603
3700,1116.61027948228
3700.25,1114.54856441206
3700.5,1112.06924940934
3700.75,1109.56146902809
3701,1107.38438026567
3701.25,1105.64525860741
3701.5,1104.3254196321
3701.75,1103.40524431182
3702,1102.86782471789
3702.25,1102.86958596475
3702.5,1103.84193936003
3702.75,1106.24070533618
3703,1110.52170432566
3703.25,1116.88137195142
3703.5,1124.16628348857
3703.75,1130.78529812372
3704,1135.14704777871
3704.25,1135.71654606844
3704.5,1132.46811771437
3704.75,1127.01386040899
3705,1121.04799966165
3705.25,1116.2647609817
3705.5,1114.03080586436
3705.75,1114.06937145997
3706,1115.58939403664
3706.25,1117.79963318286
3706.5,1119.92260701369
3706.75,1121.56422227793
3707,1122.75512344955
3707.25,1123.54801055242
3707.5,1123.99558361043
3707.75,1124.17004774781
3708,1124.22527284875
3708.25,1124.33649823457
3708.5,1124.67896329851
3708.75,1125.42015772061
3709,1126.53960433554
3709.25,1127.82329307005
3709.5,1129.04835062801
3709.75,1129.99190371332
3710,1130.48699739126
3710.25,1130.59796376596
3710.5,1130.44892444399
3710.75,1130.16400111222
3711,1129.86273156588
3711.25,1129.54205324578
3711.5,1129.06592955527
3711.75,1128.29166097773
3712,1127.07654799651
3712.25,1125.32455411466
3712.5,1123.15726727148
3712.75,1120.75966790202
3713,1118.3167437277
3713.25,1116.0145266283
3713.5,1114.07131219261
3713.75,1112.74304060116
3714,1112.2877804021
3714.25,1112.96360014359
3714.5,1114.88548024812
3714.75,1117.5476646201
3715,1120.27611170358
3715.25,1122.39677687155
3715.5,1123.26732768137
3715.75,1122.90765580762
3716,1121.96458650619
3716.25,1121.10959247393
3716.5,1121.01414007203
3716.75,1122.06723322837
3717,1123.62214212886
3717.25,1124.79480244548
3717.5,1124.70114985018
3717.75,1122.50984378229
3718,1118.3796050238
3718.25,1113.34938155393
3718.5,1108.48878303389
3718.75,1104.86738045561
3719,1103.17721312219
3719.25,1102.8064488367
3719.5,1102.86197277541
3719.75,1102.4506701146
3720,1100.74869382368
3720.25,1097.85796316783
3720.5,1094.54037390302
3720.75,1091.57201579551
3721,1089.72702717339
3721.25,1089.45874960239
3721.5,1090.54578084317
3721.75,1092.68145479489
3722,1095.55910535675
3722.25,1098.89849407422
3722.5,1102.5804528739
3722.75,1106.54649088573
3723,1110.7382279804
3723.25,1115.08259469744
3723.5,1119.12953398853
3723.75,1122.02888708448
3724,1122.91117792623
3724.25,1120.9069380961
3724.5,1115.65989112353
3724.75,1108.71704206465
3725,1102.06652948976
3725.25,1097.69649196915
3725.5,1097.49162811965
3725.75,1101.36196673066
3726,1107.44442265581
3726.25,1113.81292850906
3726.5,1118.54328791265
3726.75,1120.50076285225
3727,1120.56116929206
3727.25,1119.91570987141
3727.5,1119.75558722964
3727.75,1121.1619205148
3728,1124.0017924577
3728.25,1127.38913826759
3728.5,1130.426626346
3728.75,1132.21905395132
3729,1132.31493885774
3729.25,1131.24909278668
3729.5,1129.68920714991
3729.75,1128.3029733592
3730,1127.70307915778
3730.25,1127.87809726447
3730.5,1128.42109469563
3730.75,1128.91886058305
3731,1128.95879664582
3731.25,1128.35411121182
3731.5,1127.47990726975
3731.75,1126.79721908757
3732,1126.76708093324
3732.25,1127.81837903187
3732.5,1129.97593223936
3732.75,1132.98869799082
3733,1136.60030364552
3733.25,1140.55425147898
3733.5,1144.52366553492
3733.75,1147.99410355689
3734,1150.42021639989
3734.25,1151.25665491889
3734.5,1150.00930500572
3734.75,1147.02344725987
3735,1143.32989376344
3735.25,1139.97952293421
3735.5,1138.02321318998
3735.75,1138.21547771059
3736,1140.02729585875
3736.25,1142.58225037246
3736.5,1145.0039180226
3736.75,1146.43601621976
3737,1146.71406463033
3737.25,1146.52281115478
3737.5,1146.59904500512
3737.75,1147.6795553934
3738,1150.32365143662
3738.25,1153.92637304996
3738.5,1157.41350683013
3738.75,1159.70954507522
3739,1159.74449224858
3739.25,1157.14534008127
3739.5,1152.90918505811
3739.75,1148.19286057467
3740,1144.1532000265
3740.25,1141.87285248356
3740.5,1141.34885110204
3740.75,1141.7548265946
3741,1142.24392771626
3741.25,1141.96931403083
3741.5,1140.39697316869
3741.75,1138.12414467814
3742,1136.00369613383
3742.25,1134.88849511038
3742.5,1135.59501914074
3742.75,1137.95079598378
3743,1140.70178790803
3743.25,1142.53899744995
3743.5,1142.15342714601
3743.75,1138.59981591701
3744,1132.75229669939
3744.25,1126.05269491394
3744.5,1119.94302385795
3744.75,1115.84820743618
3745,1114.3273381419
3745.25,1114.68195063532
3745.5,1116.11470745795
3745.75,1117.82827115128
3746,1119.10487897195
3746.25,1119.67082561129
3746.5,1119.40637762429
3746.75,1118.19195280299
3747,1115.9151219048
3747.25,1112.7143537402
3747.5,1109.03913971451
3747.75,1105.35832332772
3748,1102.14074807979
3748.25,1099.78810176193
3748.5,1098.38976071868
3748.75,1097.94438127728
3749,1098.45060987607
3749.25,1099.89326209161
3749.5,1101.9938329029
3749.75,1104.23775668195
3750,1106.10210935673
3750.25,1107.06448224019
3750.5,1106.85009981507
3750.75,1105.82832632458
3751,1104.47192028077
3751.25,1103.25364019572
3751.5,1102.61402212946
3751.75,1102.68099238502
3752,1103.40678784467
3752.25,1104.74169108378
3752.5,1106.63358214668
3752.75,1108.85310960644
3753,1110.8752876545
3753.25,1112.14708613817
3753.5,1112.11547490477
3753.75,1110.42211823433
3754,1107.82145130435
3754.25,1105.46260447485
3754.5,1104.49517451518
3754.75,1106.03620339519
3755,1110.15869969025
3755.25,1115.69526174331
3755.5,1121.4062916448
3755.75,1126.05219231175
3756,1128.70453564736
3756.25,1129.62822994608
3756.5,1129.37420789692
3756.75,1128.49340218885
3757,1127.52521522546
3757.25,1126.75598805567
3757.5,1126.22556401186
3757.75,1125.9635691528
3758,1125.99962953729
3758.25,1126.3562294309
3758.5,1127.02712287471
3758.75,1127.99884035833
3759,1129.25791237132
3759.25,1130.78896265379
3759.5,1132.53152731576
3759.75,1134.37935935707
3760,1136.22416592185
3760.25,1137.95765415425
3760.5,1139.48681605382
3760.75,1140.78471275155
3761,1141.84225286305
3761.25,1142.65034528914
3761.5,1143.19791556278
3761.75,1143.40600873613
3762,1143.11248361945
3762.25,1142.15011477402
3762.5,1140.3516767611
3762.75,1137.66914172171
3763,1134.80609916716
3763.25,1132.75832300542
3763.5,1132.5222388054
3763.75,1135.0831666354
3764,1140.4953213652
3764.25,1147.19249883703
3764.5,1153.44611547616
3764.75,1157.52758770783
3765,1157.95666469149
3765.25,1155.38391754648
3765.5,1151.54423011314
3765.75,1148.18107148442
3766,1147.03692775352
3766.25,1149.09876985251
3766.5,1153.24993208578
3766.75,1158.01052005135
3767,1161.90063934725
3767.25,1163.50068043811
3767.5,1162.5772057619
3767.75,1159.981274453
3768,1156.60384424932
3768.25,1153.33587288875
3768.5,1150.93215931871
3768.75,1149.37021048503
3769,1148.35213935804
3769.25,1147.5797363315
3769.5,1146.75676103546
3769.75,1145.78331430322
3770,1144.92012002145
3770.25,1144.46658539574
3770.5,1144.72211763169
3770.75,1145.94922028875
3771,1148.00503770573
3771.25,1150.49599907052
3771.5,1153.02481474431
3771.75,1155.1942522684
3772,1156.67807960356
3772.25,1157.35951946812
3772.5,1157.16022964888
3772.75,1156.00186793266
3773,1153.81977012482
3773.25,1150.8913230221
3773.5,1147.85195130655
3773.75,1145.35395714916
3774,1144.04964272093
3774.25,1144.42637020221
3774.5,1145.97045108177
3774.75,1147.79256012509
3775,1149.00270418242
3775.25,1148.71843819428
3775.5,1146.71026722996
3775.75,1143.89648081069
3776,1141.31186640112
3776.25,1139.99121146591
3776.5,1140.84953096511
3776.75,1143.52373110934
3777,1146.87732640841
3777.25,1149.76305798012
3777.5,1151.0344514682
3777.75,1150.05076489853
3778,1147.54597547153
3778.25,1144.48543193552
3778.5,1141.83448303882
3778.75,1140.52752905708
3779,1140.86887787396
3779.25,1142.57505678952
3779.5,1145.34011981313
3779.75,1148.85812095417
3780,1152.76654310299
3780.25,1156.44974736162
3780.5,1159.22132795611
3780.75,1160.39487581409
3781,1159.29848145628
3781.25,1155.95289207356
3781.5,1151.361306475
3781.75,1146.6016107539
3782,1142.75169100356
3782.25,1140.79387093535
3782.5,1140.81086611323
3782.75,1142.39175944084
3783,1145.12055297606
3783.25,1148.58104237614
3783.5,1152.2775958964
3783.75,1155.51544378191
3784,1157.56910923576
3784.25,1157.71311546105
3784.5,1155.29370097893
3784.75,1150.88511663745
3785,1146.09303203551
3785.25,1142.5551378439
3785.5,1141.90912473344
3785.75,1145.28268774857
3786,1151.35159374321
3786.25,1158.05565560776
3786.5,1163.33454510173
3786.75,1165.16054798344
3787,1163.02280875164
3787.25,1158.53844756605
3787.5,1153.48382984695
3787.75,1149.63532101466
3788,1148.59989698687
3788.25,1150.30077195312
3788.5,1153.69661917253
3788.75,1157.73471666642
3789,1161.36266111898
3789.25,1163.81782195163
3789.5,1165.16193111528
3789.75,1165.60233451728
3790,1165.346378065
3790.25,1164.59953434556
3790.5,1163.5176875095
3790.75,1162.20322711769
3791,1160.75588677191
3791.25,1159.27540007398
3791.5,1157.86227814498
3791.75,1156.62258025126
3792,1155.66477685839
3792.25,1155.09734827821
3792.5,1155.02847148409
3792.75,1155.47572211258
3793,1156.23977647671
3793.25,1157.08953086995
3793.5,1157.79388158579
3793.75,1158.13941699862
3794,1158.23104003304
3794.25,1158.44936414563
3794.5,1159.184118884
3794.75,1160.82503379578
3795,1163.61578532462
3795.25,1167.06358260397
3795.5,1170.44402623945
3795.75,1173.03263226446
3796,1174.11055046549
3796.25,1173.4787176899
3796.5,1171.87045568721
3796.75,1170.11617935717
3797,1169.0463035995
3797.25,1169.42980878705
3797.5,1171.05206482974
3797.75,1172.90692313251
3798,1173.96578841364
3798.25,1173.20006539141
3798.5,1169.876830484
3798.75,1164.82788569241
3799,1159.40070858645
3799.25,1154.94309373168
3799.5,1152.79887616308
3799.75,1153.61465289696
3800,1156.54601533248
3800.25,1160.55646204975
3800.5,1164.60949162888
3800.75,1167.71108900202
3801,1169.49493655161
3801.25,1170.07384801121
3801.5,1169.57272914725
3801.75,1168.11648572617
3802,1165.87820407803
3802.25,1163.26231383416
3802.5,1160.74259567909
3802.75,1158.79284333725
3803,1157.88359965269
3803.25,1158.15188534769
3803.5,1159.11689202942
3803.75,1160.23083156239
3804,1160.94591581112
3804.25,1160.74951299928
3804.5,1159.58795267785
3804.75,1157.7294294636
3805,1155.4487882626
3805.25,1153.02087398093
3805.5,1150.70299021126
3805.75,1148.68042764708
3806,1147.119999747
3806.25,1146.18851995796
3806.5,1146.04885432775
3806.75,1146.68991224477
3807,1147.86199505266
3807.25,1149.29812026705
3807.5,1150.73130540357
3807.75,1151.91457608019
3808,1152.75103582901
3808.25,1153.21192637794
3808.5,1153.26883001595
3808.75,1152.89330585241
3809,1152.05141713303
3809.25,1150.69666627424
3809.5,1148.78080883058
3809.75,1146.25560035663
3810,1143.09143405076
3810.25,1139.56159560869
3810.5,1136.18546689797
3810.75,1133.48955439641
3811,1132.00036458183
3811.25,1132.07549726621
3811.5,1133.39588382757
3811.75,1135.47302769139
3812,1137.81843228309
3812.25,1139.95463154251
3812.5,1141.69531259454
3812.75,1143.16777975878
3813,1144.51486845257
3813.25,1145.87941409323
3813.5,1147.3589850841
3813.75,1148.81762741282
3814,1150.04430188234
3814.25,1150.82793376465
3814.5,1150.96037209073
3814.75,1150.41113219071
3815,1149.42640838174
3815.25,1148.27634747003
3815.5,1147.23109626179
3815.75,1146.54308565176
3816,1146.29846781721
3816.25,1146.49237156206
3816.5,1147.11899614725
3816.75,1148.17248758533
3817,1149.6182570727
3817.25,1151.34561330719
3817.5,1153.23140937782
3817.75,1155.1524983736
3818,1156.98910795869
3818.25,1158.68412349892
3818.5,1160.23575730545
3818.75,1161.64412299399
3819,1162.90933418023
3819.25,1164.03184587098
3819.5,1165.0138312256
3819.75,1165.85800272908
3820,1166.56707305888
3820.25,1167.14391717679
3820.5,1167.60739745698
3820.75,1168.00563479731
3821,1168.38987449621
3821.25,1168.81136185212
3821.5,1169.3226698556
3821.75,1169.99594512502
3822,1170.91825384443
3822.25,1172.17703751468
3822.5,1173.85973763659
3822.75,1176.00424060759
3823,1178.40210324275
3823.25,1180.76848902128
3823.5,1182.8185380562
3823.75,1184.26836556844
3824,1184.97648894573
3824.25,1185.09220526542
3824.5,1184.8002933925
3824.75,1184.28553219196
3825,1183.73243019591
3825.25,1183.31915537914
3825.5,1183.21746611988
3825.75,1183.59883665513
3826,1184.63474122186
3826.25,1186.44935111031
3826.5,1188.76842103199
3826.75,1191.11806546453
3827,1193.0229062929
3827.25,1194.00756652933
3827.5,1193.74818712893
3827.75,1192.49185506427
3828,1190.62011573604
3828.25,1188.51451454493
3828.5,1186.55553606931
3828.75,1184.98724359771
3829,1183.78429929179
3829.25,1182.88978251301
3829.5,1182.24677262283
3829.75,1181.79287050953
3830,1181.33725691789
3830.25,1180.55933613113
3830.5,1179.1327626863
3830.75,1176.73119112045
3831,1173.1086147821
3831.25,1168.67780511277
3831.5,1164.17431340907
3831.75,1160.33590549001
3832,1157.90029128133
3832.25,1157.34896176486
3832.5,1158.31698017322
3832.75,1160.2648664323
3833,1162.65314046803
3833.25,1164.94538256991
3833.5,1166.70436491411
3833.75,1167.61131259203
3834,1167.35440133318
3834.25,1165.62180686709
3834.5,1162.2048273902
3834.75,1157.71823967637
3835,1153.17135362755
3835.25,1149.57595543492
3835.5,1147.94325776957
3835.75,1148.7775447964
3836,1151.14604248852
3836.25,1153.8630813258
3836.5,1155.74299178812
3836.75,1155.65302933579
3837,1153.55002301037
3837.25,1150.41382511549
3837.5,1147.26388629598
3837.75,1145.11965719668
3838,1144.76051368778
3838.25,1145.66805459046
3838.5,1146.88735423658
3838.75,1147.46315966763
3839,1146.45188987715
3839.25,1143.68127292108
3839.5,1140.21727799767
3839.75,1137.23754304357
3840,1135.91970599542
3840.25,1137.28153756512
3840.5,1140.86377905774
3840.75,1145.4087857015
3841,1149.65109641837
3841.25,1152.3274375949
3841.5,1152.71572501559
3841.75,1151.34179034842
3842,1148.90676891691
3842.25,1146.11179604458
3842.5,1143.63914079429
3842.75,1141.86552433285
3843,1140.91996604301
3843.25,1140.92434825963
3843.5,1142.00055331755
3843.75,1144.12409056851
3844,1146.68556525325
3844.25,1148.92950339259
3844.5,1150.10043100738
3844.75,1149.46588604258
3845,1147.03804609434
3845.25,1143.71762325205
3845.5,1140.45740238385
3845.75,1138.21016835787
3846,1137.7753417835
3846.25,1138.92976242154
3846.5,1141.03200112707
3846.75,1143.43937676803
3847,1145.51214909069
3847.25,1146.87877149967
3847.5,1147.64704176232
3847.75,1147.97444651934
3848,1148.01847241147
3848.25,1147.92821754222
3848.5,1147.76631744274
3848.75,1147.54446184528
3849,1147.27368443301
3849.25,1146.96498703057
3849.5,1146.59551177793
3849.75,1146.04425456068
3850,1145.17253001739
3850.25,1143.84165278661
3850.5,1141.93047047905
3850.75,1139.68474697061
3851,1137.69804068841
3851.25,1136.57761525435
3851.5,1136.93073429031
3851.75,1139.16750266352
3852,1142.77753351883
3852.25,1146.98202099202
3852.5,1151.00212774492
3852.75,1154.06906281027
3853,1155.8032673396
3853.25,1156.33004613799
3853.5,1155.80836829302
3853.75,1154.39720289226
3854,1152.26966762247
3854.25,1149.70736001396
3854.5,1147.04207304913
3854.75,1144.60587224926
3855,1142.7305776891
3855.25,1141.67206651219
3855.5,1141.50318372911
3855.75,1142.26975519872
3856,1144.01760677988
3856.25,1146.77019670689
3856.5,1150.21717548951
3856.75,1153.79167621135
3857,1156.92025928635
3857.25,1159.02948671426
3857.5,1159.73620371485
3857.75,1159.37259560419
3858,1158.43891548055
3858.25,1157.43541644221
3858.5,1156.85327480261
3858.75,1156.79674628254
3859,1156.846819674
3859.25,1156.54735635466
3859.5,1155.4422177022
3859.75,1153.16886041168
3860,1150.16126771759
3860.25,1147.25600177597
3860.5,1145.29273306752
3860.75,1145.11028876693
3861,1147.06679605587
3861.25,1150.23677833527
3861.5,1153.48280824563
3861.75,1155.66745842739
3862,1155.7174998657
3862.25,1153.70605779558
3862.5,1150.69456412444
3862.75,1147.77682135987
3863,1146.04663200946
3863.25,1146.34096230397
3863.5,1148.23947462135
3863.75,1150.9377006001
3864,1153.63107605407
3864.25,1155.52342584968
3864.5,1156.26988338611
3864.75,1156.19672595227
3865,1155.68476904642
3865.25,1155.11482816688
3865.5,1154.8162944601
3865.75,1154.63802590255
3866,1154.16675869763
3866.25,1152.98658344607
3866.5,1150.68190458142
3866.75,1147.16694083192
3867,1143.3106615835
3867.25,1140.15379955035
3867.5,1138.73708744667
3867.75,1140.04467876056
3868,1143.78924643613
3868.25,1148.42834386659
3868.5,1152.36621758972
3868.75,1154.00711414329
3869,1152.20370973186
3869.25,1147.89946274156
3869.5,1142.64669527676
3869.75,1137.99779906589
3870,1135.48787310309
3870.25,1135.6121410087
3870.5,1137.25268915966
3870.75,1139.15268382744
3871,1140.0552912835
3871.25,1138.89237214398
3871.5,1136.04043367922
3871.75,1132.5436062152
3872,1129.44962546448
3872.25,1127.80295479942
3872.5,1128.15576521845
3872.75,1130.0473503822
3873,1132.89229534617
3873.25,1136.10518516585
3873.5,1139.13967036829
3873.75,1141.82946280643
3874,1144.22234518827
3874.25,1146.36849832197
3874.5,1148.31810940271
3874.75,1150.12344937647
3875,1151.84186131397
3875.25,1153.53144531767
3875.5,1155.25030149003
3875.75,1157.03814379852
3876,1158.63307596126
3876.25,1159.52667535617
3876.5,1159.20329065094
3876.75,1157.14727051321
3877,1153.08467386926
3877.25,1147.85432402432
3877.5,1142.61505956673
3877.75,1138.52574768636
3878,1136.73275095759
3878.25,1137.58646622483
3878.5,1140.17652964823
3878.75,1143.48090493417
3879,1146.47755578899
3879.25,1148.25548788495
3879.5,1148.78705038582
3879.75,1148.46643701811
3880,1147.69045463316
3880.25,1146.85509967784
3880.5,1146.15862459033
3880.75,1145.34461433233
3881,1144.09299039642
3881.25,1142.0836742752
3881.5,1139.02881107864
3881.75,1135.12018959475
3882,1130.91754611059
3882.25,1126.99000798032
3882.5,1123.90669777383
3882.75,1122.13427967845
3883,1121.77296643257
3883.25,1122.84107699529
3883.5,1125.35693032572
3883.75,1129.31990792041
3884,1134.36808102721
3884.25,1139.81520095065
3884.5,1144.96350665801
3884.75,1149.11524363165
3885,1151.76540874504
3885.25,1153.10655757653
3885.5,1153.48899280187
3885.75,1153.26301709681
3886,1152.77231371986
3886.25,1152.15217201792
3886.5,1151.29250067872
3886.75,1150.06912966912
3887,1148.35788895599
3887.25,1146.05408336902
3887.5,1143.1857352242
3887.75,1139.83623005116
3888,1136.08913744265
3888.25,1132.02912207691
3888.5,1127.89790339945
3888.75,1124.25641081147
3889,1121.70430954292
3889.25,1120.84126482372
3889.5,1122.1642539124
3889.75,1125.11580065922
3890,1128.518922934
3890.25,1131.18873043395
3890.5,1131.94358286437
3890.75,1130.15850116442
3891,1126.39104963006
3891.25,1121.34997374588
3891.5,1115.7440189965
3891.75,1110.24401878497
3892,1105.11482132422
3892.25,1100.374954739
3892.5,1096.03948925356
3892.75,1092.12201425031
3893,1088.42400686499
3893.25,1084.31597127786
3893.5,1079.11613372135
3893.75,1072.14272042785
3894,1062.91297902338
3894.25,1052.15532961906
3894.5,1041.05382112685
3894.75,1030.79332635352
3895,1022.48598654496
3895.25,1016.0532924648
3895.5,1010.44481772429
3895.75,1004.58171685256
3896,997.412073232117
3896.25,988.601224458888
3896.5,978.590769135205
3896.75,967.86105920293
3897,956.893492534066
3897.25,946.197886838281
3897.5,936.315138499873
3897.75,927.787722934374
3898,921.100192866268
3898.25,915.928536096488
3898.5,911.354757750036
3898.75,906.447140443578
3899,900.373180685292
3899.25,892.808740781772
3899.5,883.592068440685
3899.75,872.570327470042
3900,860.310616805089
3900.25,848.620976466356
3900.5,839.432276787877
3900.75,834.268379431934
3901,831.544833996277
3901.25,828.243811339841
3901.5,821.420245646751
3901.75,810.655770107259
3902,798.504018224529
3902.25,787.687120494688
3902.5,779.960283518467
3902.75,774.504802317631
3903,770.078387455604
3903.25,765.681876241396
3903.5,761.342927103028
3903.75,757.360232139778
3904,753.887166759931
3904.25,750.295674927001
3904.5,745.69617833999
3904.75,739.39249289564
3905,731.822621275052
3905.25,723.836369374213
3905.5,716.316948065225
3905.75,710.328418309395
3906,706.996791764561
3906.25,706.748145616846
3906.5,707.225068616505
3906.75,705.382956349238
3907,699.567772779693
3907.25,691.464113270758
3907.5,683.23889625682
3907.75,676.609166658515
3908,672.624965419763
3908.25,672.115037209413
3908.5,673.463259412726
3908.75,673.201044064291
3909,668.655857096559
3909.25,661.466241682912
3909.5,654.639202549
3909.75,650.007831701067
3910,646.968337826196
3910.25,644.621298768049
3910.5,642.177059046453
3910.75,638.930003981935
3911,634.536357001681
3911.25,630.01517656701
3911.5,626.662240085931
3911.75,624.500609503442
3912,622.148335696665
3912.25,618.515952171283
3912.5,614.210061981569
3912.75,610.301183100348
3913,607.075558473539
3913.25,603.953648661311
3913.5,600.522969194279
3913.75,597.182795917719
3914,594.473986994586
3914.25,592.139811930913
3914.5,589.309290486145
3914.75,585.575842809747
3915,581.563149146914
3915.25,577.96410058869
3915.5,575.073294357226
3915.75,573.008408656407
3916,571.409026033624
3916.25,569.475317554067
3916.5,566.695515284313
3916.75,563.175786004176
3917,559.228932794957
3917.25,555.772764139832
3917.5,553.723761523118
3917.75,552.208289822424
3918,549.382523937088
3918.25,545.378571130001
3918.5,542.395390300169
3918.75,541.193255667027
3919,539.770301996472
3919.25,536.848048596803
3919.5,534.099843107993
3919.75,533.085501114947
3920,532.315030572016
3920.25,529.774885435419
3920.5,526.109067005037
3920.75,522.996460673906
3921,520.777973767954
3921.25,518.987796356535
3921.5,517.532586113112
3921.75,516.602570832388
3922,515.789524828348
3922.25,514.112441716302
3922.5,511.548848164289
3922.75,509.230717847733
3923,507.718172649679
3923.25,506.682636878778
3923.5,505.754831177753
3923.75,504.606912087667
3924,503.126969353669
3924.25,501.556029776463
3924.5,500.056395943358
3924.75,498.595658326549
3925,497.372167092496
3925.25,497.024937231318
3925.5,497.343576060236
3925.75,496.543785868817
3926,494.251470232233
3926.25,492.777315863242
3926.5,492.959137614971
3926.75,492.758490137726
3927,491.20379783489
3927.25,489.388691370871
3927.5,488.222732642079
3927.75,488.081308496126
3928,488.703159314862
3928.25,489.08527351229
3928.5,488.999112955518
3928.75,489.132671026933
3929,489.690904670818
3929.25,490.343374199688
3929.5,490.856148698821
3929.75,491.109882597012
3930,491.078460532299
3930.25,490.742533866395
3930.5,489.152844730344
3930.75,484.937297476948
3931,480.0065480015
3931.25,478.090222261119
3931.5,478.784043978617
3931.75,479.436220698953
3932,479.120641647967
3932.25,477.919886357036
3932.5,477.009485198975
3932.75,477.338003579587
3933,476.930006082816
3933.25,474.189456899805
3933.5,471.836479867298
3933.75,471.8694918514
3934,471.811931022945
3934.25,470.414978570346
3934.5,470.24677880575
3934.75,471.706274222567
3935,471.515316589042
3935.25,469.070853881166
3935.5,466.821898568685
3935.75,465.971794195804
3936,466.490382874456
3936.25,467.03967199128
3936.5,466.150085032666
3936.75,465.981412618015
3937,468.602049856365
3937.25,469.897809927569
3937.5,466.990911890299
3937.75,464.889878421972
3938,466.302533763693
3938.25,466.764160161847
3938.5,464.772708600348
3938.75,463.843260709
3939,464.182182128131
3939.25,462.822592495407
3939.5,461.042059857193
3939.75,462.135425099836
3940,463.051900853258
3940.25,459.653231602745
3940.5,455.737412862627
3940.75,455.280316103839
3941,456.24219055197
3941.25,456.767635001638
3941.5,457.249762451362
3941.75,457.834393006681
3942,458.111343091092
3942.25,457.35777855087
3942.5,454.996131097362
3942.75,453.019836682673
3943,453.665474397614
3943.25,455.185709848192
3943.5,455.773133899576
3943.75,456.185398474208
3944,456.824849424085
3944.25,456.969247136499
3944.5,456.328360829292
3944.75,455.1546560163
3945,454.089488382754
3945.25,453.825701218832
3945.5,454.007619102058
3945.75,454.055293773554
3946,453.978511682352
3946.25,453.933818271218
3946.5,454.1023372566
3946.75,454.188279831481
3947,453.383051500426
3947.25,452.170432877552
3947.5,451.841364962009
3947.75,452.000144772563
3948,451.670086308512
3948.25,450.836776237063
3948.5,450.00721206561
3948.75,450.300709742602
3949,451.610343173194
3949.25,452.034654019283
3949.5,451.248997251688
3949.75,450.338355103955
3950,449.994099148503
3950.25,450.473387921978
3950.5,451.055545665223
3950.75,451.108361072472
3951,450.948487962822
3951.25,450.92187242444
3951.5,451.161193739894
3951.75,451.166605659959
3952,450.099108006295
3952.25,449.020929189603
3952.5,449.431153162509
3952.75,450.011294859895
3953,449.473240257054
3953.25,448.872090186002
3953.5,448.897991964551
3953.75,449.102128186048
3954,449.076776636706
3954.25,448.601066780778
3954.5,448.019943619475
3954.75,447.849085109318
3955,448.047727893197
3955.25,448.241287615023
3955.5,447.652918536592
3955.75,446.822928045434
3956,448.024061884138
3956.25,449.923156285933
3956.5,448.868070949986
3956.75,447.007762985414
3957,447.839655701867
3957.25,449.114972311491
3957.5,448.634146855326
3957.75,447.637219221498
3958,447.088139797231
3958.25,446.9762001499
3958.5,447.012120669455
3958.75,446.86516275661
3959,447.019833611285
3959.25,447.815472684677
3959.5,447.843570476977
3959.75,446.567918224015
3960,445.884153105431
3960.25,446.589595792785
3960.5,447.917956191429
3960.75,448.94459746981
3961,448.990265559268
3961.25,449.045061412006
3961.5,450.094974492449
3961.75,451.300035942145
3962,451.91276171597
3962.25,451.970130303509
3962.5,451.914507159693
3962.75,452.420350842809
3963,452.986599941356
3963.25,452.637987294871
3963.5,451.972842495642
3963.75,451.849998294772
3964,452.06056838693
3964.25,452.161785898865
3964.5,451.715954258122
3964.75,451.055804317816
3965,451.286458510759
3965.25,451.955756570858
3965.5,451.738690872019
3965.75,450.983963657994
3966,450.632230648174
3966.25,451.234824016321
3966.5,452.558570901611
3966.75,452.949635357834
3967,452.207392932409
3967.25,452.068693610782
3967.5,452.819231379577
3967.75,453.602373055074
3968,453.997912065649
3968.25,453.952093046808
3968.5,454.060714851685
3968.75,454.664473027439
3969,455.074123389098
3969.25,455.021924891462
3969.5,455.057449413953
3969.75,455.093114283876
3970,454.521188378951
3970.25,453.995682919123
3970.5,454.522783843657
3970.75,454.99243539135
3971,454.35213118468
3971.25,454.060380699587
3971.5,454.791538004023
3971.75,454.821448806143
3972,454.058563917939
3972.25,454.476015703548
3972.5,455.803490070847
3972.75,456.292051520704
3973,456.007590677613
3973.25,455.769710513887
3973.5,456.108365851465
3973.75,457.175292504496
3974,458.363629229814
3974.25,459.02797529632
3974.5,458.695068887173
3974.75,458.007437253351
3975,458.537115943981
3975.25,459.833552260617
3975.5,460.332815652269
3975.75,460.004442977529
3976,459.413282225551
3976.25,458.951948495964
3976.5,458.861716287635
3976.75,459.110916498843
3977,459.634911961951
3977.25,460.373261732784
3977.5,460.958944308271
3977.75,460.772663493381
3978,460.109559628526
3978.25,459.810013894053
3978.5,459.984881884101
3978.75,460.435320500744
3979,461.0838143044
3979.25,461.767024205995
3979.5,461.984894246306
3979.75,461.809112575021
3980,462.425469918754
3980.25,463.707441793161
3980.5,463.89847537937
3980.75,463.140891466783
3981,463.066564124379
3981.25,463.863696905165
3981.5,464.837531816958
3981.75,464.992711045108
3982,463.805693576903
3982.25,462.986525656099
3982.5,463.633851028057
3982.75,463.924841860432
3983,463.161718040636
3983.25,463.277074622986
3983.5,464.567211346692
3983.75,465.240800881347
3984,465.057832911646
3984.25,464.985194713011
3984.5,465.01661053395
3984.75,464.785301867629
3985,465.009803915106
3985.25,466.260170541388
3985.5,467.00041919318
3985.75,466.310874885509
3986,466.12989760588
3986.25,467.342433844139
3986.5,468.207710271191
3986.75,468.092993618737
3987,468.012830199978
3987.25,468.076718869648
3987.5,467.60482816531
3987.75,467.027411015857
3988,467.298412588221
3988.25,467.968726052632
3988.5,468.164205019981
3988.75,467.984919235392
3989,467.82942312079
3989.25,468.103986377841
3989.5,468.791671991416
3989.75,468.919204364054
3990,468.265778503303
3990.25,468.007134028281
3990.5,468.605551045772
3990.75,469.538963312671
3991,470.059093951928
3991.25,469.456387517388
3991.5,468.911416199181
3991.75,470.253159944922
3992,471.951786538084
3992.25,471.768438984085
3992.5,470.981337205337
3992.75,471.277928105236
3993,472.143903311679
3993.25,472.804132144013
3993.5,472.99936560046
3993.75,472.889714280215
3994,473.226431699891
3994.25,473.920551662769
3994.5,473.742018142418
3994.75,473.01042150334
3995,473.53614902182
3995.25,474.817798300448
3995.5,474.789434684573
3995.75,474.045143180979
3996,474.378569994407
3996.25,474.996385631043
3996.5,474.470243890699
3996.75,474.002898765421
3997,474.964758857613
3997.25,476.075623865634
3997.5,476.141014734691
3997.75,476.016754833743
3998,476.464167455473
3998.25,477.261099245414
3998.5,477.934877776572
3998.75,477.831645046606
3999,477.148742750375
3999.25,477.157095836445
3999.5,477.844685380094
3999.75,477.881775894896
4000,477.207348071089
4000.25,476.781017899954
4000.5,476.904249854651
4000.75,477.413279761695
4001,477.946840463347
4001.25,478.121496038048
4001.5,478.010241814098
4001.75,477.871984739243
4002,478.010658736532
4002.25,478.566240358212
4002.5,479.027873040635
4002.75,479.028216685327
4003,479.02869512894
4003.25,479.446164001097
4003.5,480.272128460107
4003.75,481.343494881453
4004,482.326279283463
4004.25,482.92098306026
4004.5,482.922533923328
4004.75,482.769149956769
4005,483.577703475953
4005.25,484.844668626643
4005.5,484.574550740419
4005.75,483.245618592875
4006,483.253924107522
4006.25,484.596544879507
4006.5,485.650956055139
4006.75,485.991444695461
4007,485.935304826256
4007.25,485.947982779396
4007.5,486.441856890306
4007.75,486.971351378163
4008,486.934144257465
4008.25,486.964547463594
4008.5,487.860790707447
4008.75,488.980017194089
4009,489.530153762809
4009.25,490.015039094491
4009.5,491.009860944556
4009.75,492.051551150176
4010,492.649782013164
4010.25,493.037252196776
4010.5,493.506188816543
4010.75,494.072204627062
4011,494.652311206437
4011.25,495.034170526831
4011.5,495.091027360232
4011.75,494.978190949569
4012,494.898005831106
4012.25,495.056257533856
4012.5,495.533196333669
4012.75,496.115741117912
4013,496.633340599273
4013.25,497.101059040131
4013.5,497.57518840858
4013.75,498.145692390116
4014,498.750298297914
4014.25,499.010640872083
4014.5,498.89462114631
4014.75,499.133661302395
4015,500.100086091318
4015.25,501.28166771366
4015.5,502.297804891814
4015.75,503.226184754524
4016,504.184998493751
4016.25,505.266845589782
4016.5,506.38469095599
4016.75,507.092999588739
4017,507.168283050406
4017.25,506.95901392884
4017.5,506.839161546001
4017.75,507.068546919964
4018,507.654540824402
4018.25,508.009434684912
4018.5,507.86281474219
4018.75,508.063099288775
4019,509.129620481831
4019.25,510.027320759973
4019.5,509.979009098045
4019.75,510.013045332661
4020,511.019006429857
4020.25,511.992989377711
4020.5,511.967305068216
4020.75,511.963927767523
4021,513.145010498192
4021.25,514.834488148089
4021.5,516.013538733756
4021.75,516.849431119201
4022,517.828518046366
4022.25,518.809509019497
4022.5,519.447133857049
4022.75,519.860301194343
4023,520.363331456759
4023.25,520.870978512779
4023.5,521.075839783429
4023.75,521.023696765682
4024,521.016780666478
4024.25,521.059716545235
4024.5,520.875801397165
4024.75,520.391023711991
4025,519.788468947525
4025.25,519.51894187811
4025.5,520.397299795689
4025.75,522.456657657716
4026,524.25341996143
4026.25,524.881654247436
4026.5,525.016146195734
4026.75,525.353115726496
4027,525.997708330116
4027.25,526.802216561417
4027.5,527.043571084798
4027.75,526.216361571106
4028,525.818753124016
4028.25,527.586777429015
4028.5,529.767389407689
4028.75,529.348547434066
4029,527.406500673419
4029.25,527.382253529791
4029.5,529.631408508354
4029.75,531.88669113474
4030,532.936619379574
4030.25,532.86508347786
4030.5,532.202776449208
4030.75,532.069268578766
4031,532.992659969044
4031.25,534.054990755388
4031.5,534.529546393623
4031.75,534.953971893687
4032,535.902442431924
4032.25,536.87284878755
4032.5,537.161446049713
4032.75,537.022045876878
4033,537.109265995766
4033.25,537.619937997032
4033.5,538.435094425702
4033.75,539.392263161871
4034,540.290793512573
4034.25,540.901617673672
4034.5,540.956529849517
4034.75,540.450113907483
4035,539.995673190333
4035.25,540.141582770349
4035.5,540.863393625701
4035.75,541.948765954739
4036,542.859078093405
4036.25,543.028279877835
4036.5,542.8843298493
4036.75,543.394589302526
4037,544.483278291265
4037.25,545.106570699855
4037.5,544.994758713169
4037.75,545.069740658807
4038,545.902904857663
4038.25,546.993429969502
4038.5,547.86414680242
4038.75,548.778553845723
4039,550.098985566835
4039.25,551.533936121792
4039.5,552.531936243723
4039.75,552.953371792976
4040,552.971590180857
4040.25,552.873558320708
4040.5,553.082115020739
4040.75,553.68874910027
4041,554.002517633894
4041.25,553.519588732733
4041.5,553.005457786584
4041.75,553.420515497679
4042,554.513837158091
4042.25,555.457228898005
4042.5,555.915188592735
4042.75,555.990722724878
4043,555.904113860564
4043.25,556.035801578578
4043.5,556.556624545547
4043.75,556.98375604705
4044,556.889253971788
4044.25,556.839280099755
4044.5,557.668082309833
4044.75,559.174337301049
4045,560.47617489507
4045.25,561.06773203628
4045.5,560.916208128699
4045.75,560.273376349837
4046,559.986053935888
4046.25,560.708282689995
4046.5,561.77319485039
4046.75,562.218681054167
4047,562.088007730467
4047.25,561.998038295946
4047.5,562.083387361367
4047.75,561.928214542514
4048,561.544425949795
4048.25,561.948275104293
4048.5,563.822759383427
4048.75,565.731102077441
4049,565.890263174158
4049.25,565.065037303913
4049.5,565.425283686385
4049.75,567.375514117361
4050,569.268498922503
4050.25,570.003379546555
4050.5,570.01260257953
4050.75,569.887591213373
4051,569.914319054355
4051.25,570.255380024359
4051.5,570.760324946904
4051.75,571.060889429337
4052,571.047643010095
4052.25,571.002223110805
4052.5,571.201483314037
4052.75,571.802458975653
4053,572.859901929624
4053.25,573.819478318846
4053.5,573.891308260035
4053.75,573.507762041566
4054,574.33945910934
4054.25,576.891300647768
4054.5,578.92647550607
4054.75,578.491084097429
4055,577.162048701165
4055.25,577.534311609642
4055.5,579.608963617108
4055.75,581.326538715462
4056,581.733484800177
4056.25,581.970778220033
4056.5,582.999640802927
4056.75,583.949219243245
4057,583.555582965801
4057.25,582.350425751645
4057.5,582.141771137999
4057.75,583.530955982735
4058,584.968050089497
4058.25,585.157764555517
4058.5,584.914519556214
4058.75,585.54556102227
4059,587.007989040743
4059.25,588.283515293206
4059.5,588.829955004325
4059.75,588.991806340141
4060,589.115266277252
4060.25,589.103450794243
4060.5,588.746068912639
4060.75,588.216966727086
4061,588.005094092279
4061.25,588.347316235051
4061.5,588.925604450579
4061.75,589.407592299036
4062,589.800110712742
4062.25,590.219772717158
4062.5,590.427373967383
4062.75,589.837991460795
4063,588.344049186392
4063.25,587.101878104557
4063.5,587.260474916675
4063.75,588.384669329274
4064,589.333918211287
4064.25,589.720748251949
4064.5,590.03816031849
4064.75,590.694517460179
4065,591.682891245664
4065.25,592.880400907143
4065.5,593.825949621944
4065.75,593.884246001144
4066,593.009397967
4066.25,592.013502751954
4066.5,591.60894481556
4066.75,591.803041845127
4067,592.400251848493
4067.25,592.965814369106
4067.5,592.891180174706
4067.75,592.018128717858
4068,591.080498018169
4068.25,590.768687980595
4068.5,590.911123932841
4068.75,591.03853382263
4069,591.010812958565
4069.25,591.008544852523
4069.5,591.104658750588
4069.75,591.05777028719
4070,590.640762945343
4070.25,590.132684090757
4070.5,590.039528364442
4070.75,590.468032672695
4071,591.028856402227
4071.25,591.344161737339
4071.5,591.178306172278
4071.75,590.406313198656
4072,589.754543504991
4072.25,590.439663842262
4072.5,592.475288229587
4072.75,593.984361637975
4073,593.526374915385
4073.25,592.288718971962
4073.5,592.071837663149
4073.75,593.068681483508
4074,594.21870489444
4074.25,594.822268770414
4074.5,594.997177898907
4074.75,594.96258036824
4075,594.936311767353
4075.25,595.128516813392
4075.5,595.558723603524
4075.75,596.040568214432
4076,596.446418447288
4076.25,596.859464521536
4076.5,597.378372422194
4076.75,597.852862255384
4077,597.990891279781
4077.25,597.671467387629
4077.5,597.052373641061
4077.75,596.351044230565
4078,595.956353286375
4078.25,596.282678833522
4078.5,597.205751484506
4078.75,598.11465160455
4079,598.617546483819
4079.25,598.923213757842
4079.5,599.301390849168
4079.75,599.747056259094
4080,600.1218713994
4080.25,600.447796955376
4080.5,600.975687656394
4080.75,601.858724255849
4081,602.741067411751
4081.25,603.153476752379
4081.5,603.102231830906
4081.75,602.997292727838
4082,603.17765251416
4082.25,603.767222198492
4082.5,604.797314197793
4082.75,605.76953578868
4083,605.915925116949
4083.25,605.23533222389
4083.5,604.953979275133
4083.75,606.051721950981
4084,607.573996036877
4084.25,607.973186524162
4084.5,607.24660758615
4084.75,607.025624689452
4085,608.332240705567
4085.25,609.795808873214
4085.5,609.666008994017
4085.75,608.144352979429
4086,606.860630335002
4086.25,606.859845801562
4086.5,607.723607074364
4086.75,608.837690557655
4087,609.727819130574
4087.25,609.999102055123
4087.5,609.756117814613
4087.75,609.907602896092
4088,611.252978770139
4088.25,613.539591133854
4088.5,616.133717923238
4088.75,618.265564963927
4089,619.006216128533
4089.25,617.872247787101
4089.5,616.318287431454
4089.75,616.235754513209
4090,617.708632605239
4090.25,619.026459994265
4090.5,618.95440516837
4090.75,618.225831623899
4091,617.961654693215
4091.25,618.40491775675
4091.5,619.053653981739
4091.75,619.524918277705
4092,619.871236478277
4092.25,620.222039092897
4092.5,620.623540314045
4092.75,621.06032742425
4093,621.503289723935
4093.25,621.890425165983
4093.5,622.170509252723
4093.75,622.492382037805
4094,623.1388124635
4094.25,624.14305874127
4094.5,624.913893287138
4094.75,624.845291754804
4095,624.250159981015
4095.25,624.026320452155
4095.5,624.671842113069
4095.75,625.693650631669
4096,626.489921950912
4096.25,626.891694013458
4096.5,627.003254530837
4096.75,626.958973235894
4097,626.955690119169
4097.25,627.181207234697
4097.5,627.607588809654
4097.75,628.066493123175
4098,628.455175192572
4098.25,628.843240123621
4098.5,629.313386545728
4098.75,629.773279121783
4099,630.010513854513
4099.25,629.95308625432
4099.5,629.921126356965
4099.75,630.265385681918
4100,630.81096650771
4100.25,630.985848420766
4100.5,630.427096292226
4100.75,629.447374022359
4101,628.485224039904
4101.25,627.908588591187
4101.5,628.025514424107
4101.75,628.981325741568
4102,630.362574855184
4102.25,631.646675998551
4102.5,632.5490603976
4102.75,633.002351253334
4103,633.090114153109
4103.25,633.449109300266
4103.5,634.814246221856
4103.75,637.014924235236
4104,638.924332678957
4104.25,639.669891366867
4104.5,639.802676160325
4104.75,640.277397403927
4105,641.282793504566
4105.25,641.978237670155
4105.5,641.621220816655
4105.75,640.624738110292
4106,639.87733750297
4106.25,639.809590436136
4106.5,639.981785354378
4106.75,639.91842734639
4107,639.77735477488
4107.25,640.090198581954
4107.5,641.042729333125
4107.75,641.890712057872
4108,641.807341460106
4108.25,641.101840454171
4108.5,641.006973763332
4108.75,642.340455353317
4109,644.2113708079
4109.25,645.346514381142
4109.5,645.389557562665
4109.75,645.036375836589
4110,644.92505024235
4110.25,645.001699105297
4110.5,644.958104582031
4110.75,644.63812761832
4111,644.153143261324
4111.25,643.639680631864
4111.5,643.214868813193
4111.75,642.984629702238
4112,643.063467190388
4112.25,643.589535007855
4112.5,644.681145937981
4112.75,646.035947450838
4113,646.991320171302
4113.25,647.106356333623
4113.5,646.921317624212
4113.75,647.221580043753
4114,648.284215157974
4114.25,649.717921037934
4114.5,651.116107730829
4114.75,652.290160525553
4115,653.147475333645
4115.25,653.658372015578
4115.5,653.929780422032
4115.75,654.091803578641
4116,654.352636780065
4116.25,654.981316575955
4116.5,656.12196685723
4116.75,657.380449143846
4117,658.227861283235
4117.25,658.553669589612
4117.5,658.85222886872
4117.75,659.610438646024
4118,660.80151223104
4118.25,662.117378673934
4118.5,663.253963876671
4118.75,663.928129005006
4119,663.880809609375
4119.25,663.465584800862
4119.5,663.746021625041
4119.75,665.607871307003
4120,668.263374326181
4120.25,670.148973263991
4120.5,670.24192820096
4120.75,668.997148162908
4121,667.11649941465
4121.25,665.272313084904
4121.5,664.103405422477
4121.75,664.13858678617
4122,665.052487834096
4122.25,666.114705096477
4122.5,666.779819473784
4122.75,667.022322309868
4123,666.917896431477
4123.25,666.872335537779
4123.5,667.658225681357
4123.75,669.891333012674
4124,672.851506696626
4124.25,675.206449827226
4124.5,676.255322749827
4124.75,677.078059262826
4125,679.021918472432
4125.25,681.953110613632
4125.5,683.910856839974
4125.75,683.103598028951
4126,680.574341835181
4126.25,679.00392165771
4126.5,680.242912083172
4126.75,682.440082446229
4127,682.753333037637
4127.25,680.223218285293
4127.5,677.489659097339
4127.75,677.464480790306
4128,680.300270583491
4128.25,683.556180479178
4128.5,685.125208601453
4128.75,685.953344098696
4129,688.295146047017
4129.25,693.369726066798
4129.5,699.115480747394
4129.75,702.856334806685
4130,703.824226345553
4130.25,704.252539619616
4130.5,706.518194996664
4130.75,710.481774701336
4131,713.61435856879
4131.25,713.638641018008
4131.5,711.852232839612
4131.75,711.662652864653
4132,715.746262264148
4132.25,721.900907452875
4132.5,725.99312328472
4132.75,725.227631567827
4133,722.247943322284
4133.25,721.073100749836
4133.5,723.916378528907
4133.75,727.49650871067
4134,727.50386558086
4134.25,722.105659462482
4134.5,714.874158223845
4134.75,710.062604059708
4135,709.368255547685
4135.25,710.108004591094
4135.5,709.250157533552
4135.75,706.147526673483
4136,702.85605719478
4136.25,701.425960937103
4136.5,701.743883505426
4136.75,702.082659776258
4137,700.946138944497
4137.25,698.805688622486
4137.5,697.004703642515
4137.75,696.518177425911
4138,696.813934329006
4138.25,696.980813357143
4138.5,696.557369748565
4138.75,696.063244652828
4139,696.132327954443
4139.25,696.8750811773
4139.5,697.756894935633
4139.75,698.239117239424
4140,698.248223888884
4140.25,698.036225433209
4140.5,697.845038297493
4140.75,697.80867800944
4141,698.018460901848
4141.25,698.480406154498
4141.5,698.908945500768
4141.75,698.958586264287
4142,698.548079455584
4142.25,698.095337209723
4142.5,698.062968182756
4142.75,698.619348288415
4143,699.609753744397
4143.25,700.854355877906
4143.5,702.07561596845
4143.75,702.933874681646
4144,703.204654919878
4144.25,703.34785044883
4144.5,704.073025576682
4144.75,705.668361698947
4145,707.012807129731
4145.25,706.699601169889
4145.5,704.384250316409
4145.75,701.818446472214
4146,700.960405422243
4146.25,702.388076593033
4146.5,704.961252201101
4146.75,707.490095224277
4147,709.611399653142
4147.25,711.57810058693
4147.5,713.542529309324
4147.75,714.771801026346
4148,714.123039979298
4148.25,710.993592165333
4148.5,707.377302933945
4148.75,706.04341568458
4149,708.546299095387
4149.25,712.659822801569
4149.5,715.438964248809
4149.75,715.501349576773
4150,714.414843314446
4150.25,714.040733388941
4150.5,714.920567845258
4150.75,715.883038704327
4151,715.702081784523
4151.25,714.273461197052
4151.5,712.492117350025
4151.75,711.245737450911
4152,710.955257023673
4152.25,711.751330262207
4152.5,713.635175784294
4152.75,715.774141609699
4153,716.994496664343
4153.25,716.539539178328
4153.5,715.4048230522
4153.75,715.04433172839
4154,716.38814477188
4154.25,718.882485457409
4154.5,721.714266997379
4154.75,724.249244935362
4155,726.194420154601
4155.25,727.302358789323
4155.5,727.656839255492
4155.75,727.804305175803
4156,728.297965853827
4156.25,728.935162752733
4156.5,728.683975439617
4156.75,726.563828884037
4157,723.298356598761
4157.25,721.097080293273
4157.5,722.006158518377
4157.75,725.343200154658
4158,728.538618732438
4158.25,729.365165388374
4158.5,728.831861565177
4158.75,729.58433371512
4159,733.726297871937
4159.25,739.757414322905
4159.5,744.737078178104
4159.75,746.410533700128
4160,746.026700731508
4160.25,745.944442493655
4160.5,747.89811406385
4160.75,750.633594958412
4161,752.004499097967
4161.25,750.558661033231
4161.5,748.007883168816
4161.75,746.964649317049
4162,749.337897875891
4162.25,753.752544063219
4162.5,757.87615140837
4162.75,759.819286167084
4163,759.687197233912
4163.25,758.146153887052
4163.5,755.959879125844
4163.75,754.37505927831
4164,754.787764345636
4164.25,758.193819901493
4164.5,763.402066587335
4164.75,768.478191264007
4165,771.734907420798
4165.25,772.923402071474
4165.5,772.312936657495
4165.75,770.295826078056
4166,768.16658751407
4166.25,767.623267565251
4166.5,770.045487249319
4166.75,773.649546659888
4167,774.848848826939
4167.25,770.390543749169
4167.5,761.5581281386
4167.75,752.770534835655
4168,748.290745383234
4168.25,748.275407767685
4168.5,749.228030010488
4168.75,747.702872583847
4169,743.603145522564
4169.25,739.811250734143
4169.5,739.143139206681
4169.75,741.267736022051
4170,743.083661110054
4170.25,741.612920105206
4170.5,737.233586547822
4170.75,732.956202121203
4171,731.639214480845
4171.25,733.069554632165
4171.5,734.796329780999
4171.75,734.563038675272
4172,732.707303272045
4172.25,731.126705489638
4172.5,731.487333232248
4172.75,733.27599080829
4173,734.866346638287
4173.25,734.920573536665
4173.5,734.105785784933
4173.75,733.917278109589
4174,735.499276032861
4174.25,738.017310622184
4174.5,739.949167725488
4174.75,740.175272498368
4175,739.434130021542
4175.25,738.998964770755
4175.5,739.730869114388
4175.75,740.807198791176
4176,740.975459227434
4176.25,739.478709299858
4176.5,737.334190090325
4176.75,735.955883571861
4177,736.273385980513
4177.25,737.658182887149
4177.5,739.169508413756
4177.75,740.147372155626
4178,740.698453087719
4178.25,741.059075457795
4178.5,741.462217764191
4178.75,742.132804845792
4179,743.293562975388
4179.25,744.975712443082
4179.5,746.793929978186
4179.75,748.309003893039
4180,749.198508264553
4180.25,749.375026316868
4180.5,748.780596871647
4180.75,747.51921750777
4181,746.013672719933
4181.25,744.722220680171
4181.5,743.889389028644
4181.75,743.343638800263
4182,742.865350963657
4182.25,742.220689798072
4182.5,741.149619737001
4182.75,739.396015414627
4183,737.236683083269
4183.25,735.858665116568
4183.5,736.518218567538
4183.75,739.314594171981
4184,742.572138732638
4184.25,744.494346472346
4184.5,744.486488422958
4184.75,743.543071891547
4185,742.747881366401
4185.25,742.487719638032
4185.5,742.284100832468
4185.75,741.617376807902
4186,740.354440251739
4186.25,738.808105985244
4186.5,737.311626715641
4186.75,736.087559668853
4187,735.241008113291
4187.25,734.873982425204
4187.5,735.14124313852
4187.75,736.24693058848
4188,738.351558147719
4188.25,740.893186744712
4188.5,742.731862701838
4188.75,742.830536304234
4189,741.695007092443
4189.25,740.907232565123
4189.5,741.925656693035
4189.75,744.509792019539
4190,747.319243242809
4190.25,749.095112264966
4190.5,749.605902763122
4190.75,749.22397383239
4191,748.310839458334
4191.25,747.042548137804
4191.5,745.488478276375
4191.75,743.726972671555
4192,741.937276013891
4192.25,740.356038201658
4192.5,739.243475548113
4192.75,739.070549190641
4193,740.421764203158
4193.25,743.674907024378
4193.5,747.533885392538
4193.75,749.894760133057
4194,749.11950923073
4194.25,746.948059020399
4194.5,746.594560199767
4194.75,750.59414950193
4195,756.569867012303
4195.25,760.001104442333
4195.5,757.260527816805
4195.75,750.946514360069
4196,746.283739801798
4196.25,747.72390407237
4196.5,753.5821382951
4196.75,759.277640343993
4197,760.892158994252
4197.25,759.569951573121
4197.5,758.739886147117
4197.75,761.392636086327
4198,766.705534815165
4198.25,771.932951142261
4198.5,774.62558115764
4198.75,775.314076540493
4199,776.187244241844
4199.25,779.268449898413
4199.5,784.135938937464
4199.75,788.627191584855
4200,790.628260259589
4200.25,789.813509572752
4200.5,787.547455318924
4200.75,785.250511702782
4201,783.832697129962
4201.25,783.47035484363
4201.5,784.280811395024
4201.75,786.009995242909
4202,787.615115751409
4202.25,787.952832057723
4202.5,786.445032482063
4202.75,784.285847428535
4203,783.015831569259
4203.25,783.837945910314
4203.5,786.286821504225
4203.75,789.382645889354
4204,792.182615038368
4204.25,794.020519082124
4204.5,794.35490580643
4204.75,792.746543408247
4205,790.070557977501
4205.25,788.117843133274
4205.5,788.629132371911
4205.75,791.43856796099
4206,794.273727451204
4206.25,794.775873455319
4206.5,792.202670263
4206.75,788.480295525211
4207,785.783186849907
4207.25,785.323024154925
4207.5,785.68848260847
4207.75,785.025698259242
4208,782.151387242293
4208.25,778.680968679232
4208.5,776.959884496584
4208.75,778.908104816767
4209,783.725989817153
4209.25,789.543406570432
4209.5,794.609782320263
4209.75,798.281651080266
4210,800.504831048821
4210.25,801.261462534478
4210.5,801.046557148118
4210.75,800.777937407016
4211,801.366013701543
4211.25,802.783750167029
4211.5,803.685760218471
4211.75,802.630223459271
4212,799.056854282386
4212.25,794.570726346936
4212.5,791.103367194306
4212.75,790.133412714843
4213,791.059312083793
4213.25,792.682644139596
4213.5,793.922203704736
4213.75,794.591873049333
4214,794.918109122575
4214.25,795.124182781165
4214.5,795.358208798139
4214.75,795.713128536882
4215,796.273637972304
4215.25,796.905608198313
4215.5,797.217643975635
4215.75,796.80689285551
4216,795.650383391059
4216.25,794.454773227438
4216.5,794.009332386003
4216.75,794.725050233162
4217,795.7707773304
4217.25,796.060792884537
4217.5,794.747006547951
4217.75,792.306144484033
4218,789.673884995603
4218.25,787.75077052992
4218.5,787.077743040178
4218.75,787.987073065577
4219,790.763328247202
4219.25,794.86181583628
4219.5,799.010312711412
4219.75,801.931906290921
4220,803.154430758123
4220.25,803.267327148406
4220.5,802.931408095587
4220.75,802.510429988585
4221,801.686830377288
4221.25,800.047915199418
4221.5,797.428433188499
4221.75,794.719830164979
4222,793.095573736822
4222.25,793.516511833746
4222.5,795.257328585455
4222.75,796.789603810157
4223,796.702692678433
4223.25,795.377258318161
4223.5,794.550456091419
4223.75,795.94899845591
4224,799.757898058498
4224.25,804.253252028642
4224.5,807.59806630683
4224.75,808.700886260702
4225,807.965684641703
4225.25,805.975066443488
4225.5,803.344466266066
4225.75,800.816641809059
4226,799.165212923471
4226.25,799.005780207868
4226.5,799.73339205634
4226.75,800.174721047527
4227,799.221808799148
4227.25,796.832535483264
4227.5,793.806366014571
4227.75,790.962077605706
4228,788.970562502734
4228.25,788.305667362864
4228.5,789.424624263409
4228.75,792.308643074316
4229,795.941164091038
4229.25,799.180127298908
4229.5,801.174685738355
4229.75,802.029289751825
4230,802.043977146401
4230.25,801.481284257941
4230.5,800.381640253167
4230.75,798.704009763338
4231,796.429078296693
4231.25,793.795403909089
4231.5,791.209798981252
4231.75,789.075999751758
4232,787.639435052667
4232.25,786.974544475557
4232.5,787.143636784061
4232.75,787.951064316271
4233,788.77610386705
4233.25,788.959837655642
4233.5,788.382586887382
4233.75,788.262265832015
4234,790.020636598208
4234.25,794.469864521281
4234.5,800.031020067064
4234.75,804.538994616952
4235,806.149044638032
4235.25,805.059808313814
4235.5,802.272664915278
4235.75,798.770917735934
4236,795.268189448429
4236.25,792.284553770884
4236.5,790.32040919139
4236.75,789.348740884791
4237,788.696876447594
4237.25,787.657230931577
4237.5,786.021250300746
4237.75,784.526954676474
4238,784.017669331959
4238.25,784.937287229494
4238.5,786.565628175138
4238.75,787.971610248453
4239,788.508303251892
4239.25,788.770043518519
4239.5,789.690014120475
4239.75,791.947725515279
4240,794.456295063114
4240.25,795.377673676045
4240.5,793.084188406247
4240.75,788.498911781262
4241,784.225937873131
4241.25,782.808113100071
4241.5,784.472852971499
4241.75,786.999921065464
4242,788.076814480251
4242.25,786.761403898569
4242.5,784.161081709119
4242.75,781.549675303775
4243,779.875927309319
4243.25,779.35252013773
4243.5,780.090811996637
4243.75,782.029911903003
4244,784.544503821034
4244.25,786.893841270905
4244.5,788.455051332873
4244.75,789.158493280325
4245,789.096691943455
4245.25,788.370284237041
4245.5,787.139933480349
4245.75,785.59329632617
4246,783.914699240578
4246.25,782.244565295409
4246.5,780.693137481693
4246.75,779.36677028049
4247,778.297036705068
4247.25,777.441283854314
4247.5,776.756728060095
4247.75,776.332231706505
4248,776.435562831505
4248.25,777.343971178318
4248.5,779.018430842039
4248.75,780.846079456842
4249,782.154280352047
4249.25,782.555590312919
4249.5,782.361166442209
4249.75,781.987162482331
4250,781.770740422155
4250.25,781.767877032454
4250.5,781.972009648011
4250.75,782.30357627473
4251,782.301143038338
4251.25,781.378824171603
4251.5,779.075648225167
4251.75,775.906542723923
4252,772.845131247572
4252.25,770.784297010656
4252.5,769.61990259543
4252.75,768.591279568593
4253,766.984626373379
4253.25,765.069104886879
4253.5,763.930379240811
4253.75,764.631656538517
4254,767.145013632388
4254.25,770.348664488422
4254.5,773.090062935123
4254.75,774.736446539733
4255,775.258155918789
4255.25,774.663397310543
4255.5,773.170442891605
4255.75,771.304843787856
4256,769.613948034443
4256.25,768.34535327836
4256.5,767.172589295293
4256.75,765.705236876125
4257,763.81891189296
4257.25,762.025902154696
4257.5,760.931477791697
4257.75,760.874688618361
4258,761.42886813118
4258.25,762.030559413798
4258.5,762.264018513396
4258.75,762.196974618935
4259,761.995917053979
4259.25,761.854550745671
4259.5,762.069358033116
4259.75,762.961078488733
4260,764.644928618381
4260.25,766.339811238652
4260.5,767.020350216197
4260.75,765.955868696156
4261,763.91913818681
4261.25,762.161132299118
4261.5,761.694513826491
4261.75,762.032753579071
4262,762.108226262491
4262.25,761.022715178005
4262.5,759.126321370651
4262.75,757.323550587549
4263,756.424828353722
4263.25,756.414555894101
4263.5,756.857950300429
4263.75,757.357854211729
4264,757.901493566542
4264.25,758.686686090848
4264.5,759.881287995887
4264.75,761.320792136786
4265,762.644255077634
4265.25,763.514760895192
4265.5,763.908150837584
4265.75,764.003844853591
4266,763.979969479584
4266.25,763.946419004731
4266.5,763.962110762633
4266.75,764.083307299736
4267,764.340582814444
4267.25,764.742281575714
4267.5,765.302709929946
4267.75,766.190610869393
4268,767.729405900143
4268.25,770.240390761664
4268.5,773.768566184733
4268.75,778.035280159591
4269,782.755140266426
4269.25,788.212478311778
4269.5,795.506724467409
4269.75,805.786583544008
4270,818.388377303815
4270.25,829.024916559284
4270.5,832.977893489325
4270.75,827.165971591955
4271,814.537945382295
4271.25,799.430789600479
4271.5,785.916075799654
4271.75,775.281915973059
4272,767.154302031522
4272.25,761.124265301637
4272.5,756.511218304585
4272.75,752.373735597284
4273,747.79071137161
4273.25,742.706053634029
4273.5,738.025014925423
4273.75,734.670645398322
4274,732.658008397189
4274.25,730.993115739359
4274.5,728.679975370999
4274.75,725.806891302957
4275,723.503267171033
4275.25,722.830578088164
4275.5,723.176098352535
4275.75,722.623303153231
4276,719.446620127715
4276.25,714.217869029921
4276.5,708.851025048674
4276.75,705.028859562996
4277,702.690257390253
4277.25,701.026126066127
4277.5,699.356707630408
4277.75,697.557614933422
4278,695.650458077496
4278.25,693.707153595823
4278.5,691.91846697277
4278.75,690.48713316399
4279,689.408954807377
4279.25,688.407858333566
4279.5,687.21894671034
4279.75,685.969800645055
4280,685.065874028961
4280.25,684.783947855388
4280.5,684.626437442228
4280.75,683.819934977915
4281,681.938549900848
4281.25,679.477382588106
4281.5,677.077774672292
4281.75,675.212106585781
4282,674.135435833955
4282.25,674.036780353829
4282.5,674.555467066475
4282.75,674.999275832799
4283,674.804251487361
4283.25,673.944534541982
4283.5,672.533752448735
4283.75,670.946342072823
4284,670.003848615056
4284.25,670.499368777258
4284.5,672.159054778862
4284.75,673.895975499598
4285,674.8077851993
4285.25,675.023515192928
4285.5,674.994723739307
4285.75,675.010045916096
4286,675.021542711073
4286.25,674.939586619513
4286.5,674.672860309971
4286.75,674.128475227407
4287,673.236930443761
4287.25,672.087290180111
4287.5,670.834399920461
4287.75,669.690409061388
4288,669.022074521911
4288.25,669.199646733104
4288.5,669.925766491814
4288.75,670.138275627903
4289,668.934433652934
4289.25,667.041597748117
4289.5,665.976762415573
4289.75,666.664130164389
4290,668.208796517533
4290.25,669.390922959272
4290.5,669.644099173659
4290.75,669.190589794369
4291,668.292036758728
4291.25,667.143610787665
4291.5,665.906458808056
4291.75,664.778641993113
4292,664.076795345618
4292.25,664.130582503276
4292.5,664.887242589585
4292.75,665.812716764698
4293,666.405985011608
4293.25,666.709318688519
4293.5,667.040007541156
4293.75,667.562636644518
4294,667.970889821656
4294.25,667.886314662588
4294.5,667.507926896417
4294.75,667.738887952985
4295,669.351605398041
4295.25,671.619397306074
4295.5,673.048450733153
4295.75,672.787282845383
4296,672.027275875554
4296.25,672.331105153134
4296.5,674.012055800537
4296.75,675.70895916952
4297,676.098385695008
4297.25,675.455867617988
4297.5,674.99980907073
4297.75,675.591039486641
4298,676.594392896968
4298.25,677.003782253877
4298.5,676.402122811238
4298.75,675.381013011297
4299,674.609881005252
4299.25,674.425970928461
4299.5,674.902769891627
4299.75,676.022713918061
4300,677.29846833943
4300.25,678.080922125612
4300.5,678.177576011098
4300.75,678.449258625647
4301,679.863619619752
4301.25,682.327299158448
4301.5,684.618173988915
4301.75,685.612085364378
4302,685.469152907763
4302.25,684.992293626006
4302.5,684.760275895276
4302.75,684.490238167043
4303,683.701523593172
4303.25,682.358520013614
4303.5,681.221254293012
4303.75,681.087261695497
4304,681.906582950918
4304.25,682.874398168076
4304.5,683.273531216537
4304.75,683.176587118339
4305,682.990356261115
4305.25,682.989663920923
4305.5,683.039944784418
4305.75,682.933172869703
4306,682.71469685203
4306.25,682.799200022024
4306.5,683.596898605739
4306.75,685.06012481632
4307,686.810712738884
4307.25,688.430397404503
4307.5,689.319491249645
4307.75,688.81687382733
4308,686.749152480042
4308.25,684.217034575161
4308.5,682.50863013939
4308.75,682.160847741954
4309,682.7046716865
4309.25,683.597327697614
4309.5,684.254817751622
4309.75,684.065815975999
4310,682.698556320274
4310.25,681.227245262172
4310.5,681.162521844807
4310.75,683.067288823025
4311,685.320272265101
4311.25,686.055016110268
4311.5,685.083450589167
4311.75,684.058608011321
4312,684.538883932564
4312.25,686.268744244202
4312.5,687.980470343178
4312.75,688.622942828343
4313,688.098571413736
4313.25,686.561122630375
4313.5,684.409084075867
4313.75,682.539577742731
4314,681.871507646357
4314.25,682.360784469025
4314.5,682.96088485569
4314.75,682.71277796735
4315,681.800764243447
4315.25,680.987196472336
4315.5,680.864327829787
4315.75,681.375878131216
4316,682.31351774393
4316.25,683.355249199218
4316.5,683.986746793657
4316.75,683.727890983828
4317,682.980720137756
4317.25,682.876851928377
4317.5,684.316527011459
4317.75,686.533727964248
4318,688.089616915331
4318.25,688.044076016617
4318.5,686.924070433883
4318.75,685.518072474414
4319,684.307967841651
4319.25,683.324376010311
4319.5,682.565638737047
4319.75,682.086062456187
4320,681.982053258157
4320.25,682.297509398874
4320.5,682.765404424245
4320.75,683.007248357244
4321,682.872813346517
4321.25,682.8011002078
4321.5,683.31147802036
4321.75,684.45189653295
4322,685.684376919321
4322.25,686.496357689149
4322.5,687.050767899549
4322.75,687.92564900974
4323,689.500515048525
4323.25,691.177338437008
4323.5,692.067881411078
4323.75,691.638141389862
4324,690.169700806887
4324.25,688.062581134346
4324.5,685.857566941853
4324.75,684.268538684792
4325,683.935402233282
4325.25,684.508129840777
4325.5,684.995006982995
4325.75,684.654887472015
4326,684.041556339716
4326.25,684.107110851647
4326.5,685.328248556445
4326.75,687.087223621915
4327,688.626046664172
4327.25,689.568947827437
4327.5,689.972320375665
4327.75,689.937230030916
4328,689.785528502001
4328.25,689.968978335501
4328.5,690.774128349883
4328.75,691.69044781643
4329,691.97125347628
4329.25,691.296387699341
4329.5,690.349682917557
4329.75,689.93939460583
4330,690.156147596809
4330.25,690.189715938124
4330.5,689.25611282277
4330.75,687.590287342782
4331,686.108881151615
4331.25,685.563667092738
4331.5,685.72648297701
4331.75,686.033025602049
4332,686.103650678303
4332.25,686.035469491252
4332.5,685.998048668608
4332.75,686.035795270328
4333,686.032694934301
4333.25,685.898352718047
4333.5,685.970907992265
4333.75,686.869100548767
4334,688.943908815173
4334.25,691.146653009589
4334.5,691.982994310631
4334.75,690.70151314944
4335,688.359600211885
4335.25,686.269003266787
4335.5,685.138923411318
4335.75,684.898236760787
4336,685.404274884411
4336.25,686.274571308933
4336.5,686.966290207621
4336.75,687.000606048992
4337,686.246534622202
4337.25,684.686403231072
4337.5,682.543948758697
4337.75,680.636975996358
4338,679.852602440333
4338.25,680.389673038259
4338.5,681.610284748183
4338.75,682.852841354438
4339,683.727509164051
4339.25,684.002519271516
4339.5,683.504468339638
4339.75,682.30150998996
4340,680.527484550186
4340.25,678.453629936818
4340.5,676.624497391169
4340.75,675.595385895082
4341,675.46347047155
4341.25,675.888033562247
4341.5,676.539120601901
4341.75,677.28713766893
4342,678.088916586359
4342.25,678.825211602877
4342.5,679.155822728405
4342.75,678.714881394627
4343,677.690590535749
4343.25,676.995920001361
4343.5,677.469752702385
4343.75,678.594500170342
4344,679.011231990313
4344.25,677.882769091039
4344.5,676.686874177388
4344.75,677.513131382114
4345,680.768685310519
4345.25,683.658919363875
4345.5,683.199909040982
4345.75,679.531703086398
4346,675.540091874778
4346.25,673.809877520368
4346.5,674.133135545767
4346.75,675.097101718259
4347,675.668097581629
4347.25,675.909009387117
4347.5,676.075215012482
4347.75,676.348001902022
4348,676.81576393212
4348.25,677.539226888779
4348.5,678.361527302465
4348.75,679.000691259614
4349,679.245121066898
4349.25,679.169393203979
4349.5,678.919903018731
4349.75,678.695551600047
4350,678.787789747371
4350.25,679.474345692652
4350.5,680.641096068996
4350.75,681.847176033899
4351,682.597191137318
4351.25,682.117828572312
4351.5,679.529885858165
4351.75,674.751175144958
4352,669.89829413525
4352.25,667.414645173734
4352.5,667.899233390159
4352.75,669.590237105245
4353,670.710633929749
4353.25,670.762493166537
4353.5,669.936676774907
4353.75,668.489092281483
4354,666.87457527355
4354.25,665.585950270299
4354.5,664.917850201105
4354.75,664.888930888446
4355,665.44972444362
4355.25,666.074730533962
4355.5,665.964904587497
4355.75,664.661886773722
4356,662.893007589054
4356.25,661.622772803682
4356.5,661.047430432933
4356.75,660.326966239027
4357,658.679849080583
4357.25,656.519202049746
4357.5,654.894019404854
4357.75,654.474800809065
4358,654.78227331991
4358.25,655.1368077424
4358.5,655.208908515485
4358.75,655.040122467188
4359,654.731545633704
4359.25,654.640988390552
4359.5,655.220916713881
4359.75,656.513426875254
4360,657.736019217517
4360.25,658.071065643178
4360.5,657.58749696087
4360.75,657.005406783281
4361,656.876922243028
4361.25,656.990380698927
4361.5,656.937383979719
4361.75,656.435980309839
4362,655.387824109756
4362.25,653.762700955447
4362.5,652.030556506655
4362.75,650.933158223201
4363,650.919918096297
4363.25,651.588427008917
4363.5,652.390834337408
4363.75,652.943900543475
4364,653.026480361232
4364.25,652.538759833576
4364.5,652.00404744745
4364.75,652.151046609867
4365,653.222342148963
4365.25,654.604285735759
4365.5,655.651973700507
4365.75,656.343681826239
4366,657.047758369918
4366.25,658.038763627294
4366.5,659.255674674509
4366.75,660.562040987209
4367,661.659192928616
4367.25,662.053687389455
4367.5,661.378657837024
4367.75,660.321307419822
4368,660.053647732709
4368.25,661.224625522802
4368.5,663.100551787705
4368.75,664.757895692979
4369,666.06544790201
4369.25,667.68010858005
4369.5,670.136811843983
4369.75,672.974572404656
4370,675.341554314111
4370.25,676.670554489434
4370.5,677.079821682013
4370.75,676.805919342351
4371,676.543762802881
4371.25,677.478670099133
4371.5,680.644632928173
4371.75,685.628932853046
4372,691.306309156007
4372.25,696.643236960971
4372.5,700.935261138142
4372.75,703.555059759186
4373,704.480858038038
4373.25,704.745016733841
4373.5,705.439111863237
4373.75,706.46818930246
4374,706.481215052348
4374.25,704.233939355425
4374.5,700.486437483282
4374.75,697.321489053789
4375,696.478742922695
4375.25,697.267725491168
4375.5,698.009111475529
4375.75,697.540670954411
4376,696.511333630096
4376.25,695.959733532102
4376.5,696.415026323312
4376.75,697.428333083248
4377,698.45110323557
4377.25,699.230063258153
4377.5,699.831044437749
4377.75,700.315019275283
4378,700.511626807139
4378.25,700.105823314438
4378.5,698.888771499982
4378.75,697.278382023995
4379,695.91718613807
4379.25,695.242642401991
4379.5,695.04185040591
4379.75,694.974459881175
4380,694.78032213445
4380.25,694.337332615462
4380.5,693.550759917238
4380.75,692.621456638747
4381,692.034998255997
4381.25,692.223252462842
4381.5,693.027409460029
4381.75,693.974672541856
4382,694.660747906485
4382.25,694.993519458827
4382.5,694.966782096832
4382.75,694.716367045337
4383,694.700019086093
4383.25,695.396765835007
4383.5,696.461005929348
4383.75,696.515759654957
4384,694.285662974929
4384.25,690.678427348859
4384.5,688.136248852377
4384.75,688.641263849188
4385,691.075878154515
4385.25,693.118868710117
4385.5,693.198927335488
4385.75,691.990957836982
4386,690.578662586041
4386.25,689.514356955823
4386.5,688.511508937475
4386.75,687.256102928852
4387,686.244409826723
4387.25,686.660933365748
4387.5,689.413716356435
4387.75,693.279029364047
4388,696.105686548505
4388.25,696.496304689418
4388.5,695.567352205026
4388.75,694.945374084461
4389,695.270637892727
4389.25,695.41171250625
4389.5,694.119815455583
4389.75,691.708469454766
4390,690.059280237535
4390.25,690.86005086888
4390.5,693.258442163247
4390.75,694.977144650602
4391,694.325991911793
4391.25,692.345502716559
4391.5,690.845928803471
4391.75,690.791324288252
4392,691.140589003398
4392.25,690.592716991769
4392.5,688.936806049493
4392.75,687.324525765719
4393,686.901153866835
4393.25,687.674669721581
4393.5,688.887363267721
4393.75,689.806030414144
4394,689.905518218262
4394.25,688.730841852408
4394.5,686.158225672318
4394.75,682.923299962393
4395,679.891714326755
4395.25,677.617619047707
4395.5,676.240515269814
4395.75,675.845711779548
4396,676.222732099981
4396.25,676.970311495126
4396.5,677.7451743806
4396.75,678.477654122449
4397,679.174737746041
4397.25,679.864252520172
4397.5,680.613966123949
4397.75,681.486597976623
4398,682.360322350598
4398.25,682.94654068415
4398.5,683.023478843282
4398.75,682.88268134591
4399,683.036242034323
4399.25,683.704343681747
4399.5,684.192287078417
4399.75,683.640066796935
4400,681.87299828143
4400.25,679.730192007809
4400.5,678.078549721134
4400.75,677.022854888953
4401,676.10375376048
4401.25,675.024427391834
4401.5,674.442160618253
4401.75,675.33317920375
4402,677.948482933412
4402.25,680.897136421214
4402.5,682.607688455819
4402.75,682.575978430088
4403,681.379362277474
4403.25,679.641730133429
4403.5,677.973668531337
4403.75,676.979213712308
4404,677.079267669784
4404.25,678.050767064782
4404.5,679.529244269986
4404.75,681.156186813147
4405,682.582272272467
4405.25,683.459743618005
4405.5,683.451673941441
4405.75,682.229066245584
4406,679.661316286251
4406.25,676.733344641518
4406.5,674.818798547775
4406.75,674.830813989838
4407,676.527809898129
4407.25,679.487278892026
4407.5,683.201832716646
4407.75,687.06962747223
4408,690.553438294015
4408.25,693.727436591742
4408.5,696.983143127012
4408.75,700.449030664599
4409,703.17478877706
4409.25,703.941645731757
4409.5,702.547637955483
4409.75,701.014780606111
4410,701.612508616396
4410.25,704.695887125624
4410.5,708.074315963531
4410.75,709.500756208922
4411,708.61440338939
4411.25,706.556404251335
4411.5,704.445249872565
4411.75,702.842040140599
4412,702.021788992093
4412.25,702.166621084
4412.5,703.007709857026
4412.75,704.136092084835
4413,705.116533546658
4413.25,705.440110541013
4413.5,704.591591018912
4413.75,702.548683783778
4414,700.117459156323
4414.25,698.170471784632
4414.5,697.259910895591
4414.75,697.603273724683
4415,699.300212912834
4415.25,701.347712181597
4415.5,702.069519633894
4415.75,700.172365334869
4416,696.517416065075
4416.25,692.700789075462
4416.5,689.898211639857
4416.75,687.986866534364
4417,686.59879418173
4417.25,685.669005321691
4417.5,685.625343377554
4417.75,686.880957395677
4418,688.825146378953
4418.25,689.988463423298
4418.5,689.149341539751
4418.75,686.969277179963
4419,684.899946969378
4419.25,683.924823347077
4419.5,683.468571111612
4419.75,682.642616940991
4420,681.130427086381
4420.25,679.526061493957
4420.5,678.459847443135
4420.75,677.866384493186
4421,677.132441787186
4421.25,675.704310770314
4421.5,673.4618586409
4421.75,670.442515829661
4422,666.956716910263
4422.25,663.98214558585
4422.5,662.553017185818
4422.75,662.618367216645
4423,662.994159618301
4423.25,662.62761429419
4423.5,661.699318102429
4423.75,660.894174690453
4424,660.476931134482
4424.25,659.715523592276
4424.5,657.786718216096
4424.75,654.901431646567
4425,652.213232745954
4425.25,650.693256779703
4425.5,650.137675899742
4425.75,649.950046364155
4426,649.813478414752
4426.25,649.896435227967
4426.5,650.370595757508
4426.75,650.926895730307
4427,650.966266909616
4427.25,650.12227233949
4427.5,648.749226065256
4427.75,647.328588420225
4428,646.108111571372
4428.25,645.094145247714
4428.5,644.267001131664
4428.75,643.525200622558
4429,642.739141985238
4429.25,641.762738261216
4429.5,640.42314743114
4429.75,638.614045118999
4430,636.842325949442
4430.25,635.934676748648
4430.5,636.32174237444
4430.75,637.502354298993
4431,638.849636467017
4431.25,639.828291442625
4431.5,639.966639664648
4431.75,639.047626735609
4432,637.634691146954
4432.25,636.417858474745
4432.5,635.616442003319
4432.75,635.011864799387
4433,634.441694476779
4433.25,634.052968211283
4433.5,634.072493210365
4433.75,634.650926655259
4434,635.849795855633
4434.25,637.617232325574
4434.5,639.322093200976
4434.75,640.157738876904
4435,640.183555472006
4435.25,640.710258989084
4435.5,642.830323275255
4435.75,645.300004577194
4436,645.839717954271
4436.25,643.829372150886
4436.5,642.010406227914
4436.75,643.230829468605
4437,646.677520513484
4437.25,649.080523607255
4437.5,648.322507477852
4437.75,646.019121150375
4438,644.441659342944
4438.25,644.17190168083
4438.5,644.047707410044
4438.75,643.090740398366
4439,641.716878147469
4439.25,640.794322968537
4439.5,640.815964175845
4439.75,641.690270974969
4440,643.209252358296
4440.25,644.624169471814
4440.5,644.924438679216
4440.75,643.772276460289
4441,642.335411453949
4441.25,641.89238138556
4441.5,642.435068710068
4441.75,643.01563049293
4442,642.995188679903
4442.25,642.866180462558
4442.5,643.332670946779
4442.75,644.330989350227
4443,644.988538784018
4443.25,644.563607625933
4443.5,643.208993142493
4443.75,641.371995129544
4444,639.526530997393
4444.25,638.188090299814
4444.5,637.809120897749
4444.75,638.280644270258
4445,639.212481739122
4445.25,640.214955143747
4445.5,640.904058156612
4445.75,640.936800082008
4446,640.464029439274
4446.25,639.967785939263
4446.5,639.80107779255
4446.75,639.901029547979
4447,640.130543220615
4447.25,640.46405281511
4447.5,640.979643127725
4447.75,641.718729693615
4448,642.54399237017
4448.25,643.27047180006
4448.5,643.771130692487
4448.75,643.993365585282
4449,643.896694506041
4449.25,643.488866495093
4449.5,642.798105111916
4449.75,641.936085570098
4450,641.173732649718
4450.25,640.777857412052
4450.5,640.774696387165
4450.75,641.04237656925
4451,641.451616645728
4451.25,641.858453821094
4451.5,642.130694806857
4451.75,642.392534053911
4452,642.989559246493
4452.25,644.128282247107
4452.5,645.40875174948
4452.75,646.282028224736
4453,646.485145596983
4453.25,646.111110972901
4453.5,645.30711893155
4453.75,644.433131713578
4454,643.932828367828
4454.25,643.838123053295
4454.5,643.376902326126
4454.75,641.809522893494
4455,639.824573379714
4455.25,639.017786697926
4455.5,640.268440611021
4455.75,642.285742357134
4456,643.446474084078
4456.25,643.416193583942
4456.5,643.008443420083
4456.75,642.952286916928
4457,643.435161623427
4457.25,644.486116737497
4457.5,645.696757755913
4457.75,646.090968406741
4458,644.92756430587
4458.25,643.331058750361
4458.5,643.198236555433
4458.75,645.303187427079
4459,648.17585939859
4459.25,650.189171748904
4459.5,650.977249568974
4459.75,650.984095377099
4460,650.555573715612
4460.25,649.678342835303
4460.5,648.283914248551
4460.75,646.761362106826
4461,645.996602311722
4461.25,646.672072542064
4461.5,648.125805571673
4461.75,649.213916652711
4462,649.497934875931
4462.25,649.774207780337
4462.5,650.848513972943
4462.75,652.306925897526
4463,653.001571014482
4463.25,652.312745059322
4463.5,651.255579825016
4463.75,651.115820160331
4464,652.203959716145
4464.25,653.804403659906
4464.5,655.204391404127
4464.75,655.991272314637
4465,655.863334384533
4465.25,654.824366793749
4465.5,653.454291979885
4465.75,652.371818375686
4466,651.869451531679
4466.25,652.011700399747
4466.5,652.750106912649
4466.75,653.633819116543
4467,654.130255625463
4467.25,654.120456329608
4467.5,653.999824521831
4467.75,654.145732038917
4468,654.565340341698
4468.25,655.100207410242
4468.5,655.600241448514
4468.75,655.936609140551
4469,655.997131140758
4469.25,655.905156489638
4469.5,655.982963620467
4469.75,656.486967339855
4470,657.32882702202
4470.25,658.315352865151
4470.5,659.121791192468
4470.75,659.210203755741
4471,658.112206774936
4471.25,656.329365716046
4471.5,654.959467973424
4471.75,654.783672060817
4472,655.458415262197
4472.25,656.412477047751
4472.5,657.577391250653
4472.75,659.490313183998
4473,662.554370563509
4473.25,665.93490550782
4473.5,668.251670033749
4473.75,668.758882326891
4474,668.280401242609
4474.25,667.850096533687
4474.5,667.847402923886
4474.75,667.984907211057
4475,667.993657784975
4475.25,667.939748040456
4475.5,668.030493143624
4475.75,668.29242143712
4476,668.284440665052
4476.25,667.511158749144
4476.5,665.993343505387
4476.75,664.300060251415
4477,662.976899488718
4477.25,662.20572881839
4477.5,662.007400935362
4477.75,662.308834320888
4478,662.79652740253
4478.25,663.128167334176
4478.5,663.177252593526
4478.75,663.032585904272
4479,662.778130910214
4479.25,662.40819663942
4479.5,661.883065268036
4479.75,661.373706864297
4480,661.525400758315
4480.25,662.996026864557
4480.5,665.479396387283
4480.75,667.820906274294
4481,669.077231416102
4481.25,669.600601942553
4481.5,670.174429824698
4481.75,671.041139159047
4482,671.329136218239
4482.25,670.104172605552
4482.5,667.808257307016
4482.75,666.094388754382
4483,666.321323062283
4483.25,667.82690627487
4483.5,669.199107296169
4483.75,669.653286046735
4484,669.80335376209
4484.25,670.411803703318
4484.5,671.42056765155
4484.75,672.002948933922
4485,671.495967497419
4485.25,670.475484758512
4485.5,670.004804369411
4485.75,670.637567281006
4486,671.640503542007
4486.25,672.112119788203
4486.5,671.953415630354
4486.75,671.917268596288
4487,672.650129345389
4487.25,673.668910355509
4487.5,673.968938661092
4487.75,672.937134876509
4488,671.1284312347
4488.25,669.305194745206
4488.5,667.93717787221
4488.75,667.119143658001
4489,666.889702679048
