1613,1055.7129619471
1613.25,1053.14586738381
1613.5,1049.44123380795
1613.75,1045.46782054286
1614,1042.0943869119
1614.25,1040.02661207606
1614.5,1039.24728748446
1614.75,1039.53897328859
1615,1040.68422238806
1615.25,1042.46363210587
1615.5,1044.64324819553
1615.75,1046.98255555653
1616,1049.24100730034
1616.25,1051.18894041072
1616.5,1052.7394911403
1616.75,1053.90629126819
1617,1054.7050669627
1617.25,1055.15380285452
1617.5,1055.34288609984
1617.75,1055.44870972433
1618,1055.65267119236
1618.25,1056.1347947728
1618.5,1056.83043070372
1618.75,1057.15024484203
1619,1056.43708559722
1619.25,1054.03380137878
1619.5,1049.64402697758
1619.75,1044.45723055106
1620,1040.04532434524
1620.25,1037.98022094693
1620.5,1039.57499305858
1620.75,1044.0641714902
1621,1049.6817085904
1621.25,1054.65515536189
1621.5,1057.31776050248
1621.75,1057.4516272101
1622,1055.88999424547
1622.25,1053.48967759899
1622.5,1051.098656733
1622.75,1049.21849870701
1623,1047.8990881465
1623.25,1047.15995334385
1623.5,1047.01997653626
1623.75,1047.34332823757
1624,1047.63984468033
1624.25,1047.36996711143
1624.5,1045.99413678184
1624.75,1043.16250202085
1625,1039.27772916794
1625.25,1034.92904958618
1625.5,1030.70569463868
1625.75,1027.14131605514
1626,1024.38281831253
1626.25,1022.41273731252
1626.5,1021.21300760892
1626.75,1020.75256138476
1627,1020.86561997854
1627.25,1021.30671388965
1627.5,1021.82933511888
1627.75,1022.19155724435
1628,1022.21607518692
1628.25,1021.77339189304
1628.5,1020.73513320403
1628.75,1018.97953531092
1629,1016.51909630161
1629.25,1013.49138547491
1629.5,1010.03874144437
1629.75,1006.30927856928
1630,1002.6236857717
1630.25,999.50069572417
1630.5,997.469940961022
1630.75,997.036327029415
1631,997.825355251829
1631.25,998.365370771377
1631.5,997.115772080812
1631.75,992.58640928038
1632,984.964086277598
1632.25,976.462471494465
1632.5,969.41645592967
1632.75,966.096525817782
1633,966.851693010791
1633.25,969.827564268408
1633.5,973.048623909675
1633.75,974.634725016185
1634,974.254389006607
1634.25,972.833767716392
1634.5,971.335382328501
1634.75,970.640367206325
1635,970.74005304124
1635.25,971.077361352579
1635.5,971.087160061297
1635.75,970.319353846166
1636,969.174487428845
1636.25,968.434539704767
1636.5,968.883292536123
1636.75,971.032331219084
1637,973.990673311486
1637.25,976.416873096289
1637.5,976.969308992587
1637.75,974.913910982821
1638,971.672325576482
1638.25,969.144102721317
1638.5,969.227325332591
1638.75,972.902820428374
1639,978.668866269283
1639.25,984.607852996916
1639.5,988.811006412251
1639.75,990.375689027838
1640,990.320341511402
1640.25,989.879588763203
1640.5,990.279064389335
1640.75,992.072346476453
1641,994.686965283448
1641.25,997.443008357509
1641.5,999.667408886605
1641.75,1001.06693242108
1642,1001.91996959445
1642.25,1002.55213573865
1642.5,1003.2837148971
1642.75,1004.14742662737
1643,1004.74791457154
1643.25,1004.65498685437
1643.5,1003.44829601654
1643.75,1001.28455958328
1644,999.20721224761
1644.25,998.335068678766
1644.5,999.772847329728
1644.75,1003.69701763222
1645,1008.79572207352
1645.25,1013.62310446689
1645.5,1016.74676244126
1645.75,1017.59357898686
1646,1016.95315677893
1646.25,1015.7360002419
1646.5,1014.84847952508
1646.75,1014.74670961754
1647,1015.03801929437
1647.25,1015.23570760999
1647.5,1014.85452618462
1647.75,1013.71339871495
1648,1012.30805392974
1648.25,1011.22551175563
1648.5,1011.05227703031
1648.75,1012.10430651351
1649,1013.98397105708
1649.25,1016.17736722587
1649.5,1018.17075468898
1649.75,1019.68458060143
1650,1021.14095249495
1650.25,1023.09283147531
1650.5,1026.09317449883
1650.75,1030.4175107257
1651,1035.31258848678
1651.25,1039.78673790908
1651.5,1042.84828911961
1651.75,1043.70977423089
1652,1042.61874070294
1652.25,1040.14987528673
1652.5,1036.87799171369
1652.75,1033.33942758331
1653,1029.73502881346
1653.25,1026.09264123433
1653.5,1022.43867321915
1653.75,1018.81377203973
1654,1015.46702246031
1654.25,1012.80563498252
1654.5,1011.24075532411
1654.75,1011.14485505989
1655,1012.08521180073
1655.25,1012.86813745788
1655.5,1012.27012430378
1655.75,1009.12049630342
1656,1003.60074296919
1656.25,997.325338947234
1656.5,991.977771571856
1656.75,989.19789977699
1657,989.225135090343
1657.25,990.6342885351
1657.5,991.903217144906
1657.75,991.555447900885
1658,989.30555056094
1658.25,986.14293914957
1658.5,983.119482231395
1658.75,981.251960239609
1659,980.772544199361
1659.25,981.14105150124
1659.5,981.784662749545
1659.75,982.150715340345
1660,982.015911468494
1660.25,981.425491591011
1660.5,980.432528455303
1660.75,979.095060109015
1661,977.532431907107
1661.25,975.905314311829
1661.5,974.375150710841
1661.75,973.112514437086
1662,972.372885288922
1662.25,972.4578801568
1662.5,973.669575663387
1662.75,976.207428273681
1663,979.590977460021
1663.25,983.063242741599
1663.5,985.866441566225
1663.75,987.415522797659
1664,987.956686677039
1664.25,987.985873269099
1664.5,987.999071242369
1664.75,988.355887191865
1665,988.861481407061
1665.25,989.180136772259
1665.5,988.976151490891
1665.75,988.137308437218
1666,987.33807218318
1666.25,987.425913397305
1666.5,989.247993875072
1666.75,993.046114839925
1667,997.192206071884
1667.25,999.69828885458
1667.5,998.5785421343
1667.75,993.230498962571
1668,986.809132998218
1668.25,983.101291966779
1668.5,985.890369068521
1668.75,996.919548389929
1669,1012.45555826855
1669.25,1027.85576002904
1669.5,1038.4865105726
1669.75,1041.74668897911
1670,1039.63321742192
1670.25,1034.77508043135
1670.5,1029.80120053721
1670.75,1026.66221746558
1671,1024.95281936635
1671.25,1023.7565116185
1671.5,1022.156799601
1671.75,1019.42433671483
1672,1015.76153133233
1672.25,1011.66020139682
1672.5,1007.61225518158
1672.75,1004.05292024159
1673,1001.04767514329
1673.25,998.513729499131
1673.5,996.367895599584
1673.75,994.588202316122
1674,993.588827276363
1674.25,993.973237739016
1674.5,996.345668862974
1674.75,1001.10594042661
1675,1007.26994035337
1675.25,1013.2796437311
1675.5,1017.57517593536
1675.75,1018.84307574385
1676,1017.37588688508
1676.25,1014.10963459714
1676.5,1009.98206047492
1676.75,1005.87783788152
1677,1002.24610904955
1677.25,999.322466748957
1677.5,997.341034526193
1677.75,996.487064591593
1678,996.493661182399
1678.25,996.849256358262
1678.5,997.039877880127
1678.75,996.615762011153
1679,995.697450107096
1679.25,994.704056616245
1679.5,994.057314404697
1679.75,994.139242654918
1680,994.993071036497
1680.25,996.490457099287
1680.5,998.501723848339
1680.75,1000.86983592389
1681,1003.22214198077
1681.25,1005.08383767501
1681.5,1005.97950613144
1681.75,1005.53689125662
1682,1004.18600996319
1682.25,1002.73266820644
1682.5,1001.98482094041
1682.75,1002.62464937743
1683,1004.276512508
1683.25,1006.03534832841
1683.5,1006.99215455225
1683.75,1006.33835034501
1684,1004.13239817175
1684.25,1000.87624765372
1684.5,997.075426528392
1684.75,993.219826187776
1685,989.651019454343
1685.25,986.628699700083
1685.5,984.411700612814
1685.75,983.227462098136
1686,983.021442999337
1686.25,983.590122453369
1686.5,984.728630667609
1686.75,986.248811235956
1687,988.084184598495
1687.25,990.222093236747
1687.5,992.65011858104
1687.75,995.320751302178
1688,997.975000456231
1688.25,1000.27503531852
1688.5,1001.88289104476
1688.75,1002.58261982658
1689,1002.83274390585
1689.25,1003.32354532682
1689.5,1004.7455168006
1689.75,1007.6024161574
1690,1011.34048758532
1690.25,1015.03412938629
1690.5,1017.7573298942
1690.75,1018.72213663779
1691,1017.97190332445
1691.25,1015.85963702185
1691.5,1012.73886861169
1691.75,1008.99753570675
1692,1005.28351276023
1692.25,1002.36342670576
1692.5,1001.00451452823
1692.75,1001.8603768227
1693,1004.57978916132
1693.25,1008.28738856897
1693.5,1012.10327448246
1693.75,1015.2173323272
1694,1017.44466550305
1694.25,1018.93001184813
1694.5,1019.82107225438
1694.75,1020.27315358176
1695,1020.52304916609
1695.25,1020.85700914989
1695.5,1021.56197866115
1695.75,1022.88554382831
1696,1024.50809227065
1696.25,1025.68423402221
1696.5,1025.65823557589
1696.75,1023.71962129182
1697,1020.10017473421
1697.25,1015.92217742384
1697.5,1012.3428061387
1697.75,1010.49908422978
1698,1010.83659590215
1698.25,1012.95260472274
1698.5,1016.39243269235
1698.75,1020.69926320693
1699,1025.32113378403
1699.25,1029.57505071414
1699.5,1032.76847339963
1699.75,1034.21469532124
1700,1033.67136815668
1700.25,1031.64541802123
1700.5,1028.71585679334
1700.75,1025.46165439421
1701,1022.44741820187
1701.25,1020.20248596564
1701.5,1019.25087975161
1701.75,1020.11654561928
1702,1022.94421628588
1702.25,1026.61883260875
1702.5,1029.76406299474
1702.75,1031.00357585069
1703,1029.38201294742
1703.25,1025.72007899331
1703.5,1021.30678419087
1703.75,1017.43114123115
1704,1015.22934512367
1704.25,1014.89800122191
1704.5,1016.27686991616
1704.75,1019.20502459378
1705,1023.44508383013
1705.25,1028.1769349813
1705.5,1032.31220026952
1705.75,1034.7610770862
1706,1034.57407601282
1706.25,1032.1981320756
1706.5,1028.88087722621
1706.75,1025.87943084821
1707,1024.38755411448
1707.25,1024.53126787833
1707.5,1025.54876278832
1707.75,1026.65123778026
1708,1027.06935527571
1708.25,1026.54954155937
1708.5,1025.3949241503
1708.75,1023.93629650369
1709,1022.50307778862
1709.25,1021.357355608
1709.5,1020.6647301098
1709.75,1020.58335832445
1710,1021.26971361129
1710.25,1022.71319401948
1710.5,1024.59676425718
1710.75,1026.57057683701
1711,1028.28527108497
1711.25,1029.5140096683
1711.5,1030.31347908775
1711.75,1030.78035383929
1712,1031.01131127559
1712.25,1031.11139226318
1712.5,1031.21237510787
1712.75,1031.4513698673
1713,1031.9654865991
1713.25,1032.87789997851
1713.5,1034.24724530392
1713.75,1036.11348712362
1714,1038.51658810626
1714.25,1041.41017312995
1714.5,1044.15546720142
1714.75,1045.86506109132
1715,1045.65069227828
1715.25,1042.7512270121
1715.5,1037.87940006005
1715.75,1032.6969315579
1716,1028.88127303024
1716.25,1028.05124341912
1716.5,1030.39462972277
1716.75,1034.62080569713
1717,1039.37103310385
1717.25,1043.30069089217
1717.5,1045.70214337787
1717.75,1046.75018881215
1718,1046.68447299608
1718.25,1045.74499867264
1718.5,1044.24050359317
1718.75,1042.62980822965
1719,1041.39154229667
1719.25,1041.00433347437
1719.5,1041.78508920018
1719.75,1043.44840443554
1720,1045.56868034421
1720.25,1047.72031808994
1720.5,1049.47746923437
1720.75,1050.41275814537
1721,1050.09823179791
1721.25,1048.10593608771
1721.5,1044.10706848821
1721.75,1038.9198626993
1722,1034.0999249379
1722.25,1031.21503241346
1722.5,1031.77509268813
1722.75,1035.82594002919
1723,1041.87135344328
1723.25,1048.34163272904
1723.5,1053.68049976149
1723.75,1057.01876555468
1724,1058.48929456874
1724.25,1058.30419149489
1724.5,1056.67575404358
1724.75,1053.90510221344
1725,1050.52280826157
1725.25,1047.0959999471
1725.5,1044.19180502916
1725.75,1042.29275257822
1726,1041.45133990533
1726.25,1041.58376224244
1726.5,1042.60616011802
1726.75,1044.37405055412
1727,1046.20552204067
1727.25,1047.13774373162
1727.5,1046.20543480169
1727.75,1042.53492883587
1728,1036.7839146263
1728.25,1030.87682949635
1728.5,1026.7762061341
1728.75,1026.40442480986
1729,1030.05352186942
1729.25,1035.85660076088
1729.5,1041.79827433384
1729.75,1045.87563676051
1730,1047.14505197959
1730.25,1046.51358093792
1730.5,1045.07467012085
1730.75,1043.92134094549
1731,1043.69956740233
1731.25,1043.76109195937
1731.5,1043.2247985145
1731.75,1041.20957096561
1732,1037.12603545212
1732.25,1031.81230920662
1732.5,1026.54242934988
1732.75,1022.59054101998
1733,1021.04109489508
1733.25,1021.42865819878
1733.5,1022.53071276812
1733.75,1023.11960764461
1734,1022.08169435735
1734.25,1019.56106584091
1734.5,1016.48230186353
1734.75,1013.78166753553
1735,1012.3556754422
1735.25,1012.48006186502
1735.5,1013.93905261791
1735.75,1016.50341678247
1736,1019.93073657078
1736.25,1023.72258396569
1736.5,1027.14832451722
1736.75,1029.46891188311
1737,1029.9753649195
1737.25,1028.77660504469
1737.5,1026.87652886765
1737.75,1025.32455191835
1738,1025.15330427598
1738.25,1026.47175233493
1738.5,1028.0032179851
1738.75,1028.35705047534
1739,1026.15095122513
1739.25,1021.05783668243
1739.5,1014.82444637735
1739.75,1009.43923538216
1740,1006.88909400172
1740.25,1008.28607762981
1740.5,1012.41291489001
1740.75,1017.66890307559
1741,1022.45374275721
1741.25,1025.58110929024
1741.5,1027.05975455009
1741.75,1027.11280695009
1742,1025.96339559614
1742.25,1023.90427377804
1742.5,1021.48893057165
1742.75,1019.33187854537
1743,1018.04763026759
1743.25,1018.12979651735
1743.5,1019.453056145
1743.75,1021.69455880152
1744,1024.53136823178
1744.25,1027.59018956832
1744.5,1030.17614858324
1744.75,1031.46790283379
1745,1030.6438073319
1745.25,1027.06252051418
1745.5,1021.67168506654
1745.75,1016.2455177271
1746,1012.56532161539
1746.25,1012.28672100285
1746.5,1015.36802608568
1746.75,1020.54874124383
1747,1026.5416961719
1747.25,1032.10219402295
1747.5,1036.6786036285
1747.75,1040.28386602001
1748,1042.94735777874
1748.25,1044.70293248233
1748.5,1045.70805533746
1748.75,1046.2564896368
1749,1046.64902055539
1749.25,1047.18472551238
1749.5,1048.01509243148
1749.75,1049.03224851884
1750,1050.10200651291
1750.25,1051.09008280595
1750.5,1051.72991127137
1750.75,1051.36044021162
1751,1049.24740778698
1751.25,1044.65655215771
1751.5,1037.22149799651
1751.75,1028.59715575223
1752,1021.12898452991
1752.25,1017.1630400731
1752.5,1018.73953053061
1752.75,1024.94196459484
1753,1033.19681774187
1753.25,1040.9122979312
1753.5,1045.67236290647
1753.75,1047.22426781352
1754,1046.77022715824
1754.25,1045.53951295354
1754.5,1044.72955695141
1754.75,1044.72849024994
1755,1045.0699188626
1755.25,1045.24655527157
1755.5,1044.75549846754
1755.75,1043.43527863624
1756,1041.70433496147
1756.25,1040.03742554784
1756.5,1038.90894028745
1756.75,1038.49103662063
1757,1038.10710228757
1757.25,1036.93263328777
1757.5,1034.1431256207
1757.75,1029.29620762494
1758,1023.65528402543
1758.25,1018.95953608585
1758.5,1016.94816592131
1758.75,1019.01148863706
1759,1024.17781320112
1759.25,1030.49594092372
1759.5,1036.011516347
1759.75,1038.96966101223
1760,1039.29688728815
1760.25,1037.7627539696
1760.5,1035.14313768848
1760.75,1032.19510696024
1761,1029.40699717737
1761.25,1027.06657747778
1761.5,1025.45680913833
1761.75,1024.85027543041
1762,1025.25145015269
1762.25,1026.37925998074
1762.5,1027.93876171313
1762.75,1029.63410600108
1763,1031.12864349127
1763.25,1032.02925349476
1763.5,1031.93867072825
1763.75,1030.46454401436
1764,1027.7539226471
1764.25,1024.97299863477
1764.5,1023.4011813302
1764.75,1024.31669235433
1765,1028.31222141044
1765.25,1034.14651212549
1765.5,1040.27488248503
1765.75,1045.15267420052
1766,1047.64497500346
1766.25,1048.06978154249
1766.5,1047.06697475389
1766.75,1045.27643557393
1767,1043.30335565406
1767.25,1041.54096304976
1767.5,1040.30244703639
1767.75,1039.90084850288
1768,1040.57625054584
1768.25,1041.76163507528
1768.5,1042.38811785821
1768.75,1041.37925751044
1769,1037.72299293826
1769.25,1031.754410275
1769.5,1025.08545300124
1769.75,1019.378374256
1770,1016.27288178983
1770.25,1016.2880716343
1770.5,1018.32783792791
1770.75,1021.17044824395
1771,1023.60059466613
1771.25,1024.93054947678
1771.5,1025.38459183552
1771.75,1025.27760768863
1772,1024.92423491904
1772.25,1024.58707551089
1772.5,1024.41290314944
1772.75,1024.53286105427
1773,1025.07801590309
1773.25,1026.08040318563
1773.5,1027.27860070104
1773.75,1028.35708430387
1774,1029.00032984871
1774.25,1028.91728450318
1774.5,1027.91447924918
1774.75,1025.82276589467
1775,1022.47299624757
1775.25,1017.85015003061
1775.5,1012.81166911806
1775.75,1008.52164224719
1776,1006.14449507745
1776.25,1006.65084122375
1776.5,1009.56606306645
1776.75,1013.76272775771
1777,1018.11021316461
1777.25,1021.59099568959
1777.5,1024.09892782336
1777.75,1025.96788171811
1778,1027.53457807497
1778.25,1029.1189396251
1778.5,1030.86589696773
1778.75,1032.81642294459
1779,1035.01011851706
1779.25,1037.48041476513
1779.5,1040.16291141348
1779.75,1042.91497504095
1780,1045.59178349491
1780.25,1048.04050676204
1780.5,1049.86177467344
1780.75,1050.36907173282
1781,1048.8596943262
1781.25,1044.63825120881
1781.5,1037.86241925108
1781.75,1030.32986363721
1782,1024.0243505017
1782.25,1020.92943696858
1782.5,1022.27738915972
1782.75,1026.86067922975
1783,1032.97737796783
1783.25,1038.92555616305
1783.5,1043.29458175119
1783.75,1045.88932623875
1784,1046.83165422199
1784.25,1046.24343114751
1784.5,1044.30233051513
1784.75,1041.56094116084
1785,1038.72624772836
1785.25,1036.50571429475
1785.5,1035.54973172477
1785.75,1035.79315892439
1786,1036.68323717632
1786.25,1037.6578294089
1786.5,1038.16376495096
1786.75,1037.85197861659
1787,1036.57633888132
1787.25,1034.19944625393
1787.5,1030.59284831947
1787.75,1026.10473471072
1788,1021.78941858222
1788.25,1018.75829055054
1788.5,1018.11813581197
1788.75,1020.22947384441
1789,1023.88869808835
1789.25,1027.69536774422
1789.5,1030.25033170038
1789.75,1030.72541558033
1790,1029.75819198928
1790.25,1028.21816049162
1790.5,1026.9748156058
1790.75,1026.70488944618
1791,1027.38162571428
1791.25,1028.81782994002
1791.5,1030.82630765333
1791.75,1033.17182167226
1792,1035.37661284318
1792.25,1036.88656999058
1792.5,1037.14755368804
1792.75,1035.69746265957
1793,1032.75705180401
1793.25,1028.85416898884
1793.5,1024.51813294831
1793.75,1020.25910859628
1794,1016.35135334259
1794.25,1012.91039170495
1794.5,1010.0487929509
1794.75,1007.88093283364
1795,1006.55314884642
1795.25,1006.23917711521
1795.5,1007.11364083581
1795.75,1009.33910717702
1796,1012.82875234589
1796.25,1017.26094107989
1796.5,1022.30490130521
1796.75,1027.61775475231
1797,1032.56630622222
1797.25,1036.22028931692
1797.5,1037.6359803646
1797.75,1035.89599220758
1798,1031.16154576729
1798.25,1025.02755103496
1798.5,1019.18807850202
1798.75,1015.33006677304
1799,1014.21802865582
1799.25,1014.79207857569
1799.5,1015.77805195866
1799.75,1015.90389520068
1800,1014.48824227431
1800.25,1012.2460290718
1800.5,1010.09390041327
1800.75,1008.94811095798
1801,1009.37559715271
1801.25,1010.95144816227
1801.5,1013.07591096136
1801.75,1015.14929263777
1802,1016.72126749839
1802.25,1017.81265201575
1802.5,1018.53692661703
1802.75,1019.00757210986
1803,1019.39030049713
1803.25,1020.04772468014
1803.5,1021.38884792753
1803.75,1023.82267350792
1804,1027.53076370562
1804.25,1031.61771837978
1804.5,1034.86968909449
1804.75,1036.07277956585
1805,1034.26196710333
1805.25,1030.05263509642
1805.5,1024.67852435822
1805.75,1019.37481023291
1806,1015.29514970431
1806.25,1012.76347845109
1806.5,1011.61957744996
1806.75,1011.69717377543
1807,1012.81706853095
1807.25,1014.62929554454
1807.5,1016.66312818443
1807.75,1018.44529314088
1808,1019.5328078365
1808.25,1019.96544687678
1808.5,1020.17031261496
1808.75,1020.58542156444
1809,1021.62484969227
1809.25,1023.17304570438
1809.5,1024.59624431487
1809.75,1025.23902268494
1810,1024.46311165965
1810.25,1022.20999821644
1810.5,1019.1274580753
1810.75,1015.90603673976
1811,1013.22972707781
1811.25,1011.36329264952
1811.5,1009.90624010033
1811.75,1008.39900485594
1812,1006.38577612092
1812.25,1003.79106069379
1812.5,1001.2412587219
1812.75,999.438511952095
1813,999.081961486372
1813.25,1000.47196137121
1813.5,1003.11437165598
1813.75,1006.4209169154
1814,1009.80399097184
1814.25,1012.76127529156
1814.5,1014.95846216803
1814.75,1016.08088212833
1815,1015.81617092925
1815.25,1014.28934173321
1815.5,1012.5771754394
1815.75,1011.88158233915
1816,1013.40285400188
1816.25,1017.55108927575
1816.5,1022.6757905662
1816.75,1026.79480367864
1817,1027.92650598905
1817.25,1024.9469489369
1817.5,1019.33252721171
1817.75,1013.05058381501
1818,1008.06846174832
1818.25,1005.98202299052
1818.5,1006.81507138979
1818.75,1010.17562903641
1819,1015.67171541657
1819.25,1022.7794228189
1819.5,1030.36033693415
1819.75,1037.09726269846
1820,1041.67298497144
1820.25,1043.0423541559
1820.5,1041.6989263549
1820.75,1038.67661881277
1821,1035.00993847531
1821.25,1031.68332273296
1821.5,1029.19475964394
1821.75,1027.76854005299
1822,1027.62589932391
1822.25,1028.93687530349
1822.5,1031.04674148171
1822.75,1032.63443883361
1823,1032.35984982745
1823.25,1028.94718234447
1823.5,1022.83389985335
1823.75,1016.31163191006
1824,1011.76457078659
1824.25,1011.54308416786
1824.5,1016.13905705123
1824.75,1023.25796792504
1825,1030.37629045815
1825.25,1034.98772173878
1825.5,1035.89824257752
1825.75,1034.12685179236
1826,1030.90548849982
1826.25,1027.46513163344
1826.5,1024.70785855069
1826.75,1022.72797662226
1827,1021.49803350482
1827.25,1020.9905705584
1827.5,1021.13157965438
1827.75,1021.68867108859
1828,1022.39580100091
1828.25,1022.9869255312
1828.5,1023.1364355182
1828.75,1022.25816517059
1829,1019.69472380213
1829.25,1014.78871900011
1829.5,1007.2247805581
1829.75,998.664666211353
1830,991.478966430063
1830.25,988.039181712966
1830.5,990.231731509245
1830.75,996.60494877008
1831,1004.30248069779
1831.25,1010.46308835053
1831.5,1012.69412516437
1831.75,1011.37772141396
1832,1007.91356219784
1832.25,1003.702875948
1832.5,1000.02157738782
1832.75,997.294583013656
1833,995.592930901549
1833.25,994.986501896385
1833.5,995.46123349462
1833.75,996.411094787634
1834,996.975461483794
1834.25,996.292721170707
1834.5,993.664349003514
1834.75,989.471131120368
1835,984.532350756216
1835.25,979.668555770029
1835.5,975.682373527358
1835.75,973.263658528011
1836,973.058506975384
1836.25,975.712918583409
1836.5,981.486621945972
1836.75,988.760471727156
1837,995.344878896688
1837.25,999.050146667133
1837.5,998.501617034015
1837.75,995.295085421327
1838,991.702867097297
1838.25,989.997248023965
1838.5,991.702070839787
1838.75,995.64662449562
1839,1000.05402168474
1839.25,1003.14758364213
1839.5,1003.75836420675
1839.75,1002.65957215579
1840,1001.0115582097
1840.25,999.9745812005
1840.5,1000.2744935924
1840.75,1001.19911037857
1841,1001.73908289595
1841.25,1000.88516787914
1841.5,998.124283256381
1841.75,994.585350534965
1842,991.736505864498
1842.25,991.045781486705
1842.5,993.395772172445
1842.75,997.70903784961
1843,1002.49842064773
1843.25,1006.27708631431
1843.5,1008.04366760608
1843.75,1008.25790501214
1844,1007.65330445277
1844.25,1006.96330594282
1844.5,1006.70170246477
1844.75,1006.67300385205
1845,1006.53881752366
1845.25,1005.96076564806
1845.5,1004.79982503907
1845.75,1003.61636062951
1846,1003.12402526094
1846.25,1004.0364687346
1846.5,1006.65876578922
1846.75,1009.75641455858
1847,1011.73234244207
1847.25,1010.98947687934
1847.5,1006.56469531721
1847.75,1000.0003729627
1848,993.457774205207
1848.25,989.098163434091
1848.5,988.545556448603
1848.75,991.001470733168
1849,994.984939027147
1849.25,999.014955542193
1849.5,1001.91053823939
1849.75,1003.67578157329
1850,1004.60734136482
1850.25,1005.00187339837
1850.5,1005.09035774906
1850.75,1004.84752632951
1851,1004.18562322439
1851.25,1003.01689251842
1851.5,1001.33714011129
1851.75,999.488268275086
1852,997.901769915159
1852.25,997.009138072325
1852.5,997.034955355335
1852.75,997.315646205198
1853,996.949376339486
1853.25,995.03430858606
1853.5,991.097374677185
1853.75,986.440366473054
1854,982.8242543244
1854.25,982.010008819551
1854.5,985.092707346012
1854.75,990.572267219815
1855,996.316481858373
1855.25,1000.19344245551
1855.5,1000.78351534019
1855.75,998.906504640484
1856,995.8212018842
1856.25,992.786280634467
1856.5,990.779168722352
1856.75,989.89328805895
1857,990.048822744732
1857.25,991.165852763884
1857.5,993.05510284563
1857.75,995.210756049329
1858,997.070052394269
1858.25,998.070486959102
1858.5,997.774006136419
1858.75,996.06706585754
1859,992.88834827189
1859.25,988.177453687073
1859.5,982.262272668122
1859.75,976.45994906912
1860,972.242870672504
1860.25,971.079190099058
1860.5,973.506845619578
1860.75,977.9722230473
1861,982.636191944635
1861.25,985.673744066151
1861.5,986.243315596033
1861.75,985.11156935291
1862,983.193801693201
1862.25,981.39945566956
1862.5,980.370182589858
1862.75,980.37450548398
1863,981.653297403151
1863.25,984.427813986324
1863.5,988.327726569594
1863.75,992.300696497428
1864,995.256567784264
1864.25,996.136713405454
1864.5,994.563333544736
1864.75,990.815697582874
1865,985.199850379969
1865.25,978.063357603894
1865.5,970.587652911159
1865.75,964.725835601556
1866,962.460061871079
1866.25,965.589347302326
1866.5,973.191858283608
1866.75,982.261163108928
1867,989.73777666937
1867.25,992.92020181207
1867.5,992.223852308582
1867.75,989.669481544645
1868,987.291123971179
1868.25,986.876915329827
1868.5,988.313607403871
1868.75,990.601713394356
1869,992.736782745793
1869.25,993.844507366726
1869.5,993.902953056702
1869.75,993.233233610571
1870,992.157401312032
1870.25,990.931463096713
1870.5,989.415096712771
1870.75,987.320820135051
1871,984.360907781465
1871.25,980.417420591405
1871.5,976.29561226113
1871.75,973.113007074318
1872,971.987375913014
1872.25,973.675548162855
1872.5,977.317877896204
1872.75,981.602379875881
1873,985.217170338945
1873.25,987.219639761983
1873.5,987.850020204736
1873.75,987.584887748883
1874,986.900742350786
1874.25,986.228750796793
1874.5,985.87824634197
1874.75,986.13830545333
1875,987.29698101565
1875.25,989.383378789144
1875.5,991.826758651281
1875.75,993.971677884939
1876,995.16506080211
1876.25,995.075010023344
1876.5,994.013037948831
1876.75,992.367396562642
1877,990.525380822905
1877.25,988.76802130662
1877.5,987.174907162352
1877.75,985.803158032051
1878,984.710316249571
1878.25,983.988010468685
1878.5,983.786444392995
1878.75,984.261596859193
1879,985.565431668731
1879.25,987.642740575277
1879.5,990.135223498446
1879.75,992.660506476626
1880,994.841918079632
1880.25,996.505884427999
1880.5,997.732385966868
1880.75,998.617353036713
1881,999.259397943737
1881.25,999.840768518171
1881.5,1000.64173666472
1881.75,1001.94815671577
1882,1004.02792877135
1882.25,1006.60114698073
1882.5,1008.752698542
1882.75,1009.53191605834
1883,1008.02060925637
1883.25,1004.35702958719
1883.5,999.943195577036
1883.75,996.255485760388
1884,994.74464325515
1884.25,995.837815295999
1884.5,998.616616269203
1884.75,1002.07112451616
1885,1005.20688463419
1885.25,1007.57878934571
1885.5,1009.42670036659
1885.75,1011.03348445281
1886,1012.6766504949
1886.25,1014.42503840608
1886.5,1016.07619854162
1886.75,1017.40952825355
1887,1018.20910551654
1887.25,1018.50586286989
1887.5,1018.69500019341
1887.75,1019.20100070436
1888,1020.44336496224
1888.25,1022.3850485608
1888.5,1024.17182144921
1888.75,1024.86458678947
1889,1023.52712131459
1889.25,1019.83254906506
1889.5,1014.81360220173
1889.75,1009.68698821267
1890,1005.6690725704
1890.25,1003.56930139961
1890.5,1003.00234880264
1890.75,1003.36472804513
1891,1004.05302138883
1891.25,1004.63226973206
1891.5,1005.19808645914
1891.75,1005.9502782916
1892,1007.08862633027
1892.25,1008.69667469044
1892.5,1010.47424279645
1892.75,1012.04207783521
1893,1013.02093251504
1893.25,1013.15933290264
1893.5,1012.66414706617
1893.75,1011.84497682347
1894,1011.01142399239
1894.25,1010.33023211782
1894.5,1009.36944068284
1894.75,1007.54027316638
1895,1004.25395248569
1895.25,999.22412046557
1895.5,993.610765619625
1895.75,989.005768814484
1896,987.00108725127
1896.25,988.719601708769
1896.5,992.930271117287
1896.75,997.665250143346
1897,1000.95643965824
1897.25,1001.33557030496
1897.5,999.478181323016
1897.75,996.634459329036
1898,994.054597682516
1898.25,992.733587784477
1898.5,992.558928533505
1898.75,993.1177653844
1899,993.997238240936
1899.25,994.839315567176
1899.5,995.507303794814
1899.75,995.920354438816
1900,995.997618806545
1900.25,995.634317685453
1900.5,994.635800208301
1900.75,992.786321836675
1901,989.870150380359
1901.25,985.940657605323
1901.5,982.014335763717
1901.75,979.32305874884
1902,979.098474883999
1902.25,981.960825955874
1902.5,986.587841685692
1902.75,991.272353478068
1903,994.309239843455
1903.25,994.748961138666
1903.5,993.522595941472
1903.75,991.848901697777
1904,990.944927382671
1904.25,991.588064863774
1904.5,993.533690305717
1904.75,996.392294803097
1905,999.774284105307
1905.25,1003.27609282339
1905.5,1006.46479966958
1905.75,1008.90377826524
1906,1010.15757387038
1906.25,1009.97390056111
1906.5,1008.48099339203
1906.75,1005.85447602453
1907,1002.27058109612
1907.25,998.061635704525
1907.5,993.922527703284
1907.75,990.599496313482
1908,988.83773658388
1908.25,989.064914480142
1908.5,990.945918982968
1908.75,994.033448932594
1909,997.880289023805
1909.25,1002.05387379298
1909.5,1006.15273099872
1909.75,1009.77935928
1910,1012.53754601308
1910.25,1014.22306807735
1910.5,1015.02573538556
1910.75,1015.183729865
1911,1014.93554548095
1911.25,1014.60381235492
1911.5,1014.70859029013
1911.75,1015.79822547009
1912,1018.42035103463
1912.25,1022.57291594604
1912.5,1026.72273503641
1912.75,1029.07213530017
1913,1027.82353431545
1913.25,1022.00503133394
1913.5,1013.48624897877
1913.75,1004.74760886794
1914,998.269532619438
1914.25,996.007318027342
1914.5,997.388152193639
1914.75,1001.07938279827
1915,1005.74820874242
1915.25,1010.19253472933
1915.5,1013.82434080189
1915.75,1016.23578541857
1916,1017.01905069275
1916.25,1015.92970650648
1916.5,1013.54845614575
1916.75,1010.7158811466
1917,1008.27265968014
1917.25,1006.92617322725
1917.5,1006.55480896382
1917.75,1006.71876394057
1918,1006.97757962316
1918.25,1006.91522726752
1918.5,1006.28359989344
1918.75,1004.90518080068
1919,1002.60269754773
1919.25,999.286839837351
1919.5,995.529254007101
1919.75,992.202133246381
1920,990.179183139246
1920.25,990.230371881944
1920.5,992.326008253025
1920.75,996.064668651937
1921,1001.04287082236
1921.25,1006.81076044003
1921.5,1012.6040262854
1921.75,1017.52776269727
1922,1020.68663985657
1922.25,1021.35998625312
1922.5,1020.04151263738
1922.75,1017.74067968733
1923,1015.46882824358
1923.25,1014.15102513557
1923.5,1013.92325791499
1923.75,1014.49845162315
1924,1015.58550219938
1924.25,1016.8745898095
1924.5,1017.84502294035
1924.75,1017.84317875537
1925,1016.2133547297
1925.25,1012.39496370568
1925.5,1007.18816930995
1925.75,1002.40959195
1926,999.900266484726
1926.25,1001.38800317772
1926.5,1006.53277753
1926.75,1013.18697372198
1927,1019.14209539853
1927.25,1022.29048385195
1927.5,1022.36534109058
1927.75,1020.70865094922
1928,1018.71655475
1928.25,1017.75205153844
1928.5,1018.28655495835
1928.75,1019.82152251491
1929,1021.80956040486
1929.25,1023.7079232735
1929.5,1025.15912832306
1929.75,1026.04902365183
1930,1026.27999078064
1930.25,1025.75476197251
1930.5,1024.40236786319
1930.75,1022.19594935747
1931,1019.11286198047
1931.25,1015.1317872778
1931.5,1010.51250076221
1931.75,1006.14192472579
1932,1002.99183682739
1932.25,1002.03311637198
1932.5,1003.71772316664
1932.75,1007.10923323369
1933,1011.04148627203
1933.25,1014.34889083891
1933.5,1016.25129420916
1933.75,1017.02360467924
1934,1017.1196295309
1934.25,1016.99314618827
1934.5,1017.0006264749
1934.75,1017.18485751484
1935,1017.52553693717
1935.25,1018.00236236983
1935.5,1018.58119720674
1935.75,1019.1732922311
1936,1019.67642379067
1936.25,1019.98836823323
1936.5,1019.98295841549
1936.75,1019.41668940927
1937,1018.01016957045
1937.25,1015.48399816876
1937.5,1011.72309051858
1937.75,1007.64087559918
1938,1004.547906014
1938.25,1003.75558370223
1938.5,1006.330845239
1938.75,1011.49081503898
1939,1017.60637162498
1939.25,1023.04402007043
1939.5,1026.34611598848
1939.75,1027.45612729524
1940,1026.98752975231
1940.25,1025.55797222905
1940.5,1023.77338549703
1940.75,1022.11026963598
1941,1020.96473704804
1941.25,1020.73169362633
1941.5,1021.76403051343
1941.75,1023.73604347158
1942,1025.77286852768
1942.25,1026.98387809919
1942.5,1026.50945200671
1942.75,1024.21304530353
1943,1020.68673421834
1943.25,1016.55471159178
1943.5,1012.43887014395
1943.75,1008.86568630955
1944,1006.23410064392
1944.25,1004.93415965453
1944.5,1005.34897442949
1944.75,1007.44532772266
1945,1010.54457651922
1945.25,1013.9125436487
1945.5,1016.82054553671
1945.75,1018.9223820896
1946,1020.4972823838
1946.25,1021.88227251883
1946.5,1023.41193690205
1946.75,1025.12382119834
1947,1026.47771832452
1947.25,1026.86692100779
1947.5,1025.68596995775
1947.75,1022.8193313204
1948,1019.38403198538
1948.25,1016.68787799965
1948.5,1016.03859873083
1948.75,1018.16349033619
1949,1021.81233474439
1949.25,1025.31414924845
1949.5,1026.99795114138
1949.75,1025.74020871826
1950,1022.67558009957
1950.25,1019.52089785712
1950.5,1017.99299517075
1950.75,1019.44509125682
1951,1023.15129696754
1951.25,1027.64797608029
1951.5,1031.47061782618
1951.75,1033.35242656134
1952,1033.44207101896
1952.25,1032.50515619875
1952.5,1031.30984163276
1952.75,1030.5663236071
1953,1030.34723391387
1953.25,1030.33045932187
1953.5,1030.18801413039
1953.75,1029.60970681913
1954,1028.6013070333
1954.25,1027.44003977945
1954.5,1026.41195871814
1954.75,1025.79364849985
1955,1025.56486396849
1955.25,1025.35657686694
1955.5,1024.77981445886
1955.75,1023.45487528399
1956,1021.55433395414
1956.25,1020.10450059925
1956.5,1020.20485768741
1956.75,1022.94848176378
1957,1028.55645543748
1957.25,1035.50153849675
1957.5,1042.04775698389
1957.75,1046.46066723157
1958,1047.68295605432
1958.25,1046.39540884966
1958.5,1043.55380593128
1958.75,1040.11392761287
1959,1036.91035676971
1959.25,1034.24181043688
1959.5,1032.258952929
1959.75,1031.1124435753
1960,1030.9050058294
1960.25,1031.39264495833
1960.5,1032.17887504472
1960.75,1032.86655105797
1961,1033.08388008401
1961.25,1032.7371486258
1961.5,1031.90445199291
1961.75,1030.666426214
1962,1029.12499049277
1962.25,1027.77174928963
1962.5,1027.43947840728
1962.75,1028.97248024256
1963,1033.17709952081
1963.25,1039.62241674815
1963.5,1046.39597231955
1963.75,1051.49799604615
1964,1052.94745694616
1964.25,1050.13300790429
1964.5,1044.72086316289
1964.75,1038.59240394238
1965,1033.62865730402
1965.25,1031.17322400301
1965.5,1030.95031951168
1965.75,1032.38036801214
1966,1034.88379368649
1966.25,1037.80582854524
1966.5,1040.15185965661
1966.75,1040.8313070265
1967,1038.75358492854
1967.25,1033.15627769043
1967.5,1025.55662385968
1967.75,1018.43924761413
1968,1014.29228529003
1968.25,1015.35040966622
1968.5,1020.91089104962
1968.75,1028.38021886317
1969,1035.13356292247
1969.25,1038.69047013133
1969.5,1038.6344449022
1969.75,1036.08994969032
1970,1032.21841611595
1970.25,1028.17749683326
1970.5,1025.02111359521
1970.75,1023.68915489336
1971,1025.11566398806
1971.25,1030.21549395286
1971.5,1038.83441364843
1971.75,1049.20679176763
1972,1059.43358678573
1972.25,1067.61879336169
1972.5,1072.30935155887
1972.75,1072.95644293249
1973,1069.12155304854
1973.25,1060.36616747302
1973.5,1046.91543496504
1973.75,1031.91668481108
1974,1019.32127884484
1974.25,1013.08060284417
1974.5,1016.53037629546
1974.75,1027.23777136155
1975,1039.61654817081
1975.25,1048.04841124075
1975.5,1047.44404026046
1975.75,1038.6552364393
1976,1026.27017595034
1976.25,1014.93510798311
1976.5,1009.14449887631
1976.75,1009.55656126944
1977,1012.79104317149
1977.25,1015.2754340983
1977.5,1013.52357837079
1977.75,1006.78313857755
1978,997.529532125491
1978.25,988.424173565919
1978.5,982.082489086104
1978.75,979.05650450444
1979,977.046490898961
1979.25,973.543866767003
1979.5,966.114787596759
1979.75,954.638843877158
1980,941.697251290191
1980.25,930.024186639161
1980.5,922.229535029875
1980.75,918.739802269149
1981,918.118130819614
1981.25,918.867879042671
1981.5,919.661617280172
1981.75,920.217355867787
1982,920.651934834057
1982.25,921.082361300909
1982.5,921.454660558857
1982.75,921.31226491316
1983,920.140703805815
1983.25,917.463456379278
1983.5,913.689457973272
1983.75,910.120164603453
1984,908.096394909635
1984.25,908.723765813412
1984.5,911.482416420903
1984.75,915.165856422244
1985,918.566398085735
1985.25,920.779150741422
1985.5,921.595760661327
1985.75,920.905455994549
1986,918.629688004623
1986.25,915.374398395367
1986.5,912.399956701554
1986.75,910.992939248202
1987,912.103152571433
1987.25,914.469305276774
1987.5,915.938241435022
1987.75,914.360114579973
1988,908.920234219605
1988.25,901.838613515943
1988.5,895.754669563659
1988.75,893.186590941273
1989,894.258162731017
1989.25,896.899063969713
1989.5,898.95790053001
1989.75,898.747447745798
1990,896.689525792509
1990.25,893.804654482149
1990.5,891.100134028943
1990.75,888.928553578091
1991,886.701352474613
1991.25,883.757046598451
1991.5,879.602188614639
1991.75,875.010527172075
1992,871.33382482631
1992.25,869.91793645495
1992.5,871.152704718058
1992.75,873.6304149756
1993,875.744848617271
1993.25,876.050906847452
1993.5,874.365988753957
1993.75,871.102685132327
1994,866.680377598258
1994.25,861.825347507634
1994.5,857.816050374152
1994.75,855.98866080112
1995,857.398758015379
1995.25,861.068065901778
1995.5,865.122118132357
1995.75,867.710514568345
1996,868.194460113073
1996.25,867.584900196774
1996.5,867.011006914497
1996.75,867.25066333286
1997,867.262274545031
1997.25,865.416953494986
1997.5,860.155308734901
1997.75,852.013650156746
1998,843.939328537873
1998.25,839.01293694058
1998.5,839.329350843824
1998.75,842.973713759836
1999,847.011738322156
1999.25,848.699362320785
1999.5,847.746439145787
1999.75,845.569333853481
2000,843.614267886197
2000.25,842.74159471476
2000.5,842.66300308286
2000.75,842.956684498171
2001,843.2727283881
2001.25,843.686771584627
2001.5,844.430438227583
2001.75,845.726770952578
2002,847.594785566134
2002.25,849.848786727654
2002.5,852.293986522851
2002.75,854.620587726715
2003,856.19528205786
2003.25,856.328294600426
2003.5,854.44875693792
2003.75,851.167765623773
2004,847.773510401672
2004.25,845.554747242965
2004.5,845.159444095832
2004.75,846.110409414216
2005,847.816410939421
2005.25,849.71999074821
2005.5,851.444682578618
2005.75,852.674392256861
2006,853.110556088729
2006.25,852.836598294445
2006.5,852.30700778956
2006.75,851.991493070271
2007,852.245997801626
2007.25,853.087638772693
2007.5,854.470736240993
2007.75,856.344389711546
2008,858.602125318281
2008.25,861.103904863606
2008.5,863.707247413991
2008.75,866.074197639748
2009,867.508710870118
2009.25,867.276456514287
2009.5,864.925830380049
2009.75,861.969045744644
2010,860.751613863202
2010.25,863.576777237905
2010.5,870.354874262752
2010.75,877.462779640441
2011,880.993043429841
2011.25,877.971798988085
2011.5,870.419403275698
2011.75,862.019312114711
2012,856.40547507427
2012.25,854.984821739279
2012.5,856.112241554134
2012.75,857.921826229724
2013,858.823372307752
2013.25,858.5168593656
2013.5,857.079348418532
2013.75,854.601383811279
2014,851.460711923019
2014.25,848.310640566291
2014.5,845.815454838822
2014.75,844.421255953797
2015,843.910344255613
2015.25,843.939241790434
2015.5,844.172670983913
2015.75,844.357679045539
2016,844.288839258816
2016.25,843.766809284203
2016.5,842.925752826301
2016.75,842.418471211007
2017,842.942579419858
2017.25,844.853453998743
2017.5,846.944973333896
2017.75,847.56592163879
2018,845.207071664762
2018.25,840.622574719895
2018.5,836.382502667856
2018.75,835.100437518259
2019,837.688595556617
2019.25,841.224080256295
2019.5,842.258958325533
2019.75,838.136034955566
2020,831.088922832141
2020.25,825.218958155805
2020.5,824.486740278503
2020.75,829.343736914012
2021,836.625441095172
2021.25,843.007274762986
2021.5,846.510932891156
2021.75,848.225042742825
2022,849.663185642522
2022.25,852.116990029217
2022.5,855.361642712308
2022.75,858.538292494322
2023,860.798704811141
2023.25,861.72486183059
2023.5,861.422452981629
2023.75,860.028842726862
2024,857.734477678739
2024.25,854.952024170596
2024.5,852.152290359008
2024.75,849.802775050297
2025,848.308791428094
2025.25,848.020345234421
2025.5,849.284699583753
2025.75,852.020591415201
2026,855.016238229247
2026.25,856.875601321098
2026.5,856.396493896366
2026.75,854.092005649903
2027,851.370442508026
2027.25,849.635113547527
2027.5,849.426201157922
2027.75,849.88680684941
2028,850.032653014903
2028.25,849.13388991005
2028.5,847.766503690761
2028.75,846.924270704363
2029,847.547935493674
2029.25,849.448256560994
2029.5,851.355908621598
2029.75,851.95906893978
2030,850.431377179671
2030.25,847.270746302162
2030.5,843.198810322075
2030.75,838.994841868885
2031,835.99054260189
2031.25,835.825108609896
2031.5,840.105437772767
2031.75,848.582476304943
2032,858.281299967586
2032.25,866.009287236467
2032.5,869.428836172692
2032.75,869.605695625908
2033,868.452290687963
2033.25,867.818932307885
2033.5,868.351745705518
2033.75,869.605554182379
2034,871.095730006998
2034.25,872.413022481325
2034.5,873.395891814457
2034.75,873.933607331351
2035,873.921626613941
2035.25,873.35498683124
2035.5,872.309118971891
2035.75,870.861780165303
2036,869.151523155474
2036.25,867.505141791554
2036.5,866.285752253951
2036.75,865.839427497944
2037,866.259281127508
2037.25,867.444745255247
2037.5,869.289961519981
2037.75,871.484460270479
2038,873.173518566017
2038.25,873.412919749232
2038.5,871.354243452294
2038.75,867.280889960497
2039,862.215197001565
2039.25,857.191883534884
2039.5,853.139043620688
2039.75,850.726081794601
2040,850.583932465505
2040.25,853.173389954388
2040.5,857.41555824825
2040.75,861.413111574458
2041,863.279919233844
2041.25,862.246560714084
2041.5,859.269315627632
2041.75,855.452304730637
2042,851.752438871229
2042.25,848.286690869254
2042.5,844.8745920787
2042.75,841.367266069482
2043,838.49742229843
2043.25,837.969681860607
2043.5,841.538146967315
2043.75,849.95564316396
2044,860.917635929527
2044.25,871.538091515132
2044.5,879.221951008276
2044.75,884.11284812512
2045,887.856973772409
2045.25,892.109626927127
2045.5,897.589183066501
2045.75,903.095819806905
2046,907.194918786127
2046.25,908.609672073053
2046.5,907.895916883909
2046.75,906.790940045798
2047,907.051655946667
2047.25,909.847976503965
2047.5,914.235785445234
2047.75,918.795229800496
2048,922.125743684323
2048.25,923.54591984238
2048.5,923.29122180214
2048.75,921.65667530162
2049,918.93438664169
2049.25,915.388647134086
2049.5,911.268338653949
2049.75,906.822181962929
2050,902.345941693644
2050.25,898.302663087338
2050.5,895.192556490425
2050.75,893.49858232252
2051,893.07611701867
2051.25,892.989325880782
2051.5,892.251847192251
2051.75,890.004344685314
2052,886.226288354682
2052.25,881.237256132505
2052.5,875.359555071309
2052.75,869.095492505244
2053,863.280559059344
2053.25,858.786331792069
2053.5,856.335272424415
2053.75,855.392903218611
2054,854.794499605692
2054.25,853.38276295124
2054.5,850.759708343121
2054.75,847.72207122616
2055,845.171465716962
2055.25,843.816474554449
2055.5,843.358488507228
2055.75,843.171468180683
2056,842.650225112884
2056.25,841.607781718797
2056.5,840.241983648633
2056.75,838.765252396226
2057,837.481406414373
2057.25,836.922626007981
2057.5,837.65617227967
2057.75,840.123041096965
2058,843.843074491841
2058.25,847.927909606107
2058.5,851.500571722537
2058.75,854.069080215578
2059,855.57769887473
2059.25,855.994222086732
2059.5,855.404669081198
2059.75,854.299585080068
2060,853.255964563963
2060.25,852.813772316189
2060.5,853.016524318585
2060.75,853.553051199211
2061,854.105212465356
2061.25,854.475942174598
2061.5,854.726233701303
2061.75,854.950199802408
2062,855.241766983291
2062.25,855.693487220673
2062.5,856.397297200043
2062.75,857.442786346268
2063,858.816979212347
2063.25,860.366649187305
2063.5,861.928455877596
2063.75,863.37845105094
2064,864.774359200033
2064.25,866.22624326772
2064.5,867.823572610461
2064.75,869.192336351175
2065,869.500685605053
2065.25,867.897321665012
2065.5,863.981489775375
2065.75,858.96661488417
2066,854.427479539963
2066.25,851.861649640541
2066.5,851.433780262199
2066.75,852.183329127658
2067,853.115148176448
2067.25,853.528654357069
2067.5,853.474173817793
2067.75,853.119948794522
2068,852.644708258136
2068.25,852.321240451526
2068.5,852.471970934461
2068.75,853.415464747484
2069,855.20374837526
2069.25,857.471017670256
2069.5,859.814971566845
2069.75,861.875328484398
2070,863.507499369813
2070.25,864.635913332258
2070.5,865.191232740682
2070.75,865.263238130756
2071,865.110551157993
2071.25,864.999942208613
2071.5,865.131021662625
2071.75,865.448380133801
2072,865.836087390555
2072.25,866.166388233906
2072.5,866.100927504861
2072.75,865.120078840846
2073,862.698613190417
2073.25,858.813934861372
2073.5,854.965608268851
2073.75,852.940240976607
2074,854.320959915927
2074.25,858.096531323557
2074.5,861.466422180653
2074.75,861.608369201346
2075,857.753614648716
2075.25,853.351479898617
2075.5,852.369617529154
2075.75,858.004292122872
2076,867.404609140357
2076.25,874.867697550607
2076.5,874.776150181777
2076.75,866.298873772683
2077,855.337372563784
2077.25,848.29891517283
2077.5,850.227144935338
2077.75,857.976366951526
2078,865.357907318193
2078.25,866.375261454939
2078.5,860.173912201995
2078.75,851.402176970343
2079,844.977877407747
2079.25,844.510115940209
2079.5,848.467865136581
2079.75,854.058324692383
2080,858.629419103053
2080.25,861.431036957151
2080.5,863.079550252898
2080.75,864.220622055453
2081,865.365218489877
2081.25,866.725668233276
2081.5,868.47418354035
2081.75,870.700628714606
2082,872.769299720268
2082.25,873.667123128752
2082.5,872.386001165312
2082.75,868.736196347998
2083,864.031007333914
2083.25,859.744952539748
2083.5,857.104539196797
2083.75,855.371273851991
2084,852.87148395463
2084.25,847.968673970492
2084.5,841.436355665488
2084.75,837.692529388086
2085,841.458297572695
2085.25,856.030003094589
2085.5,877.933055710269
2085.75,901.683594250795
2086,922.025198858053
2086.25,937.475196453327
2086.5,949.655172172198
2086.75,960.278972477745
2087,970.686078409196
2087.25,980.372116455419
2087.5,988.266007741938
2087.75,993.296711252469
2088,994.766839829396
2088.25,993.13270405006
2088.5,989.072583087172
2088.75,983.264778615684
2089,976.408004702805
2089.25,969.259028285942
2089.5,962.584867399342
2089.75,957.15099359564
2090,953.287843604364
2090.25,950.296420717865
2090.5,947.328843135368
2090.75,943.54453669778
2091,938.500604625953
2091.25,932.348178894612
2091.5,925.286962626661
2091.75,917.527938483812
2092,909.474832360338
2092.25,901.693045476025
2092.5,894.752984768905
2092.75,889.138691839733
2093,884.836616074489
2093.25,881.655371350426
2093.5,879.400656255177
2093.75,877.675576577324
2094,875.743021044837
2094.25,872.833320660253
2094.5,868.326584055301
2094.75,862.770276346046
2095,857.25968406853
2095.25,852.883738468919
2095.5,849.968656679461
2095.75,847.532458701257
2096,844.464498258452
2096.25,839.95883855967
2096.5,834.963321128429
2096.75,831.051967656092
2097,829.729184934541
2097.25,830.908787062355
2097.5,832.92965155236
2097.75,834.066841428103
2098,833.501978078078
2098.25,832.533219311907
2098.5,832.760243522313
2098.75,835.441004205779
2099,839.663344770062
2099.25,843.665993328379
2099.5,845.768693664273
2099.75,846.063525421039
2100,846.342313894522
2100.25,848.463616890506
2100.5,853.288321425909
2100.75,859.008073302446
2101,863.372847903706
2101.25,864.469465717834
2101.5,863.37406404884
2101.75,862.726685874999
2102,865.160971952596
2102.25,871.598441094821
2102.5,879.964977609992
2102.75,887.884217372049
2103,893.344456056028
2103.25,896.76571558976
2103.5,899.562783507861
2103.75,903.142621952408
2104,907.891726413624
2104.25,912.352850035489
2104.5,914.874999060303
2104.75,913.991342991248
2105,910.361565211082
2105.25,906.010494189881
2105.5,902.985406901961
2105.75,902.728332745705
2106,904.322063445727
2106.25,906.274627662409
2106.5,907.114696662395
2106.75,906.189295900401
2107,903.917796820716
2107.25,900.792178204544
2107.5,897.287249823933
2107.75,893.737397133204
2108,890.408351007658
2108.25,887.564936781379
2108.5,885.328327811517
2108.75,883.469759933379
2109,881.708194979815
2109.25,879.765539082665
2109.5,877.404925776518
2109.75,874.419838603959
2110,870.604661294112
2110.25,866.070068250106
2110.5,861.885914113469
2110.75,859.303193671482
2111,859.485704276073
2111.25,862.338513910409
2111.5,866.820720060904
2111.75,871.868480252892
2112,876.449053733424
2112.25,879.604537518742
2112.5,880.388056256581
2112.75,878.022320143098
2113,873.548002569259
2113.25,869.109670508163
2113.5,866.863918971073
2113.75,867.827804941849
2114,870.246402738781
2114.25,871.951357093645
2114.5,870.985469193256
2114.75,867.560384286654
2115,863.162236951268
2115.25,859.291224701518
2115.5,857.049602527294
2115.75,856.684732368905
2116,858.333246515918
2116.25,862.111673652864
2116.5,867.974701714282
2116.75,875.798945623842
2117,885.459524738764
2117.25,896.773878472798
2117.5,909.471078714353
2117.75,923.272715696852
2118,937.667024876398
2118.25,950.470778543109
2118.5,958.771907211691
2118.75,959.656781170191
2119,951.874480983512
2119.25,939.030502888695
2119.5,925.612252208162
2119.75,916.084422125679
2120,912.55321339582
2120.25,912.740207893205
2120.5,913.889530607734
2120.75,913.38171912947
2121,910.687310824876
2121.25,906.911091991676
2121.5,903.201378983947
2121.75,900.534967874079
2122,899.062330524893
2122.25,898.68541292771
2122.5,899.304546608528
2122.75,900.721154088736
2123,902.580407712659
2123.25,904.513689211475
2123.5,906.11250689295
2123.75,906.597549914713
2124,904.98800677907
2124.25,900.301873080388
2124.5,892.383206708449
2124.75,883.457184222134
2125,876.175439659775
2125.25,873.094795797081
2125.5,874.656396592733
2125.75,879.221189762598
2126,885.062409165441
2126.25,890.675657961628
2126.5,895.418265928817
2126.75,898.856271975923
2127,900.571698590632
2127.25,900.570281337777
2127.5,899.315192308522
2127.75,897.292344265045
2128,894.928181740709
2128.25,892.297279719297
2128.5,889.345270526762
2128.75,886.024242972383
2129,882.880334120176
2129.25,881.514538621961
2129.5,883.636301109487
2129.75,890.562886571324
2130,900.02067000607
2130.25,907.809074420993
2130.5,909.719946987356
2130.75,903.99483889037
2131,894.418284237721
2131.25,885.5369583407
2131.5,881.692818833361
2131.75,883.545267362393
2132,888.564409924987
2132.25,894.114932147355
2132.5,898.013977601588
2132.75,899.767106851593
2133,899.273641793434
2133.25,896.450128254013
2133.5,891.727819693366
2133.75,886.128680000782
2134,880.707187999524
2134.25,876.455042313509
2134.5,873.974320779591
2134.75,873.717844353105
2135,876.122666773484
2135.25,880.711799514253
2135.5,885.59934731734
2135.75,888.77913252678
2136,888.607878002981
2136.25,885.838495903835
2136.5,882.195397354036
2136.75,879.39576256461
2137,878.238040561906
2137.25,877.87487584066
2137.5,877.28781675556
2137.75,875.583031189511
2138,872.917048440751
2138.25,869.973023760558
2138.5,867.434559045476
2138.75,865.569110726454
2139,863.83979709018
2139.25,861.617862072785
2139.5,858.424050970018
2139.75,854.958468214415
2140,852.480417063213
2140.25,852.236304576249
2140.5,854.51481637965
2140.75,858.13037394632
2141,861.771765496277
2141.25,864.330494952908
2141.5,865.705087150658
2141.75,866.106176216399
2142,865.754574246022
2142.25,865.126232459062
2142.5,864.96585168928
2142.75,866.030938867945
2143,868.684005865726
2143.25,871.782343429201
2143.5,873.824750491789
2143.75,873.39835335904
2144,870.698434476459
2144.25,867.323383878546
2144.5,864.918565443837
2144.75,864.440614559413
2145,864.518282304101
2145.25,863.288984886984
2145.5,859.058857534894
2145.75,852.694810080713
2146,847.053741631963
2146.25,845.041858781877
2146.5,848.201365607173
2146.75,854.552739858768
2147,861.555713233734
2147.25,866.88566629043
2147.5,869.982991258323
2147.75,871.151516490064
2148,870.702377372942
2148.25,869.043078034096
2148.5,866.737315007298
2148.75,864.36305082061
2149,862.424655335337
2149.25,860.936338168371
2149.5,859.712013367473
2149.75,858.565550545716
2150,857.335532867962
2150.25,855.894670661164
2150.5,854.118170573553
2150.75,851.911243751788
2151,849.322451645914
2151.25,846.443117685766
2151.5,843.382212694787
2151.75,840.610517176318
2152,838.937788092384
2152.25,839.185909470784
2152.5,841.718134796755
2152.75,845.701871421736
2153,850.112076009796
2153.25,853.916107909211
2153.5,856.023178327688
2153.75,855.315632912262
2154,850.725680164971
2154.25,843.310661561438
2154.5,836.998121613852
2154.75,835.918858930651
2155,842.790726776292
2155.25,854.208388517151
2155.5,865.108191319688
2155.75,870.757538087283
2156,870.844086312208
2156.25,868.204349543108
2156.5,865.739300294364
2156.75,865.114821670112
2157,864.888776873624
2157.25,863.13783124229
2157.5,858.198856268801
2157.75,851.156477786663
2158,844.744766912792
2158.25,841.708849620091
2158.5,843.35382602456
2158.75,848.15428435069
2159,854.254842311242
2159.25,859.939602172506
2159.5,864.300427874904
2159.75,866.719267643787
2160,866.602647562292
2160.25,864.041742400169
2160.5,859.892103785421
2160.75,855.049490295863
2161,850.324971326737
2161.25,846.180414651723
2161.5,842.987696405943
2161.75,841.098905407784
2162,840.531738882917
2162.25,841.025356903661
2162.5,842.309008522424
2162.75,843.820278288381
2163,844.349717643973
2163.25,842.600902157001
2163.5,837.687372206239
2163.75,831.441379939696
2164,826.80177534078
2164.25,826.614961150654
2164.5,831.133942343615
2164.75,837.779191826944
2165,843.829767626378
2165.25,847.364303291111
2165.5,848.446091161585
2165.75,847.441101412084
2166,844.776054597394
2166.25,841.340817925567
2166.5,838.23851697552
2166.75,836.549793409143
2167,836.450253002346
2167.25,836.947350435198
2167.5,836.971281926753
2167.75,835.878310361523
2168,834.472556087091
2168.25,833.865402825223
2168.5,835.00772695188
2168.75,837.231074122165
2169,838.928548785136
2169.25,838.509530890462
2169.5,835.676228024224
2169.75,831.945359359581
2170,828.969519062983
2170.25,827.993246447413
2170.5,828.699536427956
2170.75,830.397907902695
2171,832.407006044252
2171.25,834.140076141199
2171.5,835.066347685946
2171.75,834.66932572212
2172,833.046382300857
2172.25,831.146860553018
2172.5,829.982867603161
2172.75,830.267069761982
2173,831.633592281112
2173.25,833.473816839223
2173.5,835.213004025107
2173.75,836.60833590838
2174,837.604986630371
2174.25,838.152313849819
2174.5,838.289708468008
2174.75,838.180124619758
2175,837.995473594517
2175.25,837.877864986159
2175.5,837.859546525631
2175.75,837.947456209391
2176,838.17063856212
2176.25,838.807225303188
2176.5,840.29237563278
2176.75,843.054010740475
2177,846.894456230212
2177.25,850.620242194393
2177.5,852.949111325781
2177.75,852.944081004723
2178,851.246878157946
2178.25,848.950180118666
2178.5,847.112165040531
2178.75,846.138319074513
2179,845.851576558377
2179.25,846.054179425603
2179.5,846.442813755133
2179.75,846.444074418294
2180,845.4419705251
2180.25,842.962721884168
2180.5,839.699772169671
2180.75,836.91891918381
2181,835.859707223981
2181.25,836.498693989188
2181.5,837.118183974427
2181.75,835.881757731002
2182,831.785912704756
2182.25,826.748696097725
2182.5,823.328364312717
2182.75,823.836077315686
2183,828.031686923898
2183.25,834.169737281045
2183.5,840.497533714813
2183.75,845.715771916393
2184,849.101803199621
2184.25,849.970367691245
2184.5,848.063797193632
2184.75,844.57058563367
2185,840.984656918512
2185.25,838.705800638378
2185.5,837.996846554556
2185.75,838.366329497386
2186,839.308236882142
2186.25,840.23610554532
2186.5,840.425725425798
2186.75,839.139369003685
2187,835.934710354517
2187.25,831.783070213622
2187.5,828.078150180141
2187.75,826.149779904678
2188,826.309386759562
2188.25,828.05170147774
2188.5,830.847666115291
2188.75,834.092756143289
2189,837.046124553666
2189.25,838.952602767652
2189.5,839.27837652827
2189.75,838.498331541654
2190,837.374523257503
2190.25,836.639622939625
2190.5,836.587490996537
2190.75,837.174789324956
2191,838.348614049648
2191.25,839.946971214306
2191.5,841.597593443964
2191.75,842.90427551654
2192,843.50581868863
2192.25,843.229885280263
2192.5,841.967543028742
2192.75,839.621498081659
2193,836.328078768074
2193.25,832.440258028587
2193.5,828.31995486668
2193.75,824.592162964437
2194,822.529833780031
2194.25,823.503899055978
2194.5,828.539813669233
2194.75,836.476768852585
2195,845.301266521948
2195.25,853.045638922542
2195.5,858.608610051081
2195.75,861.643035417308
2196,861.828252736838
2196.25,859.356376681117
2196.5,855.710762329447
2196.75,852.574828449491
2197,851.476993342873
2197.25,852.396565568243
2197.5,854.421677289173
2197.75,856.630772273774
2198,858.177238558366
2198.25,858.341022414052
2198.5,856.414269447587
2198.75,851.955457405217
2199,846.066528700699
2199.25,840.404096611731
2199.5,836.596749652554
2199.75,835.441771018725
2200,836.798000743011
2200.25,840.473775274055
2200.5,845.988719824219
2200.75,852.008697444523
2201,857.042511556385
2201.25,859.744258514023
2201.5,860.068173042774
2201.75,858.653297575368
2202,856.146751843766
2202.25,853.334684263853
2202.5,851.232766282784
2202.75,850.87814909082
2203,852.981990952166
2203.25,856.39165311352
2203.5,859.293216861449
2203.75,859.935433109389
2204,858.189350714031
2204.25,855.644322675988
2204.5,853.972344346169
2204.75,854.201719616094
2205,855.063292091577
2205.25,854.77554269458
2205.5,851.732467507663
2205.75,846.737231919836
2206,842.342484726602
2206.25,841.133396509685
2206.5,844.359881899099
2206.75,850.344054554881
2207,857.019712726007
2207.25,862.483767929176
2207.5,865.887466855079
2207.75,866.801326198806
2208,864.831602408397
2208.25,860.853261274714
2208.5,857.345041504231
2208.75,856.888519400099
2209,861.267508113061
2209.25,868.517683251867
2209.5,875.574926836753
2209.75,879.491504577643
2210,879.78022872853
2210.25,878.298308470928
2210.5,876.996234043435
2210.75,877.280084323601
2211,878.421099174979
2211.25,879.167300772918
2211.5,878.315566794497
2211.75,875.793332229984
2212,872.662425298982
2212.25,870.034296908788
2212.5,868.84443428446
2212.75,869.287158437916
2213,871.361681747924
2213.25,875.037770987562
2213.5,879.617000279354
2213.75,883.737732069363
2214,886.009880984288
2214.25,885.537670851209
2214.5,883.338666410433
2214.75,880.893306608605
2215,879.625864395781
2215.25,879.444491980719
2215.5,878.605029683717
2215.75,875.279850401525
2216,868.493386915565
2216.25,861.265271296217
2216.5,857.785099570105
2216.75,862.089583598184
2217,873.64126360082
2217.25,886.652471704824
2217.5,895.046497095511
2217.75,894.653431610911
2218,888.676721760513
2218.25,882.101787279608
2218.5,879.804997549992
2218.75,883.114800792136
2219,889.115078861859
2219.25,894.63992893048
2219.5,897.057958825939
2219.75,896.529696797954
2220,894.124237105027
2220.25,890.908135837938
2220.5,887.763885463998
2220.75,885.287309087328
2221,884.049409174259
2221.25,884.475957650741
2221.5,885.784538770925
2221.75,886.593556064252
2222,885.52217820853
2222.25,881.964315661688
2222.5,876.913972454787
2222.75,871.563051300779
2223,867.046725409879
2223.25,863.880051221779
2223.5,862.195941247113
2223.75,862.120355397834
2224,863.508154891968
2224.25,865.615874680965
2224.5,867.620094817779
2224.75,868.765378724043
2225,868.87638094345
2225.25,868.07158797399
2225.5,866.473711493023
2225.75,864.376748862908
2226,862.377847490488
2226.25,861.10519131033
2226.5,861.060848732942
2226.75,861.861598370421
2227,862.745023745019
2227.25,862.974638199841
2227.5,863.0760412412
2227.75,865.339058781532
2228,872.184862275971
2228.25,885.142041910731
2228.5,901.200350975266
2228.75,915.910406128305
2229,924.909285103655
2229.25,926.712820014183
2229.5,923.30801937185
2229.75,916.88871943712
2230,909.546077134883
2230.25,902.448531616612
2230.5,896.276829034334
2230.75,891.707190317852
2231,889.166604101075
2231.25,888.297943831251
2231.5,888.590272631872
2231.75,889.532307694661
2232,890.605262525113
2232.25,891.283090168027
2232.5,891.039446398096
2232.75,889.43834955612
2233,886.45544562829
2233.25,882.183525834361
2233.5,876.723817364807
2233.75,870.5195491341
2234,864.466724421424
2234.25,859.492476812012
2234.5,856.333160002534
2234.75,854.617485713396
2235,853.57542954417
2235.25,852.458136921419
2235.5,851.187078497872
2235.75,850.465775991072
2236,851.041951123173
2236.25,853.236362751038
2236.5,855.804311960286
2236.75,857.142411048997
2237,855.819038292796
2237.25,852.733323827311
2237.5,850.463562986724
2237.75,851.616708421012
2238,856.957649931188
2238.25,863.10910111329
2238.5,866.128273115998
2238.75,867.776500173598
2239,869.424727231198
2239.25,871.072954288798
2239.5,872.721181346398
2239.75,874.369408403998
2240,876.017635461598
2240.25,877.665862519198
2240.5,879.314089576798
2240.75,880.962316634398
2241,882.610543691998
2241.25,884.258770749598
2241.5,885.906997807198
2241.75,887.555224864798
2242,889.203451922398
2242.25,890.851678979998
2242.5,892.499906037598
2242.75,894.148133095198
2243,895.796360152798
2243.25,897.444587210398
2243.5,899.092814267998
2243.75,900.741041325598
2244,902.389268383198
2244.25,904.037495440798
2244.5,905.685722498398
2244.75,907.333949555998
2245,908.982176613598
2245.25,910.630403671198
2245.5,912.278630728798
2245.75,913.926857786398
2246,915.575084843998
2246.25,917.223311901598
2246.5,918.871538959198
2246.75,920.519766016797
2247,922.167993074397
2247.25,923.816220131997
2247.5,925.464447189597
2247.75,927.112674247197
2248,928.760901304797
2248.25,930.409128362397
2248.5,932.057355419997
2248.75,933.705582477597
2249,935.353809535197
2249.25,937.002036592797
2249.5,938.650263650397
2249.75,940.298490707997
2250,941.946717765597
2250.25,943.594944823197
2250.5,945.243171880797
2250.75,946.891398938397
2251,948.539625995997
2251.25,950.187853053597
2251.5,951.836080111197
2251.75,953.484307168797
2252,955.132534226397
2252.25,956.780761283997
2252.5,958.428988341597
2252.75,960.077215399197
2253,961.725442456797
2253.25,963.373669514397
2253.5,965.021896571997
2253.75,966.670123629597
2254,968.318350687197
2254.25,969.966577744797
2254.5,971.614804802397
2254.75,973.263031859997
2255,974.911258917597
2255.25,976.559485975197
2255.5,978.207713032797
2255.75,979.855940090397
2256,981.504167147997
2256.25,983.152394205597
2256.5,984.800621263197
2256.75,986.448848320797
2257,988.097075378397
2257.25,989.745302435997
2257.5,991.393529493597
2257.75,993.041756551197
2258,994.689983608797
2258.25,996.338210666397
2258.5,997.986437723997
2258.75,999.634664781597
2259,1001.2828918392
2259.25,1002.9311188968
2259.5,1004.5793459544
2259.75,1006.227573012
2260,1007.8758000696
2260.25,1009.5240271272
2260.5,1011.1722541848
2260.75,1012.8204812424
2261,1012.46480199742
2261.25,1010.72741548541
2261.5,1006.31920380699
2261.75,998.290513504744
2262,988.204720376264
2262.25,978.753183083621
2262.5,972.632616110726
2262.75,972.071688639043
2263,975.603751017815
2263.25,980.008750100919
2263.5,982.056053031284
2263.75,979.178455516902
2264,972.489611936009
2264.25,964.372470478222
2264.5,957.211168983598
2264.75,952.921923562947
2265,951.334153550788
2265.25,951.695761385923
2265.5,953.254758424498
2265.75,955.336811266359
2266,957.475503708299
2266.25,959.238850066095
2266.5,960.196761338532
2266.75,960.04103716037
2267,958.657207795119
2267.25,955.948042820077
2267.5,951.839708391693
2267.75,946.839078969295
2268,942.058430924244
2268.25,938.638378613966
2268.5,937.585100384733
2268.75,938.350218015681
2269,939.386322824366
2269.25,939.129530376295
2269.5,936.352069488452
2269.75,931.556566336278
2270,925.800926940413
2270.25,920.142612545422
2270.5,915.375781807717
2270.75,911.637355292982
2271,908.963397373302
2271.25,907.378582539422
2271.5,906.61412500461
2271.75,906.089136964232
2272,905.207607950486
2272.25,903.610669793931
2272.5,902.461820548568
2272.75,903.526165558064
2273,908.560709441908
2273.25,917.807132101921
2273.5,928.350103686385
2273.75,936.879803854153
2274,940.275445047817
2274.25,938.282551104834
2274.5,932.872642849064
2274.75,926.0756395321
2275,919.745327473325
2275.25,914.591481450473
2275.5,910.866934894637
2275.75,908.822771719765
2276,908.418648600642
2276.25,908.845046279741
2276.5,909.167021688377
2276.75,908.510850992054
2277,907.37885868013
2277.25,907.631874344848
2277.5,911.188437987349
2277.75,919.604408926774
2278,932.278183326395
2278.25,947.813587995405
2278.5,964.812688251399
2278.75,981.792154468821
2279,997.089020932775
2279.25,1009.01761903084
2279.5,1015.92426617974
2279.75,1017.5842960126
2280,1015.74449283124
2280.25,1012.2956474909
2280.5,1009.11474713406
2280.75,1007.17386630067
2281,1005.99649548787
2281.25,1004.9759837138
2281.5,1003.51160078267
2281.75,1001.53810675837
2282,999.94487611613
2282.25,999.71991599314
2282.5,1001.84061563095
2282.75,1006.17672512238
2283,1010.53603440454
2283.25,1012.50142437109
2283.5,1009.68087666181
2283.75,1002.3981926893
2284,996.087121922861
2284.25,996.74617926143
2284.5,1010.33256037173
2284.75,1035.73477996898
2285,1056.8293199979
2285.25,1056.14097646542
2285.5,1055.45263293293
2285.75,1054.76428940045
2286,1054.07594586797
2286.25,1053.38760233549
2286.5,1052.69925880301
2286.75,1052.01091527053
2287,1051.32257173805
2287.25,1050.63422820557
2287.5,1049.94588467308
2287.75,1049.2575411406
2288,1048.56919760812
2288.25,1047.88085407564
2288.5,1047.19251054316
2288.75,1046.50416701068
2289,1045.8158234782
2289.25,1045.12747994571
2289.5,1044.43913641323
2289.75,1043.75079288075
2290,1043.06244934827
2290.25,1042.37410581579
2290.5,1041.68576228331
2290.75,1040.99741875083
2291,1040.30907521835
2291.25,1039.62073168586
2291.5,1038.93238815338
2291.75,1038.2440446209
2292,1037.55570108842
2292.25,1032.24014586744
2292.5,1026.39181294468
2292.75,1021.62363249842
2293,1019.153671935
2293.25,1019.02139090048
2293.5,1021.04731145594
2293.75,1025.05195526667
2294,1030.50801502927
2294.25,1035.5402076053
2294.5,1037.94675545078
2294.75,1035.52588102178
2295,1026.83839265628
2295.25,1014.43810756489
2295.5,1002.18135851817
2295.75,993.925198655064
2296,992.927116868606
2296.25,997.572256717135
2296.5,1003.87652446733
2296.75,1007.8400484461
2297,1006.04904056597
2297.25,999.437393510903
2297.5,990.893983556222
2297.75,983.317045288255
2298,979.261837729064
2298.25,978.461339599087
2298.5,979.261619338931
2298.75,979.999120310125
2299,979.241714121932
2299.25,977.068527735668
2299.5,974.165271150303
2299.75,971.219288596234
2300,968.844117286146
2300.25,967.276653639835
2300.5,966.633961514569
2300.75,967.033046695588
2301,968.393137130963
2301.25,969.921562180268
2301.5,970.665532427307
2301.75,969.674109456367
2302,966.617601060745
2302.25,962.6864155129
2302.5,959.2991551576
2302.75,957.861871859315
2303,958.702746616907
2303.25,960.259588974683
2303.5,960.778901291673
2303.75,958.567672009192
2304,953.664468096142
2304.25,948.052749617431
2304.5,943.81930621375
2304.75,942.903651427469
2305,945.1720890862
2305.25,948.959168152268
2305.5,952.563572145641
2305.75,954.276375240142
2306,952.339678829199
2306.25,944.976186544902
2306.5,930.408647938854
2306.75,910.092104809732
2307,910.066393991833
2307.25,910.040683173935
2307.5,910.014972356037
2307.75,909.989261538139
2308,909.963550720241
2308.25,909.937839902342
2308.5,909.912129084444
2308.75,909.886418266546
2309,909.860707448648
2309.25,909.834996630749
2309.5,909.809285812851
2309.75,909.783574994953
2310,909.757864177055
2310.25,909.732153359157
2310.5,909.706442541258
2310.75,909.68073172336
2311,909.655020905462
2311.25,909.629310087564
2311.5,909.603599269665
2311.75,909.577888451767
2312,909.552177633869
2312.25,909.526466815971
2312.5,909.500755998072
2312.75,909.475045180174
2313,909.449334362276
2313.25,909.423623544378
2313.5,909.397912726479
2313.75,909.372201908581
2314,909.346491090683
2314.25,909.320780272785
2314.5,909.295069454887
2314.75,909.269358636988
2315,909.24364781909
2315.25,909.217937001192
2315.5,909.192226183294
2315.75,909.166515365396
2316,909.140804547497
2316.25,909.115093729599
2316.5,909.089382911701
2316.75,909.063672093803
2317,909.037961275904
2317.25,909.012250458006
2317.5,908.986539640108
2317.75,908.96082882221
2318,908.935118004311
2318.25,908.909407186413
2318.5,908.883696368515
2318.75,908.857985550617
2319,908.832274732718
2319.25,908.80656391482
2319.5,908.780853096922
2319.75,908.755142279024
2320,908.729431461126
2320.25,908.703720643227
2320.5,908.678009825329
2320.75,908.652299007431
2321,908.626588189533
2321.25,908.600877371634
2321.5,908.575166553736
2321.75,908.549455735838
2322,908.52374491794
2322.25,908.498034100042
2322.5,908.472323282143
2322.75,908.446612464245
2323,908.420901646347
2323.25,908.395190828449
2323.5,908.36948001055
2323.75,908.343769192652
2324,908.318058374754
2324.25,908.292347556856
2324.5,908.266636738957
2324.75,908.240925921059
2325,908.215215103161
2325.25,908.189504285263
2325.5,908.163793467365
2325.75,908.138082649466
2326,908.112371831568
2326.25,908.08666101367
2326.5,908.060950195772
2326.75,908.035239377873
2327,908.009528559975
2327.25,907.983817742077
2327.5,907.958106924179
2327.75,907.932396106281
2328,907.906685288382
2328.25,907.880974470484
2328.5,907.855263652586
2328.75,907.829552834688
2329,907.803842016789
2329.25,907.778131198891
2329.5,907.752420380993
2329.75,907.726709563095
2330,907.700998745196
2330.25,907.675287927298
2330.5,907.6495771094
2330.75,907.623866291502
2331,907.598155473603
2331.25,907.572444655705
2331.5,907.546733837807
2331.75,907.521023019909
2332,907.495312202011
2332.25,907.469601384112
2332.5,907.443890566214
2332.75,907.418179748316
2333,907.392468930418
2333.25,907.36675811252
2333.5,907.341047294621
2333.75,907.315336476723
2334,907.289625658825
2334.25,907.263914840927
2334.5,907.238204023028
2334.75,907.21249320513
2335,907.186782387232
2335.25,907.161071569334
2335.5,907.135360751435
2335.75,907.109649933537
2336,907.083939115639
2336.25,907.058228297741
2336.5,907.032517479842
2336.75,907.006806661944
2337,906.981095844046
2337.25,906.955385026148
2337.5,906.92967420825
2337.75,906.903963390351
2338,906.878252572453
2338.25,906.852541754555
2338.5,906.826830936657
2338.75,906.801120118758
2339,906.77540930086
2339.25,906.749698482962
2339.5,906.723987665064
2339.75,906.698276847166
2340,906.672566029267
2340.25,906.646855211369
2340.5,906.621144393471
2340.75,906.595433575573
2341,906.569722757674
2341.25,906.544011939776
2341.5,906.518301121878
2341.75,906.49259030398
2342,906.466879486081
2342.25,906.441168668183
2342.5,906.415457850285
2342.75,906.389747032387
2343,906.364036214489
2343.25,906.33832539659
2343.5,906.312614578692
2343.75,906.286903760794
2344,906.261192942896
2344.25,906.235482124997
2344.5,906.209771307099
2344.75,906.184060489201
2345,906.158349671303
2345.25,906.132638853405
2345.5,906.106928035506
2345.75,906.081217217608
2346,908.45130936938
2346.25,908.683910607297
2346.5,906.96114978771
2346.75,903.552529111492
2347,898.752107898255
2347.25,893.160108261998
2347.5,887.584564806881
2347.75,882.837473762553
2348,879.822178577868
2348.25,879.766457559504
2348.5,883.970084122397
2348.75,893.513344676533
2349,904.608041564942
2349.25,908.695291009435
2349.5,897.016284340946
2349.75,897.111045307227
2350,897.205806273508
2350.25,897.300567239789
2350.5,897.39532820607
2350.75,897.490089172351
2351,897.584850138632
2351.25,897.679611104914
2351.5,897.774372071195
2351.75,897.869133037476
2352,897.963894003757
2352.25,898.058654970038
2352.5,898.153415936319
2352.75,898.2481769026
2353,898.342937868881
2353.25,898.437698835162
2353.5,898.532459801443
2353.75,898.627220767724
2354,898.721981734005
2354.25,898.816742700286
2354.5,898.911503666567
2354.75,899.006264632848
2355,899.101025599129
2355.25,899.19578656541
2355.5,899.290547531691
2355.75,899.385308497972
2356,899.480069464253
2356.25,899.882995932579
2356.5,897.597962492298
2356.75,893.942298765178
2357,890.11605836911
2357.25,887.105147464645
2357.5,885.87266801368
2357.75,887.230261587153
2358,890.384968350202
2358.25,893.578216242615
2358.5,895.039954253367
2358.75,893.803014002862
2359,890.9718677139
2359.25,887.980614700024
2359.5,886.181740677203
2359.75,885.541867961096
2360,884.869732751719
2360.25,882.938520194158
2360.5,879.092769118226
2360.75,874.823696291094
2361,872.126585191193
2361.25,872.905983513205
2361.5,876.867320237943
2361.75,881.452707541322
2362,884.000678865488
2362.25,882.659378067932
2362.5,878.805174783049
2362.75,874.618949169927
2363,872.230191251042
2363.25,872.367857338161
2363.5,874.226976627405
2363.75,876.924440256084
2364,879.61727354998
2364.25,881.636473871815
2364.5,882.360166827696
2364.75,881.189298702585
2365,878.14620104558
2365.25,873.933478048543
2365.5,869.288361496795
2365.75,864.942031679751
2366,861.596448673865
2366.25,859.944764648668
2366.5,860.649158818989
2366.75,863.511922344988
2367,867.384496900417
2367.25,871.069105282558
2367.5,873.606788385056
2367.75,874.934078610592
2368,875.197360287199
2368.25,874.558820618266
2368.5,873.487120321982
2368.75,872.728722648472
2369,873.0401233666
2369.25,874.786147338812
2369.5,876.932306733272
2369.75,878.131742905933
2370,877.126985942913
2370.25,874.333676037286
2370.5,871.652026373696
2370.75,871.033730235968
2371,873.517003543128
2371.25,876.838915193175
2371.5,877.991071532143
2371.75,874.216944573872
2372,867.390519715326
2372.25,863.449993206257
2372.5,868.4712734953
2372.75,884.142554117719
2373,884.258862336816
2373.25,884.375170555912
2373.5,884.491478775009
2373.75,884.607786994106
2374,884.724095213203
2374.25,884.8404034323
2374.5,884.956711651396
2374.75,885.073019870493
2375,885.18932808959
2375.25,885.305636308687
2375.5,885.421944527784
2375.75,885.53825274688
2376,885.654560965977
2376.25,885.770869185074
2376.5,885.887177404171
2376.75,886.003485623268
2377,886.119793842364
2377.25,886.236102061461
2377.5,886.352410280558
2377.75,886.468718499655
2378,886.585026718751
2378.25,886.701334937848
2378.5,886.817643156945
2378.75,886.933951376042
2379,887.050259595139
2379.25,887.166567814235
2379.5,887.282876033332
2379.75,887.399184252429
2380,887.515492471526
2380.25,887.631800690623
2380.5,887.748108909719
2380.75,887.864417128816
2381,887.980725347913
2381.25,888.09703356701
2381.5,888.213341786107
2381.75,888.329650005203
2382,888.4459582243
2382.25,888.562266443397
2382.5,888.678574662494
2382.75,888.794882881591
2383,888.911191100687
2383.25,889.027499319784
2383.5,889.143807538881
2383.75,889.260115757978
2384,889.376423977075
2384.25,889.492732196171
2384.5,889.609040415268
2384.75,889.725348634365
2385,889.841656853462
2385.25,889.957965072559
2385.5,890.074273291655
2385.75,890.190581510752
2386,890.306889729849
2386.25,890.423197948946
2386.5,890.539506168043
2386.75,889.361293868149
2387,888.48583614404
2387.25,888.491749291901
2387.5,889.960189283728
2387.75,893.176668763156
2388,897.184044524025
2388.25,900.698733406702
2388.5,902.460837960573
2388.75,902.014955481334
2389,899.888024033676
2389.25,896.66668336216
2389.5,892.904221218922
2389.75,888.919455897631
2390,884.930642577937
2390.25,881.155949025241
2390.5,877.857044151437
2390.75,875.384443778195
2391,874.099507879542
2391.25,874.311719690226
2391.5,875.802107571419
2391.75,878.043141202787
2392,880.503527832264
2392.25,882.671822904813
2392.5,884.079896697927
2392.75,884.26533295751
2393,882.852875077283
2393.25,880.405922929756
2393.5,878.05983373535
2393.75,876.95684975408
2394,877.703062046787
2394.25,879.534402007122
2394.5,881.471060361386
2394.75,882.61378043599
2395,883.080563993035
2395.25,883.686249690407
2395.5,885.258465303046
2395.75,887.928445480343
2396,889.853937992295
2396.25,888.845518499626
2396.5,889.173826619351
2396.75,889.502134739077
2397,889.830442858803
2397.25,890.158750978528
2397.5,890.487059098254
2397.75,890.81536721798
2398,891.143675337705
2398.25,891.471983457431
2398.5,891.800291577157
2398.75,892.128599696883
2399,892.456907816608
2399.25,892.785215936334
2399.5,893.11352405606
2399.75,893.441832175785
2400,893.770140295511
2400.25,894.098448415237
2400.5,894.426756534963
2400.75,894.755064654688
2401,895.083372774414
2401.25,895.41168089414
2401.5,895.739989013865
2401.75,896.068297133591
2402,896.396605253317
2402.25,896.724913373042
2402.5,897.053221492768
2402.75,897.381529612494
2403,897.70983773222
2403.25,898.038145851945
2403.5,898.047186853756
2403.75,899.754715760773
2404,902.290784011237
2404.25,904.435971237386
2404.5,905.010364534587
2404.75,903.910995832561
2405,902.214556403426
2405.25,901.057841341058
2405.5,901.357695946126
2405.75,902.622037744533
2406,903.803112398959
2406.25,903.856630451205
2406.5,902.375003266314
2406.75,900.217290930647
2407,898.3923713562
2407.25,897.813100799057
2407.5,898.09048759473
2407.75,897.898186934405
2408,895.889225527706
2408.25,891.293204064221
2408.5,885.426169835845
2408.75,880.075968800764
2409,876.993106145727
2409.25,876.825441103719
2409.5,878.962868679271
2409.75,882.726710241216
2410,887.377777460259
2410.25,891.884895976916
2410.5,895.128933923416
2410.75,896.021075851607
2411,894.613062266635
2411.25,892.416255142068
2411.5,891.03738335672
2411.75,891.80829007293
2412,894.165486951917
2412.25,896.746523098469
2412.5,898.19235859382
2412.75,897.840538558982
2413,896.352635583396
2413.25,894.538394813838
2413.5,893.126022992232
2413.75,891.893353749249
2414,890.003892752411
2414.25,886.611222556176
2414.5,881.522390699132
2414.75,876.543733367732
2415,873.862625741004
2415.25,875.512529043806
2415.5,880.599687462746
2415.75,885.607831500511
2416,886.928129613732
2416.25,883.045441724152
2416.5,879.73787955649
2416.75,884.370628953322
2417,903.628315210036
2417.25,903.472847108361
2417.5,903.317379006686
2417.75,903.16191090501
2418,903.006442803335
2418.25,902.850974701659
2418.5,902.695506599984
2418.75,902.540038498309
2419,902.384570396633
2419.25,902.229102294958
2419.5,902.073634193283
2419.75,901.918166091607
2420,901.762697989932
2420.25,901.607229888256
2420.5,901.451761786581
2420.75,901.296293684906
2421,901.14082558323
2421.25,900.985357481555
2421.5,900.82988937988
2421.75,900.674421278204
2422,900.518953176529
2422.25,900.363485074853
2422.5,900.208016973178
2422.75,900.052548871503
2423,899.897080769827
2423.25,899.741612668152
2423.5,899.586144566476
2423.75,899.430676464801
2424,899.275208363126
2424.25,898.645299341549
2424.5,899.434706664755
2424.75,900.88320521123
2425,902.229032592343
2425.25,903.011786510751
2425.5,903.437716304925
2425.75,903.802393374466
2426,904.35395919132
2426.25,904.617012559632
2426.5,903.551997842504
2426.75,900.104427132597
2427,893.759902749215
2427.25,886.303365610328
2427.5,880.131542055751
2427.75,877.605618876981
2428,879.519810473871
2428.25,884.518663099142
2428.5,891.090975009905
2428.75,897.781260960967
2429,903.46712980844
2429.25,907.14943784955
2429.5,907.840676170579
2429.75,905.441871784165
2430,901.362306460238
2430.25,897.157626670598
2430.5,894.305790888615
2430.75,893.384569402862
2431,894.392356455671
2431.25,897.317831365205
2431.5,901.887227413131
2431.75,907.008607720618
2432,911.431049593751
2432.25,913.941608618205
2432.5,914.218586777578
2432.75,912.841504247088
2433,910.429853917669
2433.25,907.581293715807
2433.5,904.753019681122
2433.75,902.346615493271
2434,900.762811935103
2434.25,900.258152637294
2434.5,900.770983292141
2434.75,902.197132991629
2435,904.400333838518
2435.25,906.764041254453
2435.5,908.301987289113
2435.75,908.018393109367
2436,905.345893345186
2436.25,901.493168447244
2436.5,898.129072046092
2436.75,896.898319466642
2437,898.209585092495
2437.25,900.668700283741
2437.5,902.738909650254
2437.75,903.093128227703
2438,902.122162003436
2438.25,901.05794830613
2438.5,901.134635267062
2438.75,902.166325729486
2439,900.382112243374
2439.25,900.559251622232
2439.5,900.736391001089
2439.75,900.913530379947
2440,901.090669758804
2440.25,901.267809137661
2440.5,901.444948516519
2440.75,901.622087895376
2441,901.799227274233
2441.25,901.976366653091
2441.5,902.153506031948
2441.75,902.330645410805
2442,902.507784789663
2442.25,902.68492416852
2442.5,902.862063547377
2442.75,903.039202926235
2443,903.216342305092
2443.25,903.39348168395
2443.5,903.570621062807
2443.75,903.747760441664
2444,903.924899820522
2444.25,904.102039199379
2444.5,904.279178578236
2444.75,904.456317957094
2445,904.633457335951
2445.25,904.810596714809
2445.5,904.987736093666
2445.75,905.164875472523
2446,905.342014851381
2446.25,905.519154230238
2446.5,905.696293609095
2446.75,905.873432987953
2447,906.05057236681
2447.25,906.227711745667
2447.5,906.404851124525
2447.75,906.581990503382
2448,906.759129882239
2448.25,906.936269261097
2448.5,907.113408639954
2448.75,907.290548018812
2449,907.467687397669
2449.25,907.644826776526
2449.5,907.821966155384
2449.75,907.999105534241
2450,908.176244913098
2450.25,908.353384291956
2450.5,908.530523670813
2450.75,908.70766304967
2451,908.884802428528
2451.25,909.061941807385
2451.5,909.239081186243
2451.75,909.4162205651
2452,909.593359943957
2452.25,909.770499322815
2452.5,909.947638701672
2452.75,910.124778080529
2453,910.301917459387
2453.25,910.479056838244
2453.5,910.656196217101
2453.75,910.833335595959
2454,911.010474974816
2454.25,911.187614353674
2454.5,911.364753732531
2454.75,911.541893111388
2455,911.719032490246
2455.25,911.896171869103
2455.5,912.07331124796
2455.75,912.250450626818
2456,912.427590005675
2456.25,912.604729384532
2456.5,912.78186876339
2456.75,912.959008142247
2457,913.136147521104
2457.25,913.313286899962
2457.5,913.490426278819
2457.75,913.667565657677
2458,913.844705036534
2458.25,914.021844415391
2458.5,914.198983794249
2458.75,914.376123173106
2459,914.553262551963
2459.25,914.730401930821
2459.5,914.907541309678
2459.75,915.084680688536
2460,915.261820067393
2460.25,915.43895944625
2460.5,915.616098825108
2460.75,915.793238203965
2461,915.970377582822
2461.25,916.14751696168
2461.5,916.324656340537
2461.75,916.501795719394
2462,916.678935098252
2462.25,916.856074477109
2462.5,917.033213855966
2462.75,917.210353234824
2463,917.387492613681
2463.25,917.564631992539
2463.5,917.741771371396
2463.75,917.918910750253
2464,918.096050129111
2464.25,918.273189507968
2464.5,918.450328886825
2464.75,918.627468265683
2465,916.744546453752
2465.25,912.517086614654
2465.5,909.642333680411
2465.75,909.118426371591
2466,910.943374920595
2466.25,915.106621334441
2466.5,920.428864975299
2466.75,923.257779096803
2467,919.626332819266
2467.25,906.164225376192
2467.5,906.07564097797
2467.75,905.987056579749
2468,905.898472181527
2468.25,905.809887783306
2468.5,905.721303385084
2468.75,905.632718986863
2469,905.544134588641
2469.25,905.45555019042
2469.5,905.366965792198
2469.75,905.278381393977
2470,905.189796995755
2470.25,905.101212597534
2470.5,905.012628199312
2470.75,904.924043801091
2471,904.835459402869
2471.25,904.746875004648
2471.5,904.658290606426
2471.75,904.569706208204
2472,904.481121809983
2472.25,904.392537411761
2472.5,904.30395301354
2472.75,904.215368615318
2473,904.126784217097
2473.25,904.038199818875
2473.5,903.949615420654
2473.75,903.861031022432
2474,903.772446624211
2474.25,903.683862225989
2474.5,903.595277827768
2474.75,903.506693429546
2475,903.418109031325
2475.25,903.329524633103
2475.5,903.240940234881
2475.75,903.15235583666
2476,903.063771438438
2476.25,902.975187040217
2476.5,902.886602641995
2476.75,902.798018243774
2477,902.709433845552
2477.25,902.620849447331
2477.5,902.532265049109
2477.75,902.443680650888
2478,902.355096252666
2478.25,902.266511854445
2478.5,902.177927456223
2478.75,902.089343058002
2479,902.00075865978
2479.25,901.912174261559
2479.5,901.823589863337
2479.75,901.735005465115
2480,901.646421066894
2480.25,901.557836668672
2480.5,901.469252270451
2480.75,901.380667872229
2481,901.292083474008
2481.25,901.203499075786
2481.5,901.114914677565
2481.75,901.026330279343
2482,900.937745881122
2482.25,900.8491614829
2482.5,900.760577084679
2482.75,900.671992686457
2483,900.583408288236
2483.25,900.494823890014
2483.5,900.406239491793
2483.75,900.317655093571
2484,900.229070695349
2484.25,900.140486297128
2484.5,900.051901898906
2484.75,899.963317500685
2485,899.874733102463
2485.25,899.786148704242
2485.5,899.69756430602
2485.75,899.608979907799
2486,899.520395509577
2486.25,899.431811111356
2486.5,899.343226713134
2486.75,899.254642314913
2487,899.166057916691
2487.25,899.07747351847
2487.5,898.988889120248
2487.75,898.900304722026
2488,898.811720323805
2488.25,898.723135925584
2488.5,898.634551527362
2488.75,898.54596712914
2489,898.457382730919
2489.25,898.368798332697
2489.5,898.280213934476
2489.75,898.191629536254
2490,898.103045138033
2490.25,898.014460739811
2490.5,897.92587634159
2490.75,897.837291943368
2491,897.748707545147
2491.25,897.660123146925
2491.5,897.571538748704
2491.75,897.482954350482
2492,897.39436995226
2492.25,897.305785554039
2492.5,897.217201155817
2492.75,897.128616757596
2493,897.040032359374
2493.25,896.951447961153
2493.5,896.862863562931
2493.75,896.77427916471
2494,896.685694766488
2494.25,896.597110368267
2494.5,896.508525970045
2494.75,896.419941571824
2495,896.331357173602
2495.25,896.242772775381
2495.5,896.154188377159
2495.75,896.065603978938
2496,895.977019580716
2496.25,895.888435182495
2496.5,895.799850784273
2496.75,895.711266386051
2497,895.62268198783
2497.25,895.534097589608
2497.5,895.445513191387
2497.75,895.356928793165
2498,895.268344394944
2498.25,895.179759996722
2498.5,895.091175598501
2498.75,895.002591200279
2499,894.914006802058
2499.25,894.825422403836
2499.5,894.736838005615
2499.75,894.648253607393
2500,894.559669209171
2500.25,894.47108481095
2500.5,894.382500412729
2500.75,894.293916014507
2501,894.205331616285
2501.25,894.116747218064
2501.5,894.028162819842
2501.75,893.939578421621
2502,893.850994023399
2502.25,893.762409625178
2502.5,893.673825226956
2502.75,893.585240828735
2503,893.496656430513
2503.25,893.408072032292
2503.5,893.31948763407
2503.75,893.230903235849
2504,893.142318837627
2504.25,893.053734439406
2504.5,892.965150041184
2504.75,892.876565642962
2505,892.787981244741
2505.25,892.699396846519
2505.5,892.610812448298
2505.75,892.522228050076
2506,892.433643651855
2506.25,892.345059253633
2506.5,892.256474855412
2506.75,892.16789045719
2507,892.079306058969
2507.25,891.990721660747
2507.5,891.902137262526
2507.75,891.813552864304
2508,891.724968466083
2508.25,891.636384067861
2508.5,891.54779966964
2508.75,891.459215271418
2509,891.370630873196
2509.25,891.282046474975
2509.5,891.193462076753
2509.75,891.104877678532
2510,891.01629328031
2510.25,890.927708882089
2510.5,890.839124483867
2510.75,890.750540085646
2511,890.661955687424
2511.25,890.573371289203
2511.5,890.484786890981
2511.75,890.39620249276
2512,890.307618094538
2512.25,890.219033696317
2512.5,890.130449298095
2512.75,890.041864899873
2513,889.953280501652
2513.25,889.86469610343
2513.5,889.776111705209
2513.75,889.687527306987
2514,889.598942908766
2514.25,889.510358510544
2514.5,889.421774112323
2514.75,889.333189714101
2515,889.24460531588
2515.25,889.156020917658
2515.5,889.067436519437
2515.75,888.978852121215
2516,888.890267722994
2516.25,888.801683324772
2516.5,888.713098926551
2516.75,888.624514528329
2517,888.535930130107
2517.25,888.447345731886
2517.5,888.358761333664
2517.75,888.270176935443
2518,888.181592537221
2518.25,888.093008139
2518.5,888.004423740778
2518.75,887.915839342557
2519,887.827254944335
2519.25,887.738670546114
2519.5,887.650086147892
2519.75,887.561501749671
2520,887.472917351449
2520.25,887.384332953228
2520.5,887.295748555006
2520.75,887.207164156785
2521,887.118579758563
2521.25,887.029995360341
2521.5,886.94141096212
2521.75,886.852826563898
2522,886.764242165677
2522.25,886.675657767455
2522.5,886.587073369234
2522.75,886.498488971012
2523,886.409904572791
2523.25,886.321320174569
2523.5,886.232735776348
2523.75,886.144151378126
2524,886.055566979905
2524.25,885.966982581683
2524.5,885.878398183462
2524.75,885.78981378524
2525,885.701229387018
2525.25,885.612644988797
2525.5,885.524060590575
2525.75,885.435476192354
2526,885.346891794132
2526.25,885.258307395911
2526.5,885.169722997689
2526.75,885.081138599468
2527,884.992554201246
2527.25,884.903969803025
2527.5,884.815385404803
2527.75,884.726801006582
2528,884.63821660836
2528.25,884.549632210139
2528.5,884.461047811917
2528.75,884.372463413696
2529,884.283879015474
2529.25,884.195294617252
2529.5,884.106710219031
2529.75,884.018125820809
2530,883.929541422588
2530.25,883.840957024366
2530.5,883.752372626145
2530.75,883.663788227923
2531,883.575203829702
2531.25,883.48661943148
2531.5,883.398035033259
2531.75,883.309450635037
2532,883.220866236816
2532.25,883.132281838594
2532.5,883.043697440373
2532.75,882.955113042151
2533,882.86652864393
2533.25,882.777944245708
2533.5,882.689359847486
2533.75,882.600775449265
2534,882.512191051043
2534.25,882.423606652822
2534.5,882.3350222546
2534.75,882.246437856379
2535,882.157853458157
2535.25,882.069269059936
2535.5,881.980684661714
2535.75,881.892100263493
2536,881.803515865271
2536.25,881.71493146705
2536.5,881.626347068828
2536.75,881.537762670607
2537,881.449178272385
2537.25,881.360593874163
2537.5,881.272009475942
2537.75,881.18342507772
2538,881.094840679499
2538.25,881.006256281277
2538.5,880.917671883056
2538.75,880.829087484834
2539,880.740503086613
2539.25,880.651918688391
2539.5,880.56333429017
2539.75,880.474749891948
2540,880.386165493727
2540.25,880.297581095505
2540.5,880.208996697284
2540.75,880.120412299062
2541,880.031827900841
2541.25,879.644538482127
2541.5,881.122698789549
2541.75,884.959299996151
2542,889.005922595442
2542.25,890.996120110092
2542.5,889.369955427627
2542.75,885.620784768739
2543,882.066597114325
2543.25,880.976174075446
2543.5,882.816486081885
2543.75,885.776495939054
2544,887.899061825202
2544.25,887.601373563814
2544.5,885.411331427567
2544.75,882.595955166152
2545,880.408996632497
2545.25,879.267783091039
2545.5,878.297153283399
2545.75,876.511226805855
2546,873.126739955532
2546.25,868.808116228426
2546.5,864.849658237992
2546.75,862.538712295095
2547,862.462515093555
2547.25,864.042645061368
2547.5,866.590373450233
2547.75,869.415173915589
2548,871.815343153415
2548.25,873.084888762477
2548.5,872.539022092673
2548.75,870.385660642808
2549,868.033369279717
2549.25,866.975214348401
2549.5,868.250151954236
2549.75,870.402371612899
2550,871.123839789024
2550.25,868.174690647638
2550.5,861.611452873529
2550.75,854.269738989928
2551,849.151705570801
2551.25,848.426777025574
2551.5,850.359131329947
2551.75,852.069130180437
2552,850.821115219903
2552.25,846.515865173141
2552.5,841.361071158159
2552.75,837.640388248531
2553,836.684883226099
2553.25,837.3286545683
2553.5,838.001652336551
2553.75,837.370558346287
2554,835.90133840616
2554.25,834.886264784106
2554.5,835.570403558402
2554.75,837.592773464732
2555,838.710888684737
2555.25,836.576794185947
2555.5,831.002953270744
2555.75,828.231299936394
2556,835.694424744529
2556.25,835.962346231063
2556.5,836.230267717596
2556.75,836.49818920413
2557,836.766110690663
2557.25,837.034032177196
2557.5,837.30195366373
2557.75,837.569875150263
2558,837.837796636796
2558.25,838.10571812333
2558.5,838.373639609863
2558.75,838.641561096397
2559,838.90948258293
2559.25,839.177404069463
2559.5,839.445325555997
2559.75,839.71324704253
2560,839.981168529064
2560.25,840.249090015597
2560.5,840.51701150213
2560.75,840.784932988664
2561,841.052854475197
2561.25,841.32077596173
2561.5,841.588697448264
2561.75,841.856618934797
2562,842.124540421331
2562.25,842.392461907864
2562.5,842.660383394397
2562.75,842.928304880931
2563,843.196226367464
2563.25,843.464147853997
2563.5,843.732069340531
2563.75,843.999990827064
2564,844.267912313598
2564.25,844.535833800131
2564.5,844.803755286664
2564.75,845.071676773198
2565,845.339598259731
2565.25,845.607519746265
2565.5,845.875441232798
2565.75,846.143362719331
2566,846.411284205865
2566.25,846.679205692398
2566.5,846.947127178932
2566.75,847.215048665465
2567,847.482970151998
2567.25,847.750891638532
2567.5,848.018813125065
2567.75,848.286734611598
2568,848.554656098132
2568.25,848.822577584665
2568.5,849.090499071199
2568.75,849.358420557732
2569,849.626342044265
2569.25,849.894263530799
2569.5,850.162185017332
2569.75,850.430106503866
2570,850.698027990399
2570.25,850.965949476932
2570.5,851.233870963466
2570.75,851.501792449999
2571,851.769713936533
2571.25,852.037635423066
2571.5,852.305556909599
2571.75,852.573478396133
2572,852.841399882666
2572.25,853.109321369199
2572.5,853.377242855733
2572.75,853.645164342266
2573,853.9130858288
